-0.00000000000000004422 0.00000000000000000000 0.00000000000000002381 
-0.00000000000000006877 0.00000000000000010884 0.00000000000000008845 
0.00000000000000002775 0.00000000000000005442 0.00000000000000005105 
-0.00000000000000001028 0.00000000000000000000 0.00000000000000010558 
0.00000000000000008296 0.00000000000000005442 0.00000000000000005804 
0.00000000000000000608 0.00000000000000010884 0.00000000000000018914 
-0.00000000000000002470 -0.00000000000000010884 0.00000000000000011900 
0.00000000000000010782 -0.00000000000000005442 0.00000000000000013113 
-0.00000000000000000242 0.00000000000000000000 0.00000000000000002268 
0.00000000000000003347 0.00000000000000000000 0.00000000000000010473 
-0.00000000000000000727 0.00000000000000005442 0.00000000000000006060 
-0.00000000000000000670 -0.00000000000000005442 0.00000000000000014303 
-0.00000000000000008596 0.00000000000000010884 0.00000000000000011943 
0.00000000000000014287 0.00000000000000005442 0.00000000000000012095 
-0.00000000000000003031 0.00000000000000000000 0.00000000000000018296 
0.00000000000000009018 0.00000000000000000000 0.00000000000000015750 
-0.00000000000000008569 -0.00000000000000010884 0.00000000000000010349 
0.00000000000000003906 0.00000000000000000000 0.00000000000000015763 
0.00000000000000002628 0.00000000000000010884 -0.00000000000000000680 
-0.00000000000000005407 0.00000000000000005442 0.00000000000000000899 
-0.00000000000000001935 0.00000000000000000000 0.00000000000000010817 
-0.00000000000000004817 0.00000000000000005442 0.00000000000000017828 
-0.00000000000000002794 -0.00000000000000010884 0.00000000000000014228 
0.00000000000000011367 0.00000000000000005442 0.00000000000000014513 
0.00000000000000004018 0.00000000000000000000 -0.00000000000000001862 
0.00000000000000002657 0.00000000000000005442 0.00000000000000009895 
0.00000000000000011562 0.00000000000000005442 0.00000000000000006986 
0.00000000000000000819 0.00000000000000000000 0.00000000000000008091 
-0.00000000000000002042 0.00000000000000000000 0.00000000000000005374 
0.00000000000000009675 -0.00000000000000005442 0.00000000000000015029 
0.00000000000000001962 -0.00000000000000005442 0.00000000000000009833 
0.00000000000000005441 0.00000000000000000000 0.00000000000000005852 
-0.00000000000000006289 -0.00000000000000010884 0.00000000000000009793 
0.00000000000000002636 0.00000000000000005442 0.00000000000000009480 
0.00000000000000007483 0.00000000000000010884 0.00000000000000009205 
0.00000000000000011745 0.00000000000000000000 0.00000000000000005476 
-0.00000000000000005839 -0.00000000000000005442 0.00000000000000004098 
0.00000000000000003210 0.00000000000000005442 0.00000000000000009956 
-0.00000000000000006704 -0.00000000000000016326 0.00000000000000016221 
0.00000000000000006122 -0.00000000000000005442 0.00000000000000013320 
0.00000000000000011564 0.00000000000000005442 -0.00000000000000011236 
0.00000000000000000575 0.00000000000000010884 0.00000000000000013750 
-0.00000000000000006913 0.00000000000000005442 0.00000000000000007449 
-0.00000000000000006689 0.00000000000000005442 0.00000000000000003286 
-0.00000000000000007024 -0.00000000000000005442 -0.00000000000000002830 
0.00000000000000006461 0.00000000000000005442 0.00000000000000018163 
-0.00000000000000005545 0.00000000000000000000 0.00000000000000008241 
0.00000000000000003398 0.00000000000000005442 0.00000000000000014122 
0.00000000000000005531 -0.00000000000000005442 -0.00000000000000000757 
0.00000000000000007820 0.00000000000000010884 0.00000000000000010113 
0.00000000000000009258 0.00000000000000010884 0.00000000000000013587 
-0.00000000000000001016 0.00000000000000010884 0.00000000000000006625 
-0.00000000000000000343 -0.00000000000000005442 0.00000000000000004657 
-0.00000000000000003539 0.00000000000000005442 0.00000000000000001499 
0.00000000000000002038 0.00000000000000010884 0.00000000000000011079 
-0.00000000000000002574 0.00000000000000005442 0.00000000000000007512 
0.00000000000000002381 -0.00000000000000005442 -0.00000000000000000538 
0.00000000000000005493 0.00000000000000000000 0.00000000000000017330 
0.00000000000000011261 0.00000000000000016326 0.00000000000000003885 
0.00000000000000005098 0.00000000000000005442 0.00000000000000006265 
0.00000000000000005965 0.00000000000000005442 0.00000000000000010350 
0.00000000000000007299 0.00000000000000005442 0.00000000000000009194 
-0.00000000000000000349 0.00000000000000005442 0.00000000000000008181 
0.00000000000000000000 0.00000000000000005442 0.00000000000000007481 
-0.00000000000000009353 -0.00000000000000005442 0.00000000000000000892 
-0.00000000000000009855 0.00000000000000010884 0.00000000000000007793 
0.00000000000000001535 0.00000000000000000000 0.00000000000000006670 
-0.00000000000000008146 0.00000000000000010884 0.00000000000000010812 
0.00000000000000003055 0.00000000000000005442 -0.00000000000000002767 
-0.00000000000000002729 0.00000000000000010884 0.00000000000000011248 
-0.00000000000000008685 -0.00000000000000005442 0.00000000000000009236 
0.00000000000000008163 0.00000000000000005442 0.00000000000000016948 
0.00000000000000000158 0.00000000000000005442 -0.00000000000000011572 
0.00000000000000004770 0.00000000000000005442 0.00000000000000004282 
0.00000000000000005635 0.00000000000000005442 -0.00000000000000003012 
-0.00000000000000003197 0.00000000000000010884 0.00000000000000004367 
0.00000000000000001357 -0.00000000000000005442 -0.00000000000000003163 
0.00000000000000003068 0.00000000000000005442 0.00000000000000006489 
-0.00000000000000005781 0.00000000000000010884 0.00000000000000007430 
0.00000000000000009261 0.00000000000000016326 0.00000000000000017455 
-0.00000000000000002713 0.00000000000000005442 -0.00000000000000001939 
0.00000000000000001923 0.00000000000000010884 0.00000000000000014157 
0.00000000000000008858 0.00000000000000010884 0.00000000000000005547 
-0.00000000000000001131 0.00000000000000010884 0.00000000000000000680 
0.00000000000000001704 0.00000000000000010884 0.00000000000000008369 
-0.00000000000000003611 0.00000000000000005442 0.00000000000000015160 
0.00000000000000009404 0.00000000000000005442 0.00000000000000011102 
0.00000000000000001929 0.00000000000000005442 0.00000000000000016076 
0.00000000000000005891 0.00000000000000010884 -0.00000000000000003511 
-0.00000000000000003272 0.00000000000000000000 0.00000000000000007737 
-0.00000000000000004186 0.00000000000000005442 -0.00000000000000001598 
0.00000000079580837311 0.00000000000000010884 -0.00000000000000000600 
0.00000006783478680374 0.00000000000000000000 0.00000000000000010933 
0.00000079354040098210 0.00000000000000005442 0.00000000000000010298 
0.00000432181856604182 0.00000000000000000000 0.00000000000000010634 
0.00001563212455914095 0.00000000000000000000 0.00000000000000004261 
0.00004378831532301350 0.00000000000000002721 0.00000000000000007477 
0.00010297049505114135 0.00000000000000008163 0.00000000000000009271 
0.00021319257617550774 0.00000000000000013605 0.00000000000000000291 
0.00040066818524454021 0.00000000000000008163 0.00000000000000012108 
0.00069782852863096848 0.00000000000000008163 0.00000000000000005690 
0.00114302244577769649 0.00000000000000002721 0.00000000000000014558 
0.00177994473618362046 -0.00000000000000002721 0.00000000000000006252 
0.00265684680880356539 0.00000000000000021768 0.00000000000000001772 
0.00382558600890937038 -0.00000000000000002721 -0.00000000000000001496 
0.00534056836678825642 0.00000000000000000000 0.00000000000000007196 
0.00725763532029791332 0.00000000000000013605 0.00000000000000001365 
0.00963293920095525773 0.00000000000000008163 -0.00000000000000002591 
0.01252184569466839419 0.00000000000000002721 0.00000000000000007187 
0.01597789464316110714 0.00000000000000005442 0.00000000000000010825 
0.02005184383009812193 0.00000000000000000000 -0.00000000000000001867 
0.02479081406192403317 0.00000000000000009524 0.00000000000000006737 
0.03023754807677327822 0.00000000000000005442 -0.00000000000000005184 
0.03642979069226708749 0.00000000000000014966 0.00000000000000011771 
0.04339979317731020025 0.00000000000000001361 0.00000000000000002205 
0.05117394110754470288 0.00000000000000010884 -0.00000000000000003170 
0.05977250191453818695 0.00000000000000004082 -0.00000000000000005450 
0.06920948592195812210 0.00000000000000007483 0.00000000000000005711 
0.07949261282303117515 0.00000000000000000680 -0.00000000000000000737 
0.09062337423107851009 0.00000000000000008843 -0.00000000000000001877 
0.10259718206494118642 0.00000000000000009524 -0.00000000000000010277 
0.11540359205006106569 0.00000000000000009524 -0.00000000000000000356 
0.12902659146267086987 0.00000000000000011224 -0.00000000000000007382 
0.14344494036158669803 0.00000000000000004082 -0.00000000000000002060 
0.15863255588672481311 0.00000000000000004422 -0.00000000000000001829 
0.17455892970812819653 0.00000000000000012585 -0.00000000000000000172 
0.19118956934172137707 0.00000000000000002381 -0.00000000000000001341 
0.20848645477129959525 -0.00000000000000001190 -0.00000000000000001496 
0.22640850259860992311 -0.00000000000000001998 -0.00000000000000002343 
0.24491203075785089593 0.00000000000000015773 -0.00000000000000000649 
0.26395121765503615219 0.00000000000000007823 -0.00000000000000005586 
0.28347855040808062066 0.00000000000000000170 -0.00000000000000003573 
0.30344525765547136764 0.00000000000000001531 -0.00000000000000000874 
0.32380172315852823184 0.00000000000000006462 -0.00000000000000001500 
0.34449787713599339112 0.00000000000000001701 0.00000000000000006108 
0.36548356293382361359 0.00000000000000004422 0.00000000000000001185 
0.38670887724365765603 -0.00000000000000006122 -0.00000000000000007310 
0.40812448263818168481 -0.00000000000000001020 -0.00000000000000002564 
0.42968189168977666270 0.00000000000000002041 0.00000000000000002685 
0.45133372238083141470 0.00000000000000008163 0.00000000000000006209 
0.47303392490130852233 0.00000000000000007483 0.00000000000000001604 
0.49473798026371029746 0.00000000000000008843 -0.00000000000000003479 
0.51640307145020880597 0.00000000000000006803 0.00000000000000001020 
0.53798822804446122525 0.00000000000000011564 -0.00000000000000000076 
0.55945444549494594000 -0.00000000000000003401 -0.00000000000000009013 
0.58076478031103417887 0.00000000000000016326 0.00000000000000004523 
0.60188442261108054954 0.00000000000000003401 -0.00000000000000009523 
0.62278074752718037832 0.00000000000000012925 -0.00000000000000007128 
0.64342334702739756302 0.00000000000000010884 0.00000000000000003597 
0.66378404374667809851 0.00000000000000004082 -0.00000000000000005216 
0.68383688842552681209 0.00000000000000010884 0.00000000000000003663 
0.70355814237199487682 0.00000000000000009524 -0.00000000000000002984 
0.72292621242574772733 0.00000000000000007483 -0.00000000000000007904 
0.74192125803966191278 0.00000000000000002041 0.00000000000000003188 
0.76052420965362255156 0.00000000000000007483 -0.00000000000000002306 
0.77871544750723820094 0.00000000000000006803 -0.00000000000000001300 
0.79647345899060328911 0.00000000000000006803 -0.00000000000000002512 
0.81377367803036737559 0.00000000000000008163 -0.00000000000000007096 
0.83058761969533956293 0.00000000000000006122 -0.00000000000000002944 
0.84688235879073636703 0.00000000000000005442 -0.00000000000000010360 
0.86262035675470227769 0.00000000000000004082 -0.00000000000000003685 
0.87775961191722384758 0.00000000000000012245 -0.00000000000000001861 
0.89225409034097125094 0.00000000000000004082 0.00000000000000001280 
0.90605438503868562794 0.00000000000000001361 0.00000000000000000509 
0.91910854799958285888 0.00000000000000001361 -0.00000000000000002704 
0.93136304032760275362 0.00000000000000004082 0.00000000000000005265 
0.94276374948836050294 0.00000000000000006803 0.00000000000000002556 
0.95325702810897317008 0.00000000000000001361 -0.00000000000000000429 
0.96279071534702242996 0.00000000000000006803 -0.00000000000000002747 
0.97131514251992756570 0.00000000000000009524 -0.00000000000000000702 
0.97878437922154215567 0.00000000000000001361 -0.00000000000000007429 
0.98515796291481472213 0.00000000000000006803 -0.00000000000000000226 
0.99040285080344381274 -0.00000000000000001361 -0.00000000000000002805 
0.99449526897631612687 0.00000000000000008163 0.00000000000000004088 
0.99742225287031727188 0.00000000000000005442 0.00000000000000000495 
0.99918276715794374088 0.00000000000000000680 -0.00000000000000007673 
0.99978836064784792903 0.00000000000000013605 -0.00000000000000009612 
0.99926335866837712185 0.00000000000000012245 0.00000000000000001580 
0.99764462649787155613 0.00000000000000009524 -0.00000000000000001684 
0.99498095656125751240 0.00000000000000008163 -0.00000000000000003919 
0.99133214239180289518 0.00000000000000000680 -0.00000000000000000020 
0.98676780617701864706 0.00000000000000006122 0.00000000000000003616 
0.98136604596101262299 0.00000000000000005442 -0.00000000000000004089 
0.97521196472937032862 0.00000000000000004082 -0.00000000000000009615 
0.96839613778120003929 -0.00000000000000004762 -0.00000000000000000592 
0.96101306784539242134 -0.00000000000000007483 0.00000000000000005879 
0.95315966995436940401 0.00000000000000008163 -0.00000000000000008077 
0.94493382060483610552 0.00000000000000002721 0.00000000000000001273 
0.93643299853139505551 -0.00000000000000004762 0.00000000000000000999 
0.92775303770946959681 0.00000000000000004762 0.00000000000000002421 
0.91898700712165326543 0.00000000000000005442 0.00000000000000003715 
0.91022422643760836358 -0.00000000000000005442 -0.00000000000000010540 
0.90154942209751764981 0.00000000000000002041 -0.00000000000000009249 
0.89304202434514856623 -0.00000000000000004082 0.00000000000000003511 
0.88477560249783526736 0.00000000000000002041 0.00000000000000000503 
0.87681743312063542550 0.00000000000000000680 -0.00000000000000000126 
0.86922819373435344925 0.00000000000000000000 -0.00000000000000002731 
0.86206177317088528156 0.00000000000000001361 -0.00000000000000010787 
0.85536518863152022352 0.00000000000000003401 -0.00000000000000001145 
0.84917859884234503376 0.00000000000000002721 -0.00000000000000006589 
0.84353540237620705522 -0.00000000000000001361 -0.00000000000000013651 
0.83846241016704070592 -0.00000000000000008843 0.00000000000000007089 
0.83398008142840918122 0.00000000000000002721 -0.00000000000000005074 
0.83010281255749207574 0.00000000000000002721 -0.00000000000000001803 
0.82683926911708094387 0.00000000000000005442 -0.00000000000000002518 
0.82419275160507443623 0.00000000000000010884 0.00000000000000001384 
0.82216158641195957735 0.00000000000000004082 -0.00000000000000008165 
0.82073953410487954230 0.00000000000000000000 -0.00000000000000005021 
0.81991620793936770273 0.00000000000000002721 -0.00000000000000004833 
0.81967749626782993033 0.00000000000000004082 0.00000000000000004689 
0.82000598327201834614 0.00000000000000002721 -0.00000000000000009903 
0.82088136318277404868 0.00000000000000002721 -0.00000000000000016656 
0.82228084385476263307 0.00000000000000002721 -0.00000000000000004141 
0.82417953622959860827 -0.00000000000000004082 -0.00000000000000000811 
0.82655082684261904635 -0.00000000000000004762 -0.00000000000000001390 
0.82936673110329961478 0.00000000000000000000 -0.00000000000000003471 
0.83259822560502072530 -0.00000000000000008163 -0.00000000000000007224 
0.83621555819599691084 -0.00000000000000004082 -0.00000000000000002293 
0.84018853497001566577 -0.00000000000000006122 -0.00000000000000003954 
0.84448678371431740164 -0.00000000000000003741 -0.00000000000000009011 
0.84907999368432118814 0.00000000000000000680 0.00000000000000001141 
0.85393813186314715402 -0.00000000000000011904 -0.00000000000000001872 
0.85903163611058608318 0.00000000000000000000 -0.00000000000000004661 
0.86433158581419944344 -0.00000000000000005102 -0.00000000000000007343 
0.86980985082743877967 -0.00000000000000002381 -0.00000000000000006120 
0.87543921961917836594 0.00000000000000003401 -0.00000000000000000874 
0.88119350766876047842 -0.00000000000000005102 0.00000000000000003125 
0.88704764722361850726 -0.00000000000000006803 -0.00000000000000006486 
0.89297775957461578145 0.00000000000000000000 -0.00000000000000009830 
0.89896119435327603853 0.00000000000000005442 -0.00000000000000004126 
0.90497631829446534280 -0.00000000000000010884 -0.00000000000000004897 
0.91100172158414893797 0.00000000000000001701 -0.00000000000000006877 
0.91701501006394148252 -0.00000000000000008843 -0.00000000000000008823 
0.92299151812212631985 -0.00000000000000009864 -0.00000000000000001053 
0.92890316743729106630 -0.00000000000000004422 -0.00000000000000006809 
0.93471760047420893169 0.00000000000000000340 -0.00000000000000004012 
0.94039764858829455463 0.00000000000000004082 -0.00000000000000007906 
0.94590114659345958525 -0.00000000000000009524 -0.00000000000000000002 
0.95118107371294635666 -0.00000000000000009864 -0.00000000000000001381 
0.95618598099638330012 -0.00000000000000007143 -0.00000000000000002430 
0.96086065440607371091 -0.00000000000000001701 -0.00000000000000002345 
0.96514695838038488951 -0.00000000000000003061 0.00000000000000003755 
0.96898480484605398200 -0.00000000000000007313 0.00000000000000000209 
0.97231319588863029946 -0.00000000000000001531 0.00000000000000000204 
0.97507129346906062928 -0.00000000000000002551 -0.00000000000000000456 
0.97719947664105055729 -0.00000000000000011224 0.00000000000000001728 
0.97864041492974807035 -0.00000000000000016666 0.00000000000000002271 
0.97934046643286110090 -0.00000000000000009183 -0.00000000000000001710 
0.97925154397264813078 -0.00000000000000015476 0.00000000000000001224 
0.97833313225931717305 -0.00000000000000015136 0.00000000000000006025 
0.97655415221856423091 -0.00000000000000012585 -0.00000000000000000367 
0.97389448628278474374 -0.00000000000000010204 -0.00000000000000000538 
0.97034606692344060885 0.00000000000000001531 0.00000000000000007443 
0.96591349388767311357 -0.00000000000000014966 0.00000000000000002688 
0.96061418921691998918 -0.00000000000000006122 -0.00000000000000003551 
0.95447812776922646982 -0.00000000000000010374 0.00000000000000007098 
0.94754719831770428673 -0.00000000000000004762 -0.00000000000000009206 
0.93987425927678502902 -0.00000000000000012585 0.00000000000000003142 
0.93152195601930742885 -0.00000000000000011054 0.00000000000000003510 
0.92256136539243271955 -0.00000000000000006803 -0.00000000000000001717 
0.91307052881314965109 -0.00000000000000001701 -0.00000000000000005506 
0.90313292929099353579 -0.00000000000000018452 0.00000000000000003437 
0.89283596068988857475 -0.00000000000000007738 -0.00000000000000004006 
0.88226943009672242901 -0.00000000000000006888 -0.00000000000000002118 
0.87152412673978163493 -0.00000000000000016581 -0.00000000000000008844 
0.86069048379429091700 -0.00000000000000009609 -0.00000000000000002171 
0.84985735282295626902 0.00000000000000003826 -0.00000000000000001617 
0.83911090464753779194 -0.00000000000000006973 -0.00000000000000005441 
0.82853366519558746539 -0.00000000000000009098 -0.00000000000000000959 
0.81820369033404583003 -0.00000000000000015731 -0.00000000000000006970 
0.80819387987654844885 -0.00000000000000001871 -0.00000000000000006303 
0.79857142780057532860 -0.00000000000000008078 -0.00000000000000002482 
0.78939740318599671554 -0.00000000000000007738 -0.00000000000000004564 
0.78072645443150090472 -0.00000000000000003146 0.00000000000000000052 
0.77260662785865219515 0.00000000000000003741 -0.00000000000000004395 
0.76507929081266612403 -0.00000000000000007228 -0.00000000000000014106 
0.75817914875306602340 0.00000000000000000340 -0.00000000000000009433 
0.75193434553777305229 -0.00000000000000008078 -0.00000000000000010501 
0.74636663608614883803 -0.00000000000000006165 -0.00000000000000009194 
0.74149162080998876068 -0.00000000000000005102 -0.00000000000000001354 
0.73731903158110045915 -0.00000000000000011649 -0.00000000000000002088 
0.73385305951972756855 -0.00000000000000011182 0.00000000000000005698 
0.73109271550427312736 -0.00000000000000002211 -0.00000000000000007334 
0.72903221498902781583 -0.00000000000000005995 -0.00000000000000006366 
0.72766137944673914273 0.00000000000000005314 0.00000000000000001075 
0.72696604750496596203 -0.00000000000000010842 -0.00000000000000006855 
0.72692848960098210842 -0.00000000000000003996 -0.00000000000000010732 
0.72752782072478361375 -0.00000000000000006888 -0.00000000000000016265 
0.72874040654173322107 -0.00000000000000003614 0.00000000000000000490 
0.73054025887642926040 0.00000000000000000765 -0.00000000000000006163 
0.73289941719073870008 -0.00000000000000010671 -0.00000000000000004518 
0.73578831329678662243 -0.00000000000000006080 -0.00000000000000003199 
0.73917611710692843197 -0.00000000000000003826 -0.00000000000000016097 
0.74303106173568145287 -0.00000000000000015051 -0.00000000000000008775 
0.74732074673271031706 -0.00000000000000003104 -0.00000000000000010614 
0.75201241864173484775 -0.00000000000000005740 -0.00000000000000008877 
0.75707322844880753365 -0.00000000000000013881 -0.00000000000000011415 
0.76247046580663246917 -0.00000000000000008843 -0.00000000000000006280 
0.76817177020169014057 -0.00000000000000007079 -0.00000000000000006624 
0.77414531947044873395 -0.00000000000000004932 -0.00000000000000015407 
0.78035999627269125867 0.00000000000000000595 -0.00000000000000010123 
0.78678553329684763895 -0.00000000000000001297 -0.00000000000000009033 
0.79339263810717641778 -0.00000000000000001616 -0.00000000000000008685 
0.80015309864862560474 -0.00000000000000011713 -0.00000000000000001650 
0.80703987050512981938 -0.00000000000000006335 -0.00000000000000003684 
0.81402714689182142926 0.00000000000000008163 -0.00000000000000007005 
0.82109037848908639212 -0.00000000000000004294 -0.00000000000000002848 
0.82820596242321842251 -0.00000000000000012351 -0.00000000000000014230 
0.83535033931359992110 -0.00000000000000010055 -0.00000000000000004733 
0.84249874733014018524 -0.00000000000000013446 -0.00000000000000005355 
0.84962395120474276666 -0.00000000000000008333 -0.00000000000000011334 
0.85669514958223302870 -0.00000000000000007079 -0.00000000000000002328 
0.86367717382270670079 -0.00000000000000009874 0.00000000000000000596 
0.87053002698785764135 -0.00000000000000009120 -0.00000000000000006805 
0.87720876732038000068 -0.00000000000000001711 -0.00000000000000011235 
0.88366371130050314076 -0.00000000000000009800 -0.00000000000000002287 
0.88984091354826599929 0.00000000000000005027 -0.00000000000000012744 
0.89568287143714897525 -0.00000000000000002700 -0.00000000000000010927 
0.90112939894151677933 -0.00000000000000002997 -0.00000000000000009467 
0.90611861512683189446 -0.00000000000000015051 -0.00000000000000005608 
0.91058799639919885127 -0.00000000000000008216 0.00000000000000001521 
0.91447544708993155904 -0.00000000000000012159 -0.00000000000000001519 
0.91772035656815120763 -0.00000000000000007589 0.00000000000000004738 
0.92026476732320172669 -0.00000000000000009481 -0.00000000000000004301 
0.92205499711207383751 -0.00000000000000006803 -0.00000000000000007004 
0.92304363125806088153 -0.00000000000000013908 -0.00000000000000016877 
0.92319153113094210017 -0.00000000000000000409 -0.00000000000000010867 
0.92246960373519093501 -0.00000000000000006531 -0.00000000000000004728 
0.92086018423447990600 -0.00000000000000012436 -0.00000000000000009943 
0.91835796097282984540 -0.00000000000000008652 -0.00000000000000016476 
0.91497042742318479558 -0.00000000000000000872 -0.00000000000000012261 
0.91071788274659204454 -0.00000000000000006159 -0.00000000000000001273 
0.90563302648682175722 0.00000000000000000686 -0.00000000000000013910 
0.89976020671220113822 -0.00000000000000000675 -0.00000000000000010736 
0.89315438730760254860 0.00000000000000001430 -0.00000000000000016181 
0.88587990120537762895 -0.00000000000000002514 -0.00000000000000000074 
0.87800905375323556878 -0.00000000000000004921 -0.00000000000000010609 
0.86962063540486767010 -0.00000000000000008960 -0.00000000000000010332 
0.86079839644049860325 0.00000000000000000276 -0.00000000000000009118 
0.85162952919432577392 -0.00000000000000009064 -0.00000000000000014495 
0.84220319580800517834 -0.00000000000000000268 -0.00000000000000015460 
0.83260913221772303583 -0.00000000000000009058 -0.00000000000000017542 
0.82293635217322447239 0.00000000000000001799 -0.00000000000000012202 
0.81327196874600693466 -0.00000000000000021789 -0.00000000000000012115 
0.80370014510712517453 -0.00000000000000007159 -0.00000000000000011429 
0.79430118138713612375 -0.00000000000000018173 -0.00000000000000003535 
0.78515074017801689266 -0.00000000000000002593 -0.00000000000000009333 
0.77631920967851386628 -0.00000000000000008150 -0.00000000000000010928 
0.76787120058081470564 -0.00000000000000007841 -0.00000000000000011277 
0.75986517049610580177 -0.00000000000000000800 -0.00000000000000011325 
0.75235316796097539971 0.00000000000000010265 -0.00000000000000015838 
0.74538068679413727047 -0.00000000000000013489 -0.00000000000000014510 
0.73898662072174192694 0.00000000000000003723 -0.00000000000000012532 
0.73320330769946751026 -0.00000000000000007168 -0.00000000000000002567 
0.72805665317378875923 -0.00000000000000010337 0.00000000000000002721 
0.72356632159049849573 -0.00000000000000013153 -0.00000000000000011796 
0.71974598572760017934 -0.00000000000000006151 -0.00000000000000015113 
0.71660362385888709547 -0.00000000000000010859 -0.00000000000000012782 
0.71414185530566043347 -0.00000000000000004849 -0.00000000000000007348 
0.71235830557372281646 -0.00000000000000008919 -0.00000000000000012957 
0.71124599297226354100 -0.00000000000000008952 -0.00000000000000011644 
0.71079372934611950718 -0.00000000000000014340 -0.00000000000000012002 
0.71098652830268660452 -0.00000000000000007675 -0.00000000000000013336 
0.71180601506269913781 -0.00000000000000004508 -0.00000000000000010621 
0.71323083279656696032 -0.00000000000000003679 -0.00000000000000018461 
0.71523704101431562208 -0.00000000000000006488 -0.00000000000000011307 
0.71779850224918606560 -0.00000000000000003185 -0.00000000000000019746 
0.72088725390667707238 -0.00000000000000024185 -0.00000000000000009464 
0.72447386273804414980 -0.00000000000000000296 -0.00000000000000012429 
0.72852775993755913841 -0.00000000000000012762 -0.00000000000000005714 
0.73301755535482548964 -0.00000000000000009187 -0.00000000000000002221 
0.73791132975711315467 -0.00000000000000010727 -0.00000000000000014674 
0.74317690447264450615 -0.00000000000000003802 -0.00000000000000015659 
0.74878208809552293523 -0.00000000000000002185 -0.00000000000000024603 
0.75469490023846697024 -0.00000000000000007967 -0.00000000000000019772 
0.76088377258305661677 -0.00000000000000016403 0.00000000000000005149 
0.76731772770145545426 -0.00000000000000015326 -0.00000000000000011531 
0.77396653631134193496 -0.00000000000000014915 -0.00000000000000007987 
0.78080085377998886820 -0.00000000000000004497 -0.00000000000000007325 
0.78779233681700588932 -0.00000000000000007890 -0.00000000000000019535 
0.79491374139112791486 -0.00000000000000003523 -0.00000000000000006778 
0.80213900297744411549 -0.00000000000000003381 -0.00000000000000014891 
0.80944329762842015530 -0.00000000000000008410 -0.00000000000000008596 
0.81680298181917210254 -0.00000000000000014808 -0.00000000000000010256 
0.82419504463116177728 -0.00000000000000009855 0.00000000000000001269 
0.83159602361191919950 -0.00000000000000010807 0.00000000000000009552 
0.83898071772644078337 -0.00000000000000005522 -0.00000000000000001553 
0.84632096944475732059 -0.00000000000000016770 -0.00000000000000008217 
0.85358467968915308077 -0.00000000000000004358 -0.00000000000000008966 
0.86073514024732378225 -0.00000000000000013916 -0.00000000000000008064 
0.86773071250279654176 -0.00000000000000006715 -0.00000000000000006060 
0.87452484350284021009 -0.00000000000000016962 -0.00000000000000001426 
0.88106638613029653051 -0.00000000000000011923 -0.00000000000000001645 
0.88730017601650901238 -0.00000000000000009920 -0.00000000000000012505 
0.89316781110464382731 -0.00000000000000007606 -0.00000000000000004659 
0.89860857831594909140 -0.00000000000000016014 -0.00000000000000007068 
0.90356047393536609302 0.00000000000000000206 -0.00000000000000015745 
0.90796126885330497025 -0.00000000000000019038 -0.00000000000000009795 
0.91174957572248027660 0.00000000000000005883 -0.00000000000000007718 
0.91486588170391192065 -0.00000000000000006357 -0.00000000000000010127 
0.91725351727038739735 -0.00000000000000008851 -0.00000000000000010002 
0.91885953814707488352 -0.00000000000000011241 -0.00000000000000005045 
0.91963550365404544973 -0.00000000000000012301 -0.00000000000000004805 
0.91953814032120662070 -0.00000000000000001167 -0.00000000000000019202 
0.91852988458806961170 -0.00000000000000002456 -0.00000000000000004777 
0.91657930264514375640 -0.00000000000000005739 -0.00000000000000006499 
0.91366138902353444262 -0.00000000000000009462 -0.00000000000000015715 
0.90975774842334433679 -0.00000000000000016679 -0.00000000000000000384 
0.90485666753562499220 -0.00000000000000018352 -0.00000000000000000206 
0.89895308531344286784 -0.00000000000000010086 0.00000000000000005007 
0.89204847134724019053 -0.00000000000000017900 -0.00000000000000006058 
0.88415062276205602654 -0.00000000000000012560 -0.00000000000000003452 
0.87527339044247853828 -0.00000000000000008673 -0.00000000000000012141 
0.86543634546588510403 -0.00000000000000014341 -0.00000000000000010885 
0.85466439644194847070 -0.00000000000000002263 -0.00000000000000007861 
0.84298736806822083256 -0.00000000000000011807 -0.00000000000000010338 
0.83043955066423014166 -0.00000000000000010095 -0.00000000000000001418 
0.81705922978099199128 -0.00000000000000002372 -0.00000000000000009733 
0.80288820423491202849 -0.00000000000000003904 0.00000000000000006104 
0.78797130011544225248 -0.00000000000000016538 -0.00000000000000006569 
0.77235588749040118284 0.00000000000000000883 -0.00000000000000023028 
0.75609140570312849405 -0.00000000000000010351 -0.00000000000000003641 
0.73922890233908533641 -0.00000000000000004458 -0.00000000000000004328 
0.72182059015001931446 -0.00000000000000017180 -0.00000000000000009001 
0.70391942547217478676 -0.00000000000000009259 -0.00000000000000004224 
0.68557871096915778963 -0.00000000000000009445 -0.00000000000000013751 
0.66685172487556354515 0.00000000000000000002 0.00000000000000001589 
0.64779137831792010793 -0.00000000000000009669 -0.00000000000000008671 
0.62844990174666992555 -0.00000000000000005514 -0.00000000000000014657 
0.60887856102731174879 -0.00000000000000005342 -0.00000000000000008893 
0.58912740330969559643 0.00000000000000000505 -0.00000000000000000852 
0.56924503242020130234 -0.00000000000000019716 -0.00000000000000012993 
0.54927841319981618451 0.00000000000000001592 -0.00000000000000013765 
0.52927270393908931734 -0.00000000000000005510 -0.00000000000000015875 
0.50927111583536166517 -0.00000000000000003341 -0.00000000000000003654 
0.48931479821508977457 -0.00000000000000007077 -0.00000000000000018529 
0.46944274812085884374 -0.00000000000000013061 -0.00000000000000014614 
0.44969174275519574469 -0.00000000000000009885 -0.00000000000000013120 
0.43009629319788905688 -0.00000000000000005665 -0.00000000000000016844 
0.41068861776667575647 -0.00000000000000016940 -0.00000000000000002715 
0.39149863336943374614 -0.00000000000000005153 -0.00000000000000004188 
0.37255537149446399381 -0.00000000000000015817 -0.00000000000000009605 
0.35388269735215560630 0.00000000000000001431 -0.00000000000000000751 
0.33550373121125698361 -0.00000000000000007583 -0.00000000000000017642 
0.31743940438222312261 -0.00000000000000008752 -0.00000000000000021814 
0.29970851636557233055 -0.00000000000000001351 -0.00000000000000007340 
0.28232780064688123289 0.00000000000000014480 -0.00000000000000005871 
0.26531199779060721244 -0.00000000000000007381 -0.00000000000000016274 
0.24867393456446226785 -0.00000000000000005473 -0.00000000000000014470 
0.23242460790896873890 -0.00000000000000006765 -0.00000000000000011647 
0.21657327265172543473 -0.00000000000000001278 -0.00000000000000001616 
0.20112753195157176411 -0.00000000000000014824 -0.00000000000000015162 
0.18609342954325025499 0.00000000000000001071 -0.00000000000000009140 
0.17147554293742983678 -0.00000000000000011886 -0.00000000000000020463 
0.15727707681331418166 -0.00000000000000000972 -0.00000000000000019171 
0.14349995592092520957 -0.00000000000000011150 -0.00000000000000008033 
0.13014491688701204652 -0.00000000000000003954 -0.00000000000000009726 
0.11721159839197214936 -0.00000000000000003047 -0.00000000000000010111 
0.10469862925494050065 0.00000000000000002039 0.00000000002093747047 
0.09260371403001180224 -0.00000000000000009833 0.00000001685631393087 
0.08092371577832574436 -0.00000000000000000650 0.00000033634416387782 
0.06965473573834177201 -0.00000000000000003615 0.00000233427611415988 
0.05879218967005426372 0.00000000000000004670 0.00000969889749933186 
0.04833088069814859417 -0.00000000000000008885 0.00002972137212701945 
0.03826506852425524963 -0.00000000000000008865 0.00007443021656806367 
0.02858853491958361984 0.00000000000000000002 0.00016144193508556382 
0.01929464544646409402 -0.00000000000000007820 0.00031446908285009067 
0.01037640739080099468 -0.00000000000000012380 0.00056347493480079862 
0.00182652391732201916 -0.00000000000000000517 0.00094449581718019206 
-0.00636255551403047334 -0.00000000000000005481 0.00149917193687751143 
-0.01419858840901686708 -0.00000000000000001483 0.00227403836405586784 
-0.02168949609562710254 -0.00000000000000006923 0.00331963215799334832 
-0.02884332407722804345 -0.00000000000000017887 0.00468947140132220004 
-0.03566820576874674825 -0.00000000000000017938 0.00643895861026359817 
-0.04217232949017253596 0.00000000000000003507 0.00862425575052606919 
-0.04836390858183545194 0.00000000000000002470 0.01130117176015172156 
-0.05425115449819938040 -0.00000000000000008810 0.01452409668729531464 
-0.05984225273111505594 0.00000000000000000422 0.01834500974161495934 
-0.06514534140943648022 0.00000000000000000727 0.02281258204362908784 
-0.07016849241946254701 -0.00000000000000007505 0.02797138884160170133 
-0.07491969488962330059 -0.00000000000000010351 0.03386124057353288863 
-0.07940684088309164779 -0.00000000000000009752 0.04051663744507814913 
-0.08363771314336163054 0.00000000000000001395 0.04796634819026051461 
-0.08761997474021089582 -0.00000000000000004298 0.05623311036620648462 
-0.09136116046668023294 -0.00000000000000002316 0.06533344686927854139 
-0.09486866984168662587 -0.00000000000000010800 0.07527759129697185470 
-0.09814976157747792862 0.00000000000000000450 0.08606951325847168877 
-0.10121154937627210857 -0.00000000000000009042 0.09770703369347649714 
-0.10406099892598337509 -0.00000000000000005161 0.11018201962978917130 
-0.10670492597084460518 -0.00000000000000013205 0.12348064753289668405 
-0.10914999533889863104 -0.00000000000000001217 0.13758372441626168237 
-0.11140272081469408672 -0.00000000000000004517 0.15246705613464722751 
-0.11346946575199660934 -0.00000000000000008139 0.16810185272481806273 
-0.11535644432787298119 -0.00000000000000002740 0.18445516124400915259 
-0.11706972334605260377 0.00000000000000003704 0.20149031724759502993 
-0.11861522450398942485 -0.00000000000000010475 0.21916740680962581989 
-0.11999872704446766514 -0.00000000000000008418 0.23744373179443936661 
-0.12122587071891835486 0.00000000000000009226 0.25627427191025770048 
-0.12230215899576055150 0.00000000000000002253 0.27561213789652067030 
-0.12323296245307120700 -0.00000000000000002423 0.29540901099962829646 
-0.12402352230065878669 -0.00000000000000006462 0.31561556466403395405 
-0.12468008702838187518 -0.00000000000000005527 0.33618186509758030134 
-0.12520672912386851539 -0.00000000000000008843 0.35705774805455492427 
-0.12560803621275010156 -0.00000000000000008333 0.37819316981230016728 
-0.12588877225647213121 -0.00000000000000014455 0.39953853089448454483 
-0.12605358964465696037 -0.00000000000000002551 0.42104497161493525947 
-0.12610703264410288993 0.00000000000000005272 0.44266463898029384527 
-0.12605354073372909696 0.00000000000000002721 0.46435092489864782106 
-0.12589745180781161671 -0.00000000000000002381 0.48605867599661989331 
-0.12564300523330917958 0.00000000000000002381 0.50774437565163266228 
-0.12529434475025144624 0.00000000000000001020 0.52936629910217858352 
-0.12485552120708678925 -0.00000000000000005442 0.55088464271019554896 
-0.12433049512553719096 -0.00000000000000005442 0.57226162861956952899 
-0.12372313909193062564 -0.00000000000000000680 0.59346158618695055154 
-0.12303723997414733882 0.00000000000000002041 0.61445101165907689555 
-0.12227650096526103407 -0.00000000000000012245 0.63519860763823354777 
-0.12144454345667472783 -0.00000000000000000680 0.65567530391777595344 
-0.12054490874506193498 0.00000000000000005442 0.67585426128614922714 
-0.11957992653252667858 0.00000000000000001361 0.69571085989304659591 
-0.11855390323951565945 0.00000000000000001361 0.71522266654121946505 
-0.11747043574606598482 -0.00000000000000008163 0.73436922575518381873 
-0.11633275490060894508 -0.00000000000000001361 0.75313130749474710424 
-0.11514401793879147640 0.00000000000000005442 0.77148967770907550534 
-0.11390730933441342576 -0.00000000000000004082 0.78942373376634211724 
-0.11262564154169101005 0.00000000000000000000 0.80691025303809904567 
-0.11130195563896227995 0.00000000000000002721 0.82392240046244469287 
-0.10993912188405308150 0.00000000000000013605 0.84042906692239394140 
-0.10853994019154439288 0.00000000000000000000 0.85639455846841505693 
-0.10710714054209279078 -0.00000000000000010884 0.87177862158439511919 
-0.10564338333379792723 0.00000000000000002721 0.88653676769098166410 
-0.10415125968537944368 0.00000000000000002721 0.90062084760448735121 
-0.10263329170062747420 0.00000000000000005442 0.91397982112873721317 
-0.10109193270323704739 -0.00000000000000008163 0.92656066632520750481 
-0.09952956745074485745 0.00000000000000000000 0.93830937571708117328 
-0.09794851233584069006 -0.00000000000000008163 0.94917199153864906247 
-0.09635101558286432444 0.00000000000000005442 0.95909563903752825809 
-0.09473925744679470573 -0.00000000000000016326 0.96802958498406432852 
-0.09311535042152992159 -0.00000000000000005442 0.97592662846322231207 
-0.09148133946372284664 0.00000000000000000000 0.98274496586636228557 
-0.08983920223790031745 0.00000000000000010884 0.98845021174229863448 
-0.08819084938805236973 -0.00000000000000010884 0.99301727048968402300 
-0.08653812484033700236 0.00000000000000005442 0.99643187165957358697 
-0.08488280614100753019 -0.00000000000000005442 0.99869167025668825755 
-0.08322660483314314739 -0.00000000000000005442 0.99980687675109281010 
-0.08157116687524187948 0.00000000000000000000 0.99980042525648638030 
-0.07991807310423579280 0.00000000000000000000 0.99870771709462513588 
-0.07826883974499768137 0.00000000000000000000 0.99657599442387156952 
-0.07662491896794093593 0.00000000000000000000 0.99346340768442664704 
-0.07498769949586561734 -0.00000000000000005442 0.98943784360723296967 
-0.07335850726077593198 0.00000000000000000000 0.98457557924957517237 
-0.07173860611099354412 0.00000000000000000000 0.97895982335303788346 
-0.07012919856850659273 0.00000000000000000000 0.97267920033579979844 
-0.06853142663614404662 -0.00000000000000010884 0.96582622523559358285 
-0.06694637265382982760 -0.00000000000000005442 0.95849581050700871643 
-0.06537506020287231490 0.00000000000000005442 0.95078383817662803779 
-0.06381845505695803167 -0.00000000000000005442 0.94278582377146313842 
-0.06227746617827160935 -0.00000000000000010884 0.93459569185922808376 
-0.06075294675692984037 0.00000000000000005442 0.92630467709491082218 
-0.05924569529171461874 -0.00000000000000005442 0.91800035942019497792 
-0.05775645670991266106 -0.00000000000000010884 0.90976583753070638938 
-0.05628592352390515696 -0.00000000000000016326 0.90167904089960704272 
-0.05483473702202668054 -0.00000000000000010884 0.89381217749180008614 
-0.05340348849109131241 0.00000000000000005442 0.88623131177344116605 
-0.05199272046789953777 0.00000000000000005442 0.87899606566033205990 
-0.05060292801696315151 -0.00000000000000010884 0.87215943359533332213 
-0.04923456003163875078 0.00000000000000000000 0.86576770193710883561 
-0.04788802055582164208 0.00000000000000000000 0.85986046221929257616 
-0.04656367012333870875 -0.00000000000000010884 0.85447070754226550626 
-0.04526182711217529436 -0.00000000000000010884 0.84962500133457774520 
-0.04398276911068817185 -0.00000000000000010884 0.84534370791767610154 
-0.04272673429297987879 0.00000000000000000000 0.84164127468079041883 
-0.04149392280065421212 0.00000000000000000000 0.83852655618239613222 
-0.04028449812822312154 -0.00000000000000021768 0.83600317110529909215 
-0.03909858850949570613 0.00000000000000010884 0.83406988367355749947 
-0.03793628830235515337 0.00000000000000000000 0.83272100186499797836 
-0.03679765936940810472 0.00000000000000000000 0.83194678550108092097 
-0.03568273245207834177 -0.00000000000000010884 0.83173385804807342669 
-0.03459150853581260260 0.00000000000000000000 0.83206561670510814643 
-0.03352481482979512845 -0.00000000000000005442 0.83292263607393657310 
-0.03248224836856607178 0.00000000000000000000 0.83428306139289465371 
-0.03146314699008161825 -0.00000000000000010884 0.83612298796698980574 
-0.03046741013097096357 0.00000000000000000000 0.83841682403220807451 
-0.02949491388026636782 -0.00000000000000021768 0.84113763485205150783 
-0.02854551225840632270 -0.00000000000000005442 0.84425746635619458580 
-0.02761903847356935587 -0.00000000000000010884 0.84774764709442862465 
-0.02671530615391550303 0.00000000000000000000 0.85157906769422975213 
-0.02583411055442492998 0.00000000000000005442 0.85572243737840913980 
-0.02497522973714632818 0.00000000000000000000 0.86014851742226772213 
-0.02413842572377302917 -0.00000000000000005442 0.86482833170958639535 
-0.02332344561958633877 0.00000000000000005442 0.86973335478628788220 
-0.02253002270791137213 -0.00000000000000005442 0.87483567801237416273 
-0.02175787751433997524 0.00000000000000000000 0.88010815457974367337 
-0.02100671884008324317 -0.00000000000000010884 0.88552452429860295524 
-0.02027624476391728936 -0.00000000000000005442 0.89105951916140502256 
-0.01956614361228430424 -0.00000000000000005442 0.89668895077341892463 
-0.01887468659893209999 0.00000000000000000000 0.90238978062401553615 
-0.01820303198783800036 -0.00000000000000021768 0.90814014030050926873 
-0.01755084013827335615 0.00000000000000000000 0.91391902094347832186 
-0.01691776542997979957 -0.00000000000000005442 0.91970537085797521293 
-0.01630345706021596799 0.00000000000000005442 0.92547685021909731340 
-0.01570755980869672705 -0.00000000000000016326 0.93120856081071534671 
-0.01512971477055883099 -0.00000000000000010884 0.93687195417806634623 
-0.01456956005755695796 0.00000000000000010884 0.94243403130169678406 
-0.01402673146775411557 0.00000000000000016326 0.94785688252106503615 
-0.01350086312403772117 -0.00000000000000010884 0.95309757201286415818 
-0.01299158808183997586 0.00000000000000000000 0.95810834190427984769 
-0.01249853890650000875 0.00000000000000000000 0.96283709328613320544 
-0.01202134822074881967 0.00000000000000010884 0.96722809198802783825 
-0.01155964922284218564 -0.00000000000000010884 0.97122284363460087420 
-0.01111307617590907154 0.00000000000000000000 0.97476108338862321734 
-0.01068126486911337263 -0.00000000000000005442 0.97778182949441383442 
-0.01026385305126615091 0.00000000000000005442 0.98022445519361300903 
-0.00986048083754943912 -0.00000000000000010884 0.98202974265643228069 
-0.00947079109003446176 0.00000000000000000000 0.98314098991715448417 
-0.00909442977271192853 -0.00000000000000005442 0.98350551292068255638 
-0.00873104628175331784 0.00000000000000000000 0.98307657338932386004 
-0.00838029375174992666 0.00000000000000010884 0.98181538697678105709 
-0.00804182933868684280 0.00000000000000005442 0.97969293273568380798 
-0.00771531448041252663 0.00000000000000016326 0.97669139773627677847 
-0.00740041513538140881 0.00000000000000010884 0.97280517357475371210 
-0.00709680200044244570 -0.00000000000000016326 0.96804138036296683012 
-0.00680415070845496236 0.00000000000000016326 0.96241993407635761937 
-0.00652214200651122893 0.00000000000000005442 0.95597319925479440350 
-0.00625046191554199694 0.00000000000000000000 0.94874528451564266174 
-0.00598880187207862999 -0.00000000000000010884 0.94079104593756779362 
-0.00573685885294017515 0.00000000000000021768 0.93217486530205584394 
-0.00549433548360283783 0.00000000000000005442 0.92296926815029312063 
-0.00526094013100760968 0.00000000000000010884 0.91325344194871016512 
-0.00503638698154133639 0.00000000000000000000 0.90311170836604415246 
-0.00482039610492384588 0.00000000000000005442 0.89263199650572611077 
-0.00461269350471610849 0.00000000000000000000 0.88190435646739684383 
-0.00441301115615134066 0.00000000000000005442 0.87101954523028635169 
-0.00422108703197755526 0.00000000000000000000 0.86006770983547164988 
-0.00403666511698166659 0.00000000000000010884 0.84913718637455937177 
-0.00385949541185208293 0.00000000000000000000 0.83831342747692894068 
-0.00368933392701649042 0.00000000000000016326 0.82767806587916414873 
-0.00352594266707733934 -0.00000000000000016326 0.81730811727100993735 
-0.00336908960644614116 0.00000000000000016326 0.80727532192527362565 
-0.00321854865676161894 0.00000000000000000000 0.79764562159764440530 
-0.00307409962665664829 0.00000000000000010884 0.78847876577630426898 
-0.00293552817442156331 0.00000000000000010884 0.77982803951259915820 
-0.00280262575409096371 0.00000000000000000000 0.77174010371136103625 
-0.00267518955546169543 0.00000000000000021768 0.76425493784039633116 
-0.00255302243853314584 0.00000000000000010884 0.75740587447242690988 
-0.00243593286283754927 0.00000000000000010884 0.75121971484152472165 
-0.00232373481211361511 0.00000000000000005442 0.74571691462606382039 
-0.00221624771475526861 0.00000000000000010884 0.74091182941220801172 
-0.00211329636044733883 0.00000000000000010884 0.73681300970170848785 
-0.00201471081338541963 0.00000000000000005442 0.73342353586602848647 
-0.00192032632245533498 -0.00000000000000016326 0.73074138408118261001 
-0.00182998322873135122 0.00000000000000005442 0.72875981497449848767 
-0.00174352687063429840 0.00000000000000027210 0.72746777745054846953 
-0.00166080748707357184 0.00000000000000000000 0.72685032091754231409 
-0.00158168011888038754 0.00000000000000010884 0.72688900989004889830 
-0.00150600450882194771 0.00000000000000005442 0.72756233568488593022 
-0.00143477804667945246 -0.00000000000000010884 0.72884612064312770396 
-0.00136694874685870139 -0.00000000000000005442 0.73071391099388782742 
-0.00130210265087383884 0.00000000000000005442 0.73313735511839628334 
-0.00124012132417997611 0.00000000000000005442 0.73608656457153898156 
-0.00118089031418944874 0.00000000000000027210 0.73953045576961129459 
-0.00112429905713619664 -0.00000000000000021768 0.74343707075614995361 
-0.00107024078467140866 0.00000000000000005442 0.74777387591202648665 
-0.00101861243038302643 0.00000000000000016326 0.75250803788213826984 
-0.00096931453641574308 0.00000000000000010884 0.75760667635032008516 
-0.00092225116036464953 0.00000000000000000000 0.76303709360846183607 
-0.00087732978258935979 0.00000000000000010884 0.76876698113752006680 
-0.00083446121410209694 0.00000000000000010884 0.77476460364982513429 
-0.00079355950515287797 0.00000000000000021768 0.78099896123657064351 
-0.00075454185463960687 0.00000000000000005442 0.78743993042458682030 
-0.00071732852045294543 0.00000000000000010884 0.79405838507540427162 
-0.00068184273085728679 0.00000000000000000000 0.80082629816013084501 
-0.00064743759555520081 0.00000000000000016326 0.80771682551871093469 
-0.00061381159118553588 0.00000000000000005442 0.81470437196866862806 
-0.00058177642252985214 0.00000000000000010884 0.82176457869240027154 
-0.00055126221697459135 0.00000000000000010884 0.82887389770211827855 
-0.00052220185969909427 0.00000000000000021768 0.83600859087700696293 
-0.00049453090260635399 -0.00000000000000005442 0.84314345738796026009 
-0.00046818747523385152 0.00000000000000016326 0.85025058545484744066 
-0.00044311219766777208 0.00000000000000000000 0.85729831136466072561 
-0.00041924809547279872 0.00000000000000016326 0.86425048412370153450 
-0.00039654051665189056 0.00000000000000005442 0.87106607416266279564 
-0.00037493705063765200 0.00000000000000000000 0.87769912347650269613 
-0.00035438744931996595 0.00000000000000005442 0.88409900791330109371 
-0.00033484355010541438 0.00000000000000010884 0.89021096641056851606 
-0.00031625920100275892 -0.00000000000000010884 0.89597684395632126719 
-0.00029859018772303308 0.00000000000000005442 0.90133599268662800696 
-0.00028179416278478948 -0.00000000000000005442 0.90622627708282321723 
-0.00026583057660244937 -0.00000000000000005442 0.91058513336546997863 
-0.00025066061054518027 -0.00000000000000005442 0.91435063888718415281 
-0.00023624711194016509 0.00000000000000000000 0.91746255464510062527 
-0.00022255453099858329 0.00000000000000005442 0.91986337229334091958 
-0.00020954885963920527 0.00000000000000010884 0.92149967685103328918 
-0.00019719757218149172 0.00000000000000005442 0.92232397089032513993 
-0.00018546956787769542 0.00000000000000005442 0.92229664538460498502 
-0.00017433511525586764 0.00000000000000005442 0.92138779532173031850 
-0.00016376579823989561 0.00000000000000010884 0.91957869555450244548 
-0.00015373446401516699 -0.00000000000000005442 0.91686284056176658996 
-0.00014421517260330882 -0.00000000000000010884 0.91324651471461182339 
-0.00013518314811506390 0.00000000000000005442 0.90874890301130417658 
-0.00012661473164121066 0.00000000000000016326 0.90340178066584930772 
-0.00011848733574958880 -0.00000000000000010884 0.89724883708819747064 
-0.00011077940054851066 0.00000000000000000000 0.89034469860119658247 
-0.00010347035128179651 0.00000000000000000000 0.88275371700387550433 
-0.00009654055741688338 0.00000000000000010884 0.87454858961263270967 
-0.00008997129319026229 0.00000000000000000000 0.86580887208410339806 
-0.00008374469957041840 0.00000000000000010884 0.85661943921014260805 
-0.00007784374760366252 0.00000000000000000000 0.84706894177778480071 
-0.00007225220310444328 0.00000000000000010884 0.83724830009702733147 
-0.00006695459265299708 -0.00000000000000005442 0.82724926734318338095 
-0.00006193617086314835 0.00000000000000010884 0.81716308873504295285 
-0.00005718288888580452 -0.00000000000000010884 0.80707927597131001729 
-0.00005268136410915243 0.00000000000000010884 0.79708451039484073952 
-0.00004841885102275133 -0.00000000000000005442 0.78726168310810873407 
-0.00004438321320658559 0.00000000000000010884 0.77768907574204293454 
-0.00004056289641588506 -0.00000000000000005442 0.76843968177088473048 
-0.00003694690272033559 0.00000000000000005442 0.75958066513339317360 
-0.00003352476567066846 0.00000000000000000000 0.75117295041667875299 
-0.00003028652645495623 0.00000000000000010884 0.74327093692573864558 
-0.00002722271101463712 0.00000000000000010884 0.73592232753757114150 
-0.00002432430808620346 -0.00000000000000005442 0.72916806226072738983 
-0.00002158274814024724 -0.00000000000000005442 0.72304234582755033678 
-0.00001898988318476561 0.00000000000000000000 0.71757275837838119248 
-0.00001653796740292865 -0.00000000000000016326 0.71278043829965298528 
-0.00001421963859795039 0.00000000000000027210 0.70868032650078949253 
-0.00001202790041585346 -0.00000000000000010884 0.70528146181268414061 
-0.00000995610531600689 -0.00000000000000005442 0.70258731772297999818 
-0.00000799793826630980 -0.00000000000000010884 0.70059617129494711207 
-0.00000614740113285842 0.00000000000000005442 0.69930149581692879757 
-0.00000439879774132290 -0.00000000000000005442 0.69869236947194246490 
-0.00000274671958246986 0.00000000000000005442 0.69875389308019231205 
-0.00000118603214049863 0.00000000000000000000 0.69946761073279772880 
0.00000000000000004245 0.00000000000000021768 0.70081192788827162410 
-0.00000000000000008265 -0.00000000000000005442 0.70276252223247526185 
0.00000000000000001379 -0.00000000000000005442 0.70529274329894153794 
-0.00000000000000003207 -0.00000000000000010884 0.70837399750286689226 
-0.00000000000000001744 -0.00000000000000005442 0.71197611585404241286 
0.00000000000000010046 0.00000000000000000000 0.71606770217846893445 
0.00000000000000007499 -0.00000000000000005442 0.72061646019383363004 
-0.00000000000000012728 -0.00000000000000010884 0.72558949824991425537 
0.00000000000000004295 0.00000000000000016326 0.73095361096192745798 
0.00000000000000001930 -0.00000000000000010884 0.73667553733403512428 
0.00000000000000000739 0.00000000000000000000 0.74272219529362371038 
-0.00000000000000000593 0.00000000000000000000 0.74906089283680810098 
0.00000000000000005703 0.00000000000000016326 0.75565951622456950521 
0.00000000000000001201 0.00000000000000016326 0.76248669586980799551 
-0.00000000000000001056 0.00000000000000000000 0.76951195072136469033 
0.00000000000000001491 0.00000000000000000000 0.77670581208472899704 
0.00000000000000004397 0.00000000000000000000 0.78403992792371590692 
0.00000000000000006218 -0.00000000000000016326 0.79148714876577186406 
0.00000000000000006903 -0.00000000000000010884 0.79902159621667434575 
0.00000000000000002702 -0.00000000000000010884 0.80661868121617907867 
0.00000000000000005699 -0.00000000000000010884 0.81425479136128642299 
0.00000000000000004650 0.00000000000000000000 0.82190638623728962120 
0.00000000000000012923 0.00000000000000005442 0.82954874971887859747 
-0.00000000000000001461 0.00000000000000000000 0.83715471720195866467 
0.00000000000000013505 0.00000000000000005442 0.84469358116689885474 
0.00000000000000005168 -0.00000000000000010884 0.85213028819888902987 
0.00000000000000005147 0.00000000000000000000 0.85942497621018565379 
-0.00000000000000001817 0.00000000000000000000 0.86653285618413988800 
0.00000000000000007714 0.00000000000000000000 0.87340441353449349560 
0.00000000000000007089 -0.00000000000000010884 0.87998588635670638158 
0.00000000000000013254 0.00000000000000000000 0.88621996844388339909 
0.00000000000000010999 0.00000000000000010884 0.89204668159557176654 
0.00000000000000007248 0.00000000000000000000 0.89740436263316991639 
0.00000000000000001995 -0.00000000000000010884 0.90223071424232237359 
0.00000000000000008954 0.00000000000000000000 0.90646387422025331837 
-0.00000000000000007525 -0.00000000000000010884 0.91004346411424363872 
-0.00000000000000002541 -0.00000000000000010884 0.91291158500997771075 
0.00000000000000012074 -0.00000000000000010884 0.91501373494713100776 
0.00000000000000002904 0.00000000000000005442 0.91629962881708226785 
0.00000000000000003408 0.00000000000000000000 0.91672390744778531335 
0.00000000000000005653 0.00000000000000000000 0.91624672779408100620 
-0.00000000000000003341 0.00000000000000000000 0.91483423067583757859 
-0.00000000000000008771 -0.00000000000000005442 0.91245888633113536592 
-0.00000000000000002067 -0.00000000000000010884 0.90909972119677884272 
0.00000000000000002320 0.00000000000000000000 0.90474243183376867883 
-0.00000000000000003638 -0.00000000000000010884 0.89937939383389264858 
0.00000000000000006979 -0.00000000000000010884 0.89300957493573618340 
0.00000000000000000038 0.00000000000000000000 0.88563836250774696790 
-0.00000000000000006499 0.00000000000000016326 0.87727731608629555549 
0.00000000000000001390 -0.00000000000000010884 0.86794385584961630808 
0.00000000000000003287 0.00000000000000000000 0.85766089782226628824 
-0.00000000000000005025 -0.00000000000000010884 0.84645644629285865523 
-0.00000000000000002018 -0.00000000000000010884 0.83436315343887779150 
0.00000000000000004830 0.00000000000000000000 0.82141785552951185334 
0.00000000000000000827 0.00000000000000005442 0.80766109435855326648 
0.00000000000000004883 -0.00000000000000010884 0.79313663177713800145 
0.00000000000000004666 -0.00000000000000005442 0.77789096437825044905 
0.00000000000000001425 0.00000000000000005442 0.76197284455466107733 
0.00000000000000007359 -0.00000000000000005442 0.74543281332838728925 
-0.00000000000000001498 -0.00000000000000005442 0.72832274954811171419 
0.00000000000000009353 -0.00000000000000005442 0.71069543928324363513 
-0.00000000000000005365 -0.00000000000000005442 0.69260416851848005670 
0.00000000000000009800 0.00000000000000000000 0.67410234157729498339 
0.00000000000000004998 0.00000000000000005442 0.65524312708109488934 
0.00000000000000006404 0.00000000000000005442 0.63607913268529547857 
-0.00000000000000005069 -0.00000000000000010884 0.61666210932527631972 
0.00000000000000003464 -0.00000000000000016326 0.59704268525375714383 
-0.00000000000000001373 -0.00000000000000021768 0.57727012975534885975 
0.00000000000000002855 -0.00000000000000005442 0.55739214608176912424 
0.00000000000000004020 0.00000000000000005442 0.53745469285983571428 
0.00000000000000005687 0.00000000000000000000 0.51750183298076180005 
0.00000000000000003240 0.00000000000000005442 0.49757560878006223959 
0.00000000000000005455 0.00000000000000000000 0.47771594215901602709 
-0.00000000000000002180 -0.00000000000000010884 0.45796055817742276073 
-0.00000000000000001598 0.00000000000000005442 0.43834493055973333675 
-0.00000000000000008410 -0.00000000000000005442 0.41890224749890814238 
0.00000000000000003275 0.00000000000000005442 0.39966339611111789676 
0.00000000000000005592 0.00000000000000000000 0.38065781851193813967 
0.00000000000000007702 0.00000000000000005442 0.36191147088050745761 
0.00000000000000003059 0.00000000000000000000 0.34344782365415660319 
0.00000000000000010087 0.00000000000000005442 0.32528872372546258074 
-0.00000000000000008102 -0.00000000000000016326 0.30745386156927984045 
0.00000000000000000472 0.00000000000000010884 0.28996083381743953389 
-0.00000000000000001628 -0.00000000000000010884 0.27282521365616468900 
-0.00000000000000006782 0.00000000000000000000 0.25606062774548860039 
0.00000000000000007356 -0.00000000000000005442 0.23967883844176091079 
-0.00000000000000000839 0.00000000000000005442 0.22368983018864790902 
-0.00000000000000001161 0.00000000000000000000 0.20810189902756878744 
0.00000000000000006802 0.00000000000000010884 0.19292174426419539390 
-0.00000000000000006043 0.00000000000000000000 0.17815456141249416677 
0.00000000000000001955 -0.00000000000000005442 0.16380413562103729452 
-0.00000000000000014137 -0.00000000000000010884 0.14987293486727507053 
0.00000000000000002416 0.00000000000000010884 0.13636220228359341444 
-0.00000000000000001327 -0.00000000000000010884 0.12327204705386979322 
0.00000000000000003141 0.00000000000064683710 0.11060153339050890486 
0.00000000000000001924 0.00000000721345376573 0.09834876716938180385 
0.00000000000000004304 0.00000020716500383424 0.08651097986349631785 
-0.00000000000000001774 0.00000166731366142347 0.07508460947550141262 
-0.00000000000000003792 0.00000750841022425491 0.06406537822423524764 
-0.00000000000000003985 0.00002420292732190729 0.05344836679143492170 
0.00000000000000003992 0.00006275356487280607 0.04322808498151624323 
0.00000000000000001084 0.00013960721612955366 0.03339853869005225684 
0.00000000000000003104 0.00027723368575078569 0.02395329311535621467 
0.00000000000000002577 0.00050435017637897954 0.01488553218253163904 
0.00000000000000005111 0.00085580730699409474 0.00618811418064839878 
0.00000000000000004665 0.00137217434921588634 -0.00214637635850454958 
-0.00000000000000002290 0.00209907376235532678 -0.01012558048716144347 
-0.00000000000000006800 0.00308632056969109945 -0.01775732029955387828 
0.00000000000000002044 0.00438692267390583101 -0.02504955792845627721 
0.00000000000000000798 0.00605599542578117052 -0.03201035797200523642 
0.00000000000000005341 0.00814963883427523642 -0.03864785322941321349 
-0.00000000000000005118 0.01072381963933497287 -0.04497021361349073237 
-0.00000000000000002931 0.01383329372752723462 -0.05098561809935994726 
0.00000000000000002393 0.01753059753566743595 -0.05670222956222116528 
0.00000000000000002031 0.02186513049493802804 -0.06212817235232482443 
-0.00000000000000005611 0.02688234444114181651 -0.06727151245225275467 
-0.00000000000000000391 0.03262305039350802544 -0.07214024006005019529 
0.00000000000000008796 0.03912284825803138966 -0.07674225444151407116 
-0.00000000000000002682 0.04641168086709494128 -0.08108535089590380995 
-0.00000000000000001362 0.05451351031617611420 -0.08517720968133364601 
-0.00000000000000000836 0.06344611176792357143 -0.08902538674901762372 
-0.00000000000000009237 0.07322097771527633081 -0.09263730613924343882 
-0.00000000000000002169 0.08384332407050258673 -0.09602025389631732577 
-0.00000000000000011977 0.09531218831325199980 -0.09918137336467348908 
-0.00000000000000004617 0.10762060922384031336 -0.10212766173374891732 
-0.00000000000000007823 0.12075587738519097392 -0.10486596770500951348 
0.00000000000000001838 0.13469984559832562376 -0.10740299016060309012 
0.00000000000000004125 0.14942928856642012647 -0.10974527771940674470 
0.00000000000000008166 0.16491630161049566916 -0.11189922907268709529 
-0.00000000000000013959 0.18112872874035518267 -0.11387109399812637978 
-0.00000000000000004802 0.19803061107729211243 -0.11566697495752416291 
-0.00000000000000014194 0.21558264737554022616 -0.11729282919002821661 
0.00000000000000001718 0.23374265918761372163 -0.11875447121922275140 
-0.00000000000000001726 0.25246605403946598134 -0.12005757569876557289 
-0.00000000000000002962 0.27170628080402547955 -0.12120768052750188759 
0.00000000000000001776 0.29141527226928715111 -0.12221019017103568194 
-0.00000000000000002218 0.31154387067639993658 -0.12307037913260696071 
-0.00000000000000004736 0.33204223274385674669 -0.12379396852321968014 
-0.00000000000000002933 0.35286021138839390732 -0.12438621411026720698 
-0.00000000000000005731 0.37394771199630705283 -0.12485114200253724648 
0.00000000000000005063 0.39525502168732523645 -0.12519354697811393984 
-0.00000000000000000463 0.41673311054532330422 -0.12541811161640364913 
-0.00000000000000000087 0.43833390426573981546 -0.12552940977434010050 
-0.00000000000000001016 0.46001052808943249106 -0.12553190995569257771 
0.00000000000000002182 0.48171752225856068197 -0.12542997855444104616 
-0.00000000000000006676 0.50341102954431626859 -0.12522788295674058823 
0.00000000000000006616 0.52504895566181009059 -0.12492979448927746255 
-0.00000000000000000351 0.54659110360737139800 -0.12453979120484413856 
0.00000000000000000983 0.56799928313144865122 -0.12406186049871986699 
0.00000000000000001886 0.58923739669969754651 -0.12349990155195343655 
0.00000000000000000030 0.61027150339942226598 -0.12285772759991149539 
-0.00000000000000007190 0.63106986232177619822 -0.12213906802648602512 
0.00000000000000005288 0.65160295699561165961 -0.12134757028616073582 
-0.00000000000000009217 0.67184350246984969601 -0.12048680165772805706 
-0.00000000000000003511 0.69176643664100267994 -0.11955884253655710281 
-0.00000000000000007860 0.71134889474201556947 -0.11856859112577519677 
-0.00000000000000007047 0.73057006530229429142 -0.11751937889276682647 
-0.00000000000000001025 0.74941056144322948374 -0.11641446279725148338 
0.00000000000000009322 0.76785125909186990878 -0.11525702629159900736 
-0.00000000000000004925 0.78587193572252100893 -0.11405018019875830249 
0.00000000000000001561 0.80344998181811067006 -0.11279696347760274910 
-0.00000000000000007178 0.82055934887941761602 -0.11150034388577520494 
0.00000000000000002320 0.83716981865430517562 -0.11016321855025738852 
-0.00000000000000004539 0.85324662246914351194 -0.10878841445594601700 
-0.00000000000000004417 0.86875040168224215709 -0.10737868886246426658 
-0.00000000000000002455 0.88363747599749475903 -0.10593672965930833740 
0.00000000000000003615 0.89786037222270631553 -0.10446515566921854568 
-0.00000000000000006629 0.91136855930785098945 -0.10296651690939437329 
-0.00000000000000001895 0.92410933402334383135 -0.10144329481983127561 
0.00000000000000003747 0.93602880378664399252 -0.09989790246768529003 
0.00000000000000000193 0.94707291765280221529 -0.09833268473613811234 
-0.00000000000000008608 0.95718850241687392089 -0.09674991850577613350 
0.00000000000000004800 0.96632428407160486650 -0.09515181283601477358 
0.00000000000000003655 0.97443208373134571065 -0.09354050915358112783 
0.00000000000000004361 0.98146849806693581275 -0.09191808145454630208 
0.00000000000000003862 0.98739688031551053893 -0.09028653652586146605 
0.00000000000000003377 0.99218927695298675395 -0.08864781419180740862 
0.00000000000000004925 0.99582808968995117915 -0.08700378759022468766 
0.00000000000000001804 0.99830733292320794625 -0.08535626348285231535 
0.00000000000000004546 0.99963342932357535098 -0.08370698260356404519 
0.00000000000000005855 0.99982553707713173186 -0.08205762004777472640 
0.00000000000000003504 0.99891543644463198781 -0.08040978570576977347 
0.00000000000000011422 0.99694702478710417459 -0.07876502474222403516 
-0.00000000000000000419 0.99397548123052703595 -0.07712481812369083312 
0.00000000000000005204 0.99006616724471685487 -0.07549058319538784478 
0.00000000000000003095 0.98529332958092497030 -0.07386367430817347701 
0.00000000000000007905 0.97973866879578419553 -0.07224538349618411792 
0.00000000000000005710 0.97348983117504728213 -0.07063694120521991915 
0.00000000000000006815 0.96663887516045676751 -0.06903951707159926288 
-0.00000000000000007576 0.95928075604891382966 -0.06745422075085907854 
0.00000000000000012601 0.95151186526484954342 -0.06588210279536303726 
0.00000000000000001624 0.94342865325098823615 -0.06432415557959375585 
0.00000000000000004037 0.93512635821473322206 -0.06278131427163005651 
-0.00000000000000001761 0.92669785675636018318 -0.06125445784908765956 
0.00000000000000004717 0.91823264687491878977 -0.05974441015756580542 
-0.00000000000000007227 0.90981596903327821568 -0.05825194100947316683 
0.00000000000000011114 0.90152806686450437379 -0.05677776732092519596 
-0.00000000000000004647 0.89344358569188808694 -0.05532255428426635646 
0.00000000000000005979 0.88563110427148961090 -0.05388691657365459603 
0.00000000000000000690 0.87815279299526893819 -0.05247141958103641174 
-0.00000000000000010093 0.87106419015491076685 -0.05107658067977099980 
0.00000000000000009859 0.86441408669918939900 -0.04970287051309468795 
-0.00000000000000003555 0.85824450915919581195 -0.04835071430458414560 
-0.00000000000000001199 0.85259079000622761679 -0.04702049318774418479 
0.00000000000000007185 0.84748171459030952057 -0.04571254555184736668 
-0.00000000000000000620 0.84293973393116750081 -0.04442716840115283616 
-0.00000000000000000516 0.83898123295077919881 -0.04316461872466453853 
-0.00000000000000001745 0.83561684420511339599 -0.04192511487361047506 
0.00000000000000001052 0.83285179775507023336 -0.04070883794388605037 
-0.00000000000000008059 0.83068629848048392006 -0.03951593316075447532 
0.00000000000000003524 0.82911592285851587469 -0.03834651126316866721 
-0.00000000000000007206 0.82813202797525176102 -0.03720064988515469490 
0.00000000000000010867 0.82772216629718342595 -0.03607839493178573165 
0.00000000000000004922 0.82787050048140409242 -0.03497976194736206190 
0.00000000000000014683 0.82855821323686029700 -0.03390587051972624583 
-0.00000000000000001752 0.82976390795373999865 -0.03285575870573690521 
0.00000000000000007378 0.83146399648643398717 -0.03182907186793317716 
0.00000000000000002921 0.83363307110185580484 -0.03082572158967043091 
0.00000000000000002392 0.83624425818559755541 -0.02984559553350227268 
0.00000000000000000603 0.83926955183113649550 -0.02888855872853956022 
-0.00000000000000001213 0.84268012592121610549 -0.02795445483586780216 
0.00000000000000003797 0.84644662374565937668 -0.02704310739054295587 
0.00000000000000001210 0.85053942458716125241 -0.02615432101880343918 
0.00000000000000000939 0.85492888704766756280 -0.02528788262925158944 
0.00000000000000005559 0.85958556918484407827 -0.02444356257687617731 
0.00000000000000005309 0.86448042578332717767 -0.02362111579889968407 
0.00000000000000002100 0.86958498330167688373 -0.02282028292154377955 
-0.00000000000000003632 0.87487149321604973373 -0.02204079133692329884 
0.00000000000000005946 0.88031306462857594752 -0.02128235624937757989 
0.00000000000000000609 0.88588377712519672524 -0.02054468169065887251 
0.00000000000000001377 0.89155877495725921467 -0.01982717336531146859 
0.00000000000000004024 0.89731434368565055060 -0.01912869987657234497 
0.00000000000000000799 0.90312796326148103709 -0.01845011915491167123 
0.00000000000000013470 0.90897818206628744342 -0.01779109589225108881 
0.00000000000000004352 0.91484394450849704228 -0.01715128841734232801 
0.00000000000000006395 0.92070343815356214812 -0.01653034950685065493 
0.00000000000000008707 0.92653280225322220964 -0.01592792716431494157 
-0.00000000000000001020 0.93230494582804068759 -0.01534366536708257379 
0.00000000000000006465 0.93798862104291025332 -0.01477720478139558750 
0.00000000000000004429 0.94354782366423994855 -0.01422818344586407845 
0.00000000000000002462 0.94894154061306146275 -0.01369623742362895309 
0.00000000000000014834 0.95412382982796306585 -0.01318100142357349694 
0.00000000000000016381 0.95904419567240162259 -0.01268210939099158677 
0.00000000000000012042 0.96364821066791583881 -0.01219919506817898625 
0.00000000000000003529 0.96787832881365198912 -0.01173189252545068194 
-0.00000000000000001724 0.97167483513742636259 -0.01127983666313441512 
0.00000000000000011986 0.97497687884801953473 -0.01084266368512494007 
-0.00000000000000009736 0.97772354232593339241 -0.01042001154461850813 
0.00000000000000006895 0.97985490432047994691 -0.01001152036267861922 
0.00000000000000016359 0.98131307909583798121 -0.00961683282030599378 
0.00000000000000003972 0.98204342213028883446 -0.00923559452471702826 
0.00000000000000006042 0.98199621384165891591 -0.00886745435054354762 
0.00000000000000003454 0.98112863872762279271 -0.00851206475669794363 
0.00000000000000000381 0.97940671620651631457 -0.00816908207964489076 
0.00000000000000006459 0.97680695387890414949 -0.00783816680384891509 
0.00000000000000006457 0.97331759426021557946 -0.00751898381016109525 
0.00000000000000010060 0.96893939844463650157 -0.00721120260292086850 
0.00000000000000009267 0.96368596086578572901 -0.00691449751655539430 
0.00000000000000014426 0.95758358334584814386 -0.00662854790244908707 
-0.00000000000000005442 0.95067075799822464699 -0.00635303829686418263 
0.00000000000000019977 0.94299732047597251139 -0.00608765857069054183 
-0.00000000000000010262 0.93462334007520664336 -0.00583210406178806019 
0.00000000000000006767 0.92561781329865921997 -0.00558607569068936272 
0.00000000000000008050 0.91605722420578516996 -0.00534928006041679536 
0.00000000000000010842 0.90602402941019444249 -0.00512142954115621125 
0.00000000000000011112 0.89560511883323179472 -0.00490224234052531911 
0.00000000000000012298 0.88489029595513124526 -0.00469144256015451878 
0.00000000000000008880 0.87397081381118890686 -0.00448876023928963114 
0.00000000000000003777 0.86293799570559381884 -0.00429393138611201732 
0.00000000000000014766 0.85188196279410854928 -0.00410669799744936385 
0.00000000000000005666 0.84089048446703562600 -0.00392680806754575930 
0.00000000000000010349 0.83004796192885765826 -0.00375401558653052454 
0.00000000000000003833 0.81943455055496861039 -0.00358808052921779936 
0.00000000000000002745 0.80912542250772168106 -0.00342876883484572945 
0.00000000000000018136 0.79919016768726602873 -0.00327585237834717921 
0.00000000000000013706 0.78969232833381886039 -0.00312910893372381768 
0.00000000000000022540 0.78068906043297392472 -0.00298832213008378214 
0.00000000000000010155 0.77223091344419958482 -0.00285328140086948089 
0.00000000000000025468 0.76436171871238023368 -0.00272378192680189282 
0.00000000000000006782 0.75711857617091737893 -0.00259962457303026867 
0.00000000000000006950 0.75053192854257699818 -0.00248061582097054483 
0.00000000000000008837 0.74462571213450035046 -0.00236656769529067787 
0.00000000000000006071 0.73941757345444736327 -0.00225729768648131679 
0.00000000000000008792 0.73491914119907275627 -0.00215262866943530685 
0.00000000000000020307 0.73113634363957014095 -0.00205238881843687907 
0.00000000000000006412 0.72806976201796769210 -0.00195641151894778657 
0.00000000000000012480 0.72571501123631265706 -0.00186453527655243965 
0.00000000000000014037 0.72406313984303216635 -0.00177660362341527760 
-0.00000000000000004632 0.72310104207235825768 -0.00169246502257897513 
0.00000000000000014632 0.72281187545420899632 -0.00161197277041725900 
0.00000000000000006395 0.72317547826724026816 -0.00153498489754176149 
0.00000000000000006847 0.72416878184404631646 -0.00146277236672021907 
0.00000000000000005380 0.72576621344458969176 -0.00139371571407783269 
0.00000000000000006193 0.72794008608424831674 -0.00132769077481310698 
0.00000000000000007187 0.73066097233089855045 -0.00126457749562076797 
0.00000000000000018328 0.73389805966744625643 -0.00120425984228472250 
0.00000000000000001685 0.73761948555005030226 -0.00114662570670776834 
0.00000000000000013513 0.74179265077700651254 -0.00109156681359181911 
0.00000000000000014087 0.74638451021901008886 -0.00103897862696548135 
0.00000000000000007255 0.75136184034923758635 -0.00098876025674216007 
0.00000000000000002206 0.75669148335303737518 -0.00094081436548604995 
0.00000000000000001816 0.76234056789403603638 -0.00089504707553980244 
0.00000000000000004608 0.76827670686872029382 -0.00085136787666618995 
0.00000000000000013127 0.77446817269770229508 -0.00080968953433954618 
0.00000000000000001135 0.78088405088186818581 -0.00076992799881155007 
0.00000000000000001412 0.78749437269837485598 -0.00073200231507123954 
0.00000000000000008823 0.79427022802802427215 -0.00069583453379683268 
0.00000000000000022083 0.80118385939481318037 -0.00066134962340612597 
0.00000000000000006213 0.80820873836267936863 -0.00062706708500591759 
0.00000000000000008297 0.81531961826939813864 -0.00059440412431932088 
0.00000000000000020605 0.82249240782625443469 -0.00056328973967763026 
0.00000000000000015309 0.82970349818560029664 -0.00053365572418170599 
0.00000000000000008596 0.83692860945878555512 -0.00050543657384642573 
0.00000000000000014437 0.84414149855473685768 -0.00047856939771878882 
0.00000000000000019063 0.85131277649788261730 -0.00045299382998719817 
0.00000000000000009337 0.85840898096942197526 -0.00042865194410346771 
0.00000000000000010221 0.86539197586474303492 -0.00040548816893034602 
0.00000000000000009910 0.87221869788509076571 -0.00038344920691890861 
0.00000000000000005350 0.87884123538108349649 -0.00036248395432300292 
0.00000000000000007513 0.88520720268612618220 -0.00034254342344535853 
0.00000000000000007290 0.89126036072459857706 -0.00032358066691416443 
0.00000000000000004141 0.89694142915843666497 -0.00030555070397939385 
0.00000000000000003317 0.90218903472041100944 -0.00028841044881652215 
0.00000000000000010649 0.90694074310676764394 -0.00027211864082436039 
0.00000000000000006234 0.91113412666933724093 -0.00025663577689811952 
0.00000000000000006372 0.91470782642878667446 -0.00024192404565751674 
0.00000000000000018366 0.91760260752521716210 -0.00022794726360739277 
0.00000000000000024253 0.91976266182517663061 -0.00021467081320433848 
0.00000000000000005501 0.92113739833309360439 -0.00020206158280598421 
0.00000000000000001604 0.92168345809870866336 -0.00019008790847078951 
0.00000000000000011975 0.92136662676702840713 -0.00017871951758106889 
0.00000000000000004719 0.92016343724709570573 -0.00016792747425540432 
0.00000000000000010480 0.91806234931352048712 -0.00015768412652051358 
0.00000000000000015080 0.91506446070156166606 -0.00014796305520676554 
0.00000000000000016174 0.91118375138489215992 -0.00013873902453267746 
0.00000000000000021620 0.90644689404231315599 -0.00012998793434677562 
0.00000000000000007495 0.90089268307351488829 -0.00012168677398529739 
0.00000000000000008491 0.89457114497532541630 -0.00011381357771395258 
0.00000000000000011506 0.88754239685627467349 -0.00010634738171456258 
0.00000000000000007783 0.87987531924225126367 -0.00009926818258065921 
0.00000000000000007526 0.87164610557850330519 -0.00009255689728378642 
0.00000000000000020282 0.86293674508943907231 -0.00008619532457475077 
0.00000000000000010567 0.85383348876893505608 -0.00008016610778058363 
0.00000000000000015083 0.84442534087220966210 -0.00007445269896091723 
0.00000000000000001869 0.83480261082423645735 -0.00006903932438791134 
0.00000000000000009028 0.82505555327126400833 -0.00006391095130989536 
0.00000000000000010115 0.81527311729743623392 -0.00005905325596542073 
0.00000000000000009332 0.80554181974236283015 -0.00005445259280799674 
0.00000000000000005382 0.79594475216075022406 -0.00005009596491049064 
0.00000000000000003836 0.78656072628879913911 -0.00004597099550685291 
0.00000000000000002506 0.77746355891767271462 -0.00004206590064412116 
0.00000000000000003727 0.76872149379209697706 -0.00003836946290274460 
-0.00000000000000003181 0.76039675550649377112 -0.00003487100615698516 
0.00000000000000007957 0.75254522830670655953 -0.00003156037133936913 
0.00000000000000011106 0.74521625116177747650 -0.00002842789317577538 
0.00000000000000007590 0.73845251938513611911 -0.00002546437786155565 
0.00000000000000006617 0.73229008239629911348 -0.00002266108164538179 
0.00000000000000003702 0.72675842686361347145 -0.00002000969028920200 
0.00000000000000006618 0.72188063440022554040 -0.00001750229937774882 
-0.00000000000000004087 0.71767360314821193601 -0.00001513139544233501 
-0.00000000000000001369 0.71414832293342800362 -0.00001288983787678794 
0.00000000000000006254 0.71131019416485230522 -0.00001077084161118380 
0.00000000000000011883 0.70915938125071564802 -0.00000876796052226638 
0.00000000000000000362 0.70769119197798557863 -0.00000687507154599380 
0.00000000000000002908 0.70689647502487262809 -0.00000508635947501631 
0.00000000000000011722 0.70676202852512826080 -0.00000339630240957614 
0.00000000000000006960 0.70727101335912556657 -0.00000179965783793879 
0.00000000000000006458 0.70840336559459093912 -0.00000029144932654694 
-0.00000000000000001538 0.71013620322706416665 0.00000000000000005442 
0.00000000000000000035 0.71244422306707499981 0.00000000000000005442 
0.00000000000000003748 0.71530008428043345692 -0.00000000000000005442 
0.00000000000000005134 0.71867477570476223647 0.00000000000000005442 
0.00000000000000002770 0.72253796463601083211 -0.00000000000000005442 
0.00000000000000000699 0.72685832530127003626 0.00000000000000005442 
-0.00000000000000002373 0.73160384570797887260 0.00000000000000010884 
-0.00000000000000001329 0.73674211198488315233 -0.00000000000000010884 
-0.00000000000000005581 0.74224056970791463250 0.00000000000000005442 
0.00000000000000013534 0.74806676203620159349 0.00000000000000000000 
-0.00000000000000006765 0.75418854477186370033 -0.00000000000000010884 
-0.00000000000000000898 0.76057427870459692887 0.00000000000000005442 
0.00000000000000002253 0.76719299981105792963 -0.00000000000000005442 
0.00000000000000012075 0.77401456805260293592 0.00000000000000010884 
-0.00000000000000001192 0.78100979565597872245 0.00000000000000000000 
-0.00000000000000001192 0.78815055587307170093 0.00000000000000000000 
-0.00000000000000001322 0.79540987330067891570 -0.00000000000000005442 
0.00000000000000007304 0.80276199688141958166 0.00000000000000005442 
-0.00000000000000000220 0.81018244005805117869 -0.00000000000000005442 
-0.00000000000000002936 0.81764777049503489792 0.00000000000000010884 
0.00000000000000009254 0.82513481745946504198 0.00000000000000000000 
0.00000000000000000455 0.83261946510777617991 0.00000000000000000000 
0.00000000000000006639 0.84007536648478853269 0.00000000000000010884 
0.00000000000000002625 0.84747280338027641822 0.00000000000000000000 
-0.00000000000000002721 0.85477782092381793255 -0.00000000000000005442 
0.00000000000000004802 0.86195169675742033810 0.00000000000000010884 
0.00000000000000001199 0.86895075662586418463 0.00000000000000000000 
-0.00000000000000007841 0.87572651629133357876 0.00000000000000005442 
0.00000000000000007522 0.88222610984435012593 0.00000000000000000000 
0.00000000000000006962 0.88839295360449188621 0.00000000000000000000 
0.00000000000000006643 0.89416759041080062786 0.00000000000000005442 
0.00000000000000006716 0.89948865926725551923 0.00000000000000005442 
0.00000000000000001064 0.90429393854745143688 0.00000000000000005442 
-0.00000000000000007982 0.90852141614272952097 0.00000000000000010884 
0.00000000000000007786 0.91211034620998510114 0.00000000000000000000 
0.00000000000000005191 0.91500225891409447954 0.00000000000000005442 
0.00000000000000005637 0.91714189631670051117 -0.00000000000000005442 
0.00000000000000003031 0.91847805402723525781 0.00000000000000000000 
-0.00000000000000004236 0.91896431419915303174 -0.00000000000000010884 
0.00000000000000013654 0.91855966080125883710 0.00000000000000005442 
0.00000000000000010486 0.91722897275836845488 -0.00000000000000005442 
-0.00000000000000004832 0.91494339451984385558 0.00000000000000005442 
0.00000000000000007900 0.91168058689326858524 -0.00000000000000005442 
-0.00000000000000003628 0.90742486361017538066 0.00000000000000000000 
0.00000000000000000534 0.90216722112225755659 0.00000000000000010884 
0.00000000000000001479 0.89590527061905422812 -0.00000000000000010884 
0.00000000000000013634 0.88864308227505750537 -0.00000000000000005442 
0.00000000000000004205 0.88039095233940178886 0.00000000000000005442 
0.00000000000000004161 0.87116510393704005288 0.00000000000000000000 
0.00000000000000002721 0.86098733241552483086 0.00000000000000005442 
0.00000000000000012064 0.84988460580077185291 -0.00000000000000010884 
0.00000000000000002428 0.83788863046802919410 0.00000000000000016326 
-0.00000000000000001226 0.82503539153500415892 -0.00000000000000005442 
-0.00000000000000007872 0.81136467678161983130 0.00000000000000005442 
0.00000000000000004226 0.79691959212886531727 0.00000000000000000000 
0.00000000000000001790 0.78174607589642575167 0.00000000000000010884 
0.00000000000000005730 0.76589241822929410297 -0.00000000000000005442 
0.00000000000000008163 0.74940879125723713905 0.00000000000000010884 
0.00000000000000010308 0.73234679474381514375 0.00000000000000000000 
-0.00000000000000006075 0.71475902120622047953 -0.00000000000000010884 
0.00000000000000006944 0.69669864375309986659 0.00000000000000010884 
-0.00000000000000003629 0.67821902920170118456 0.00000000000000005442 
0.00000000000000009347 0.65937337840289933499 0.00000000000000000000 
0.00000000000000006942 0.64021439512568700803 0.00000000000000000000 
0.00000000000000000326 0.62079398433287480419 0.00000000000000000000 
-0.00000000000000000919 0.60116298021690939279 0.00000000000000005442 
0.00000000000000007888 0.58137090395783574959 0.00000000000000016326 
0.00000000000000010917 0.56146575081255734041 0.00000000000000000000 
0.00000000000000005751 0.54149380584311479492 -0.00000000000000005442 
0.00000000000000014829 0.52149948733871742679 0.00000000000000005442 
0.00000000000000007851 0.50152521677835493197 0.00000000000000000000 
0.00000000000000018733 0.48161131401446605205 0.00000000000000005442 
0.00000000000000006984 0.46179591622970689313 0.00000000000000000000 
0.00000000000000009657 0.44211491912468364740 -0.00000000000000005442 
-0.00000000000000000053 0.42260193873100437845 -0.00000000000000005442 
0.00000000000000004857 0.40328829220764289554 0.00000000000000000000 
0.00000000000000014892 0.38420356896752072551 -0.00000000000000010884 
-0.00000000000000004730 0.36537472891318395485 0.00000000000000000000 
-0.00000000000000003689 0.34682536235965605309 0.00000000000000010884 
0.00000000000000007329 0.32857772510689103873 0.00000000000000000000 
-0.00000000000000003551 0.31065190532726388861 0.00000000000000000000 
0.00000000000000008495 0.29306588437092589983 0.00000000000000010884 
0.00000000000000006750 0.27583560566743781095 0.00000000000000000000 
0.00000000000000001312 0.25897505040711582547 0.00000000000000010884 
0.00000000000000008501 0.24249631876660743268 -0.00000000000000016326 
-0.00000000000000003615 0.22640971552709837633 0.00000000000000005442 
-0.00000000000000001322 0.21072383901890229252 0.00000000000000000000 
0.00000000000000003064 0.19544567241188851026 0.00000000000000000000 
0.00000000000000002721 0.18058067645626338371 -0.00000000000000005442 
0.00000000000000006678 0.16613288286181984721 0.00000000000000005442 
0.00000000000000001585 0.15210498758521662221 0.00000000000000005442 
-0.00000000000000000103 0.13849844337357070101 0.00000000000000000000 
0.00000000000000000247 0.12531355098819346727 0.00000000000000016326 
0.00000000000000005442 0.11254954860430999020 -0.00000000000000010884 
0.00000000000000001483 0.10020469895080810763 0.00000000000064689152 
0.00000000000000009516 0.08827637381828415397 0.00000000721345360247 
0.00000000000000003960 0.07676113562375101729 0.00000020716500383424 
-0.00000000000000004840 0.06565481577631381016 0.00000166731366145068 
0.00000000000000009890 0.05495258963986124345 0.00000750841022436375 
-0.00000000000000003836 0.04464904793643619668 0.00002420292732190729 
0.00000000000000007925 0.03473826447746612006 0.00006275356487294212 
0.00000000000000008427 0.02521386014960852462 0.00013960721612949926 
0.00000000000000006786 0.01606906311766575363 0.00027723368575064962 
0.00000000000000009034 0.00729676523905667569 0.00050435017637911561 
0.00000000000000015859 -0.00111042528718904355 0.00085580730699404031 
0.00000000000000008163 -0.00916013498881172207 0.00137217434921585901 
0.00000000000000003210 -0.01686017983601731732 0.00209907376235532678 
-0.00000000000000002111 -0.02421852351545424747 0.00308632056969118098 
0.00000000000000009790 -0.03124323915724660713 0.00438692267390591254 
0.00000000000000000000 -0.03794247439628068569 0.00605599542578127894 
0.00000000000000010657 -0.04432441963775637234 0.00814963883427531795 
0.00000000000000003968 -0.05039727938806166235 0.01072381963933516369 
0.00000000000000004972 -0.05616924650510127931 0.01383329372752720686 
0.00000000000000001415 -0.06164847921714895068 0.01753059753566739778 
0.00000000000000006245 -0.06684308075591036125 0.02186513049493802804 
0.00000000000000004538 -0.07176108144763138075 0.02688234444114188243 
0.00000000000000003293 -0.07641042310558102124 0.03262305039350810176 
0.00000000000000004370 -0.08079894556796769767 0.03912284825803129251 
0.00000000000000001032 -0.08493437522713059851 0.04641168086709491353 
0.00000000000000002503 -0.08882431539858123837 0.05451351031617608645 
-0.00000000000000005886 -0.09247623838201156354 0.06344611176792346041 
0.00000000000000011074 -0.09589747907062524945 0.07322097771527633081 
0.00000000000000014042 -0.09909522996997953415 0.08384332407050250346 
-0.00000000000000001272 -0.10207653749284184563 0.09531218831325195817 
0.00000000000000005442 -0.10484829940227390066 0.10762060922384041051 
0.00000000000000000424 -0.10741726328118592071 0.12075587738519084902 
0.00000000000000021346 -0.10979002591285232093 0.13469984559832554050 
-0.00000000000000004186 -0.11197303346330146623 0.14942928856642020974 
0.00000000000000004186 -0.11397258236300578105 0.16491630161049555814 
0.00000000000000005442 -0.11579482079185075827 0.18112872874035521042 
0.00000000000000016015 -0.11744575067791132583 0.19803061107729211243 
0.00000000000000005961 -0.11893123012704430452 0.21558264737554028168 
0.00000000000000009105 -0.12025697620669542620 0.23374265918761380489 
-0.00000000000000001350 -0.12142856801357998497 0.25246605403946581481 
0.00000000000000009735 -0.12245144996098125678 0.27170628080402564608 
0.00000000000000011110 -0.12333093522732163638 0.29141527226928720662 
0.00000000000000006306 -0.12407249745152912346 0.31154387067639988107 
0.00000000000000009324 -0.12468201407729449792 0.33204223274385663567 
0.00000000000000007564 -0.12516324448182955531 0.35286021138839379629 
-0.00000000000000006194 -0.12552101704887688727 0.37394771199630699732 
0.00000000000000010203 -0.12576004671805984803 0.39525502168732523645 
-0.00000000000000004909 -0.12588493848810972109 0.41673311054532319320 
0.00000000000000010553 -0.12590019081811665291 0.43833390426573992649 
0.00000000000000003129 -0.12581019890697908714 0.46001052808943260208 
0.00000000000000003920 -0.12561925783483127161 0.48171752225856045992 
0.00000000000000007723 -0.12533156555356841921 0.50341102954431637961 
0.00000000000000017155 -0.12495122571666411604 0.52504895566181009059 
0.00000000000000007428 -0.12448225034129059563 0.54659110360737139800 
0.00000000000000010829 -0.12392856229830320758 0.56799928313144854020 
0.00000000000000007519 -0.12329399762797865758 0.58923739669969765753 
0.00000000000000009319 -0.12258230768146431700 0.61027150339942215496 
0.00000000000000008308 -0.12179716108975392752 0.63106986232177642027 
0.00000000000000003661 -0.12094214556363638846 0.65160295699561165961 
0.00000000000000011442 -0.12001991490386325345 0.67184350246984969601 
0.00000000000000014026 -0.11903424821812144674 0.69176643664100267994 
0.00000000000000014490 -0.11798908159540930085 0.71134889474201556947 
0.00000000000000008155 -0.11688768980318450796 0.73057006530229429142 
0.00000000000000002285 -0.11573327357295963569 0.74941056144322948374 
0.00000000000000009263 -0.11452896051517294507 0.76785125909187001980 
0.00000000000000018648 -0.11327780591944643096 0.78587193572252123097 
0.00000000000000012026 -0.11198279345023474940 0.80344998181811067006 
0.00000000000000000801 -0.11064683574804645705 0.82055934887941750500 
0.00000000000000016968 -0.10927277494648826583 0.83716981865430517562 
0.00000000000000006290 -0.10786338311535870194 0.85324662246914362296 
0.00000000000000016819 -0.10642136263989686318 0.86875040168224226811 
0.00000000000000001810 -0.10494934654610953151 0.88363747599749453698 
0.00000000000000011152 -0.10344989878182878074 0.89786037222270642655 
0.00000000000000017293 -0.10192551446284277283 0.91136855930785121149 
0.00000000000000014284 -0.10037862009305968669 0.92410933402334372033 
0.00000000000000007478 -0.09881157376726072694 0.93602880378664388150 
0.00000000000000015784 -0.09722666536453336561 0.94707291765280232632 
0.00000000000000002643 -0.09562611674000671969 0.95718850256790477538 
0.00000000000000016445 -0.09401208192199517200 0.96632430249966938529 
0.00000000000000001174 -0.09238664732114229561 0.97443227266838228218 
0.00000000000000012047 -0.09075183195761657440 0.98146936809530638257 
0.00000000000000006453 -0.08910958771187724170 0.98739956183292065806 
0.00000000000000008741 -0.08746179960397643116 0.99219576482314009169 
-0.00000000000000000909 -0.08581028610583286975 0.99584143879786557463 
0.00000000000000007931 -0.08415679949037040142 0.99833178811535194797 
0.00000000000000012283 -0.08250302622089498994 0.99967448431124572572 
0.00000000000000004744 -0.08085058738356551422 0.99988992440277135731 
0.00000000000000010631 -0.07920103916532109101 0.99901105542312007568 
0.00000000000000012254 -0.07755587337914204848 0.99708281712683055620 
0.00000000000000003927 -0.07591651803806721832 0.99416126535604365522 
0.00000000000000008896 -0.07428433797893950474 0.99031244260924844447 
0.00000000000000007282 -0.07266063553644616646 0.98561106180247470832 
0.00000000000000002481 -0.07104665126761433580 0.98013906552736196343 
-0.00000000000000003177 -0.06944356472656068591 0.97398411741818424758 
0.00000000000000021507 -0.06785249528894118920 0.96723807539306583259 
0.00000000000000000332 -0.06627450302523459069 0.95999548916625843109 
0.00000000000000008472 -0.06471058962168876882 0.95235215699801467615 
0.00000000000000003910 -0.06316169934750241743 0.94440376947935400498 
0.00000000000000000271 -0.06162872006655431556 0.93624466145797358152 
0.00000000000000012616 -0.06011248429178905894 0.92796668713419427910 
0.00000000000000014891 -0.05861377028016211133 0.91965822796590768196 
0.00000000000000003893 -0.05713330316588211000 0.91140333834666720225 
0.00000000000000008968 -0.05567175612953641911 0.90328103005566462436 
0.00000000000000001696 -0.05422975160056655447 0.89536469319305189707 
0.00000000000000007756 -0.05280786249044809588 0.88772164866385305793 
0.00000000000000006944 -0.05140661345385642844 0.88041282520366781483 
0.00000000000000005974 -0.05002648217502759370 0.87349255238936729384 
-0.00000000000000000489 -0.04866790067648459756 0.86700845998595621467 
0.00000000000000007318 -0.04733125664727017706 0.86100147328542853131 
-0.00000000000000003899 -0.04601689478781835485 0.85550589373574981167 
0.00000000000000012390 -0.04472511816859926076 0.85054955408276367024 
0.00000000000000001038 -0.04345618959969526490 0.84615403740385564113 
0.00000000000000014358 -0.04221033300849532516 0.84233494975346678846 
0.00000000000000007958 -0.04098773482274388480 0.83910223662581018278 
0.00000000000000002194 -0.03978854535623259359 0.83646053403316711350 
0.00000000000000007346 -0.03861288019449149456 0.83440954566740577203 
0.00000000000000011748 -0.03746082157791377071 0.83294443833094122809 
0.00000000000000006109 -0.03633241977982896304 0.83205624856841708947 
0.00000000000000009258 -0.03522769447712848639 0.83173229418304517324 
0.00000000000000013503 -0.03414720911259749164 0.83195658506631564588 
0.00000000000000016172 -0.03309115667208756967 0.83271022849430054169 
0.00000000000000005235 -0.03205859307324676610 0.83397182473840936190 
0.00000000000000013749 -0.03104943320634633713 0.83571784949595051550 
-0.00000000000000005790 -0.03006356781793026456 0.83792302026098441914 
0.00000000000000010294 -0.02910086480257594033 0.84056064432530830377 
0.00000000000000000995 -0.02816117047293727541 0.84360294662095736129 
0.00000000000000009162 -0.02724431080657592832 0.84702137608862737572 
-0.00000000000000002855 -0.02635009266819853327 0.85078688968111559898 
0.00000000000000010842 -0.02547830500603657719 0.85487021348830238843 
0.00000000000000004078 -0.02462872002122205861 0.85924208080201502913 
0.00000000000000011812 -0.02380109430912286106 0.86387344722744852099 
-0.00000000000000006012 -0.02299516997171624152 0.86873568319518001957 
0.00000000000000007594 -0.02221067570019150811 0.87380074443691169161 
0.00000000000000003855 -0.02144732782707296781 0.87904132116178057554 
0.00000000000000005237 -0.02070483134726803023 0.88443096681134514281 
-0.00000000000000003312 -0.01998288090754113400 0.88994420738310209273 
0.00000000000000008468 -0.01928030713838214949 0.89555663239755656235 
0.00000000000000006566 -0.01859713531844599255 0.90124496862429470667 
-0.00000000000000001221 -0.01793361661478569749 0.90698712103399348194 
-0.00000000000000004377 -0.01728940945609535804 0.91276196338517623374 
0.00000000000000005996 -0.01666416659584493698 0.91854854653310291646 
-0.00000000000000011812 -0.01605753589686744268 0.92432489270279016846 
0.00000000000000000204 -0.01546916108388732974 0.93006671052858591597 
-0.00000000000000003430 -0.01489868246415242473 0.93574625600161021044 
0.00000000000000016308 -0.01434573761639721702 0.94133146820221835771 
0.00000000000000007682 -0.01380996204842810035 0.94678543965359518442 
-0.00000000000000006368 -0.01329098982367841325 0.95206623313326510516 
-0.00000000000000001740 -0.01278845415713761487 0.95712702484612244280 
0.00000000000000006685 -0.01230198798110804237 0.96191653402820820329 
0.00000000000000000545 -0.01183122448128830217 0.96637968817208430572 
-0.00000000000000004844 -0.01137579760372280958 0.97045846867122220747 
-0.00000000000000006643 -0.01093534253320114190 0.97409288184641507069 
0.00000000000000011696 -0.01050949614371764554 0.97722200355609756262 
-0.00000000000000002002 -0.01009789742163687450 0.97978505077265110046 
0.00000000000000005953 -0.00970018786223968664 0.98172244057465463118 
-0.00000000000000009290 -0.00931601184034092089 0.98297686521212601640 
0.00000000000000006783 -0.00894501695569875806 0.98349469180342186103 
-0.00000000000000011962 -0.00858685435394995755 0.98322782999074509469 
0.00000000000000011211 -0.00824117902381420186 0.98213575051416057704 
-0.00000000000000007149 -0.00790765007133284459 0.98018735085699282283 
0.00000000000000012408 -0.00758593097190642454 0.97736248176294482359 
-0.00000000000000008159 -0.00727568980090672560 0.97365303690384530366 
-0.00000000000000003741 -0.00697659944364094255 0.96906357116302277444 
0.00000000000000000823 -0.00668833778544775711 0.96361145661446434563 
0.00000000000000010722 -0.00641058788270360523 0.95732661392218731944 
-0.00000000000000003120 -0.00614303811551518159 0.95025087423535292697 
0.00000000000000003664 -0.00588538232286767420 0.94243703563409697566 
-0.00000000000000002362 -0.00563731992099784397 0.93394768109265213774 
0.00000000000000001151 -0.00539855600574180687 0.92485382357144607646 
-0.00000000000000008619 -0.00516880143961117797 0.91523343962273506769 
-0.00000000000000006773 -0.00494777292432901222 0.90516994686127627556 
-0.00000000000000000867 -0.00473519305955227843 0.89475067361585858272 
0.00000000000000000134 -0.00453079038848960749 0.88406536163320781352 
-0.00000000000000011305 -0.00433429943111315885 0.87320473528128983443 
0.00000000000000002179 -0.00414546070564343182 0.86225916359308862891 
-0.00000000000000014911 -0.00396402073897367865 0.85131743490251876594 
0.00000000000000005454 -0.00378973206668212518 0.84046565787217486498 
-0.00000000000000004773 -0.00362235322326380721 0.82978629746061194350 
-0.00000000000000000331 -0.00346164872319578614 0.81935734984428465477 
-0.00000000000000000696 -0.00330738903343000702 0.80925165648430497090 
-0.00000000000000000996 -0.00315935053789044096 0.79953635437730230517 
0.00000000000000002742 -0.00301731549453776492 0.79027245700495674097 
0.00000000000000000478 -0.00288107198553164221 0.78151455854152218627 
-0.00000000000000012046 -0.00275041386101937055 0.77331065243179197832 
0.00000000000000008131 -0.00262514067704587399 0.76570205445110550713 
-0.00000000000000004616 -0.00250505762807032122 0.75872341974292345501 
0.00000000000000007488 -0.00238997547455122722 0.75240284303971216584 
-0.00000000000000010685 -0.00227971046604113874 0.74676203125469542421 
0.00000000000000000631 -0.00217408426022018195 0.74181653783533085811 
-0.00000000000000015654 -0.00207292383827130128 0.73757604864886494589 
0.00000000000000008721 -0.00197606141698588233 0.73404470968578128254 
-0.00000000000000014330 -0.00188333435797068691 0.73122148748301007970 
0.00000000000000008938 -0.00179458507430535681 0.72910055385486138846 
-0.00000000000000000490 -0.00170966093498793668 0.72767168724965669568 
0.00000000000000012404 -0.00162841416748363667 0.72692068380199093003 
0.00000000000000005119 -0.00155070175867690757 0.72682977190625708275 
0.00000000000000001418 -0.00147695835595897497 0.72737802488174851945 
-0.00000000000000005932 -0.00140728059405100165 0.72854176702149786582 
0.00000000000000005691 -0.00134065904661686544 0.73029496900698065431 
-0.00000000000000005980 -0.00127697284542231540 0.73260962932205231368 
-0.00000000000000000877 -0.00121610515985635438 0.73545613890725436423 
0.00000000000000002875 -0.00115794310405535812 0.73880362685677014589 
0.00000000000000003011 -0.00110237764363719506 0.74262028547318570393 
0.00000000000000005461 -0.00104930350224375713 0.74687367345925670392 
-0.00000000000000000100 -0.00099861906807949589 0.75153099644158494197 
-0.00000000000000016378 -0.00095022630062182862 0.75655936438963811153 
0.00000000000000010159 -0.00090403063766480649 0.76192602581671220463 
-0.00000000000000003702 -0.00085994090284681154 0.76759857892947180869 
0.00000000000000007021 -0.00081786921380067610 0.77354516013220087078 
0.00000000000000000900 -0.00077773089105671964 0.77973461049358061548 
-0.00000000000000002224 -0.00073944436781308459 0.78613662095066794144 
0.00000000000000005100 -0.00070293110068260251 0.79272185715964782471 
0.00000000000000016201 -0.00066811548151564143 0.79946206500892003088 
0.00000000000000000503 -0.00063379170417742923 0.80633015788998041451 
0.00000000000000006277 -0.00060081059915305011 0.81330028670625242881 
-0.00000000000000003401 -0.00056939204395174301 0.82034785972749491023 
0.00000000000000009224 -0.00053946728013159551 0.82744923159419636605 
0.00000000000000009726 -0.00051097027037905565 0.83458080039155857488 
0.00000000000000006208 -0.00048383760823023379 0.84171776173646661867 
-0.00000000000000003971 -0.00045800842977933754 0.84883283782088392311 
0.00000000000000008445 -0.00043342432739904355 0.85589518479677428875 
-0.00000000000000008572 -0.00041002926548069566 0.86286959161419096720 
0.00000000000000012088 -0.00038776949820581069 0.86971601904477813250 
-0.00000000000000006877 -0.00036659348935287936 0.87638948319946896603 
0.00000000000000011947 -0.00034645183413751764 0.88284025862415349550 
-0.00000000000000008187 -0.00032729718308400813 0.88901435824163366206 
0.00000000000000016752 -0.00030908416791726212 0.89485423800521712856 
0.00000000000000011497 -0.00029176932946746540 0.90029967078615114051 
0.00000000000000009566 -0.00027531104756988464 0.90528873490360850518 
-0.00000000000000003214 -0.00025966947294467390 0.90975886641357284201 
0.00000000000000011293 -0.00024480646103515057 0.91364792975238307005 
-0.00000000000000000939 -0.00023068550778432807 0.91689528442858381219 
0.00000000000000014108 -0.00021727168732237016 0.91944303430993501447 
-0.00000000000000003074 -0.00020453159154136872 0.92123776709882509994 
0.00000000000000003737 -0.00019243327152805969 0.92223259780470845381 
-0.00000000000000001096 -0.00018094618082363634 0.92238916929250835963 
0.00000000000000005527 -0.00017004112048127983 0.92167937783094033843 
-0.00000000000000007417 -0.00015969018588952205 0.92008669231550677114 
0.00000000000000006814 -0.00014986671532415293 0.91760700866262978614 
-0.00000000000000006129 -0.00014054524019984518 0.91424903196652018700 
0.00000000000000007806 -0.00013170143698147319 0.91003421339565337966 
-0.00000000000000007086 -0.00012331208072243895 0.90499629050260799179 
0.00000000000000002596 -0.00011535500019280330 0.89918049183368031763 
0.00000000000000007134 -0.00010780903455913825 0.89264247198864610233 
0.00000000000000009204 -0.00010065399158158927 0.88544704358670500710 
-0.00000000000000009369 -0.00009387060728983195 0.87766676949009658770 
0.00000000000000010055 -0.00008744050709882212 0.86938047331274848073 
-0.00000000000000003857 -0.00008134616833094511 0.86067171960108679318 
0.00000000000000007159 -0.00007557088410275116 0.85162730779189521613 
0.00000000000000002369 -0.00007009872854326913 0.84233581661991319134 
0.00000000000000007424 -0.00006491452330432127 0.83288622841462656154 
0.00000000000000003888 -0.00006000380532601751 0.82336665592856861373 
0.00000000000000010400 -0.00005535279582434270 0.81386318812956948143 
-0.00000000000000005082 -0.00005094837046047686 0.80445886585228498777 
0.00000000000000015150 -0.00004677803065932736 0.79523279337672314604 
-0.00000000000000002730 -0.00004282987604105526 0.78625938788408977764 
-0.00000000000000002072 -0.00003909257793157190 0.77760776530856723365 
-0.00000000000000008408 -0.00003555535391693989 0.76934125831568966891 
0.00000000000000004934 -0.00003220794340974344 0.76151705994096885455 
0.00000000000000002008 -0.00002904058419272446 0.75418598475731202235 
0.00000000000000005857 -0.00002604398990911723 0.74739233824508000126 
-0.00000000000000003121 -0.00002320932846805859 0.74117388425291308440 
0.00000000000000010497 -0.00002052820133052936 0.73556190000143351071 
-0.00000000000000001837 -0.00001799262365258774 0.73058130793960629479 
0.00000000000000006213 -0.00001559500524784434 0.72625087386318198934 
-0.00000000000000005372 -0.00001332813234726865 0.72258346099919557037 
0.00000000000000005384 -0.00001118515012503816 0.71958633020783036027 
0.00000000000000005255 -0.00000915954596047399 0.71726147701585607486 
-0.00000000000000010095 -0.00000724513341598277 0.71560599684192471859 
-0.00000000000000014390 -0.00000543603689758036 0.71461247047538634103 
0.00000000000000006314 -0.00000372667697688415 0.71426936260337214879 
-0.00000000000000002016 -0.00000211175634879495 0.71456142692598667576 
0.00000000000000009056 -0.00000058624640048326 0.71547011214038513938 
-0.00000000000000001606 0.00000000000000010124 0.71697396379828504109 
0.00000000000000006524 0.00000000000000000501 0.71904901773787677222 
0.00000000000000011075 -0.00000000000000002414 0.72166918145239111748 
0.00000000000000006798 -0.00000000000000005460 0.72480660037810606955 
-0.00000000000000002546 0.00000000000000003736 0.72843200666050655911 
0.00000000000000002095 -0.00000000000000003508 0.73251504848632020828 
0.00000000000000001780 -0.00000000000000004657 0.73702459855021318358 
0.00000000000000013512 -0.00000000000000004754 0.74192904065803488844 
-0.00000000000000003299 0.00000000000000003647 0.74719653385448425720 
0.00000000000000007398 0.00000000000000012485 0.75279525380345857499 
0.00000000000000003607 -0.00000000000000000880 0.75869361144611235925 
0.00000000000000000000 0.00000000000000009877 0.76486044921721807466 
-0.00000000000000004254 0.00000000000000003001 0.77126521531740721560 
0.00000000000000009664 0.00000000000000004085 0.77787811672010021002 
0.00000000000000002543 -0.00000000000000002610 0.78467025174028859347 
0.00000000000000021021 0.00000000000000004603 0.79161372311077382591 
-0.00000000000000011067 0.00000000000000004122 0.79868173260280661552 
0.00000000000000006230 0.00000000000000006323 0.80584865829456109321 
0.00000000000000010970 -0.00000000000000009323 0.81309010842815998554 
0.00000000000000007950 0.00000000000000005036 0.82038279634709687649 
-0.00000000000000001958 0.00000000000000005114 0.82770386908185400454 
0.00000000000000011042 0.00000000000000001924 0.83502975553440073053 
0.00000000000000007977 -0.00000000000000004165 0.84233487610249402344 
0.00000000000000014004 -0.00000000000000008725 0.84959046187558029395 
0.00000000000000001672 0.00000000000000011367 0.85676362912176129427 
0.00000000000000003586 0.00000000000000008298 0.86381678083639124033 
0.00000000000000012572 -0.00000000000000009403 0.87070735535038834563 
0.00000000000000006937 0.00000000000000002297 0.87738790719795789474 
-0.00000000000000000559 0.00000000000000002951 0.88380648346587720177 
0.00000000000000014108 0.00000000000000001259 0.88990724639525076167 
0.00000000000000004214 -0.00000000000000002949 0.89563128748715314931 
0.00000000000000007522 -0.00000000000000005564 0.90091757774996461539 
-0.00000000000000004134 0.00000000000000009514 0.90570400145211826803 
0.00000000000000010436 0.00000000000000010958 0.90992842561288433956 
0.00000000000000000218 -0.00000000000000004231 0.91352976357475002001 
0.00000000000000006927 -0.00000000000000002554 0.91644899768809151563 
-0.00000000000000002134 -0.00000000000000000793 0.91863013292153761213 
0.00000000000000008161 -0.00000000000000001273 0.92002105975414272265 
-0.00000000000000002325 -0.00000000000000000903 0.92057431078473872521 
0.00000000000000005541 -0.00000000000000000569 0.92024770097201880059 
-0.00000000000000009411 0.00000000000000008625 0.91900484622289158043 
0.00000000000000010361 0.00000000000000000460 0.91681555915112233901 
0.00000000000000003069 -0.00000000000000010018 0.91365612424213216158 
0.00000000000000005948 0.00000000000000008505 0.90950945741595468075 
-0.00000000000000005666 0.00000000000000006132 0.90436515712719167670 
0.00000000000000007319 0.00000000000000010211 0.89821945573646122529 
0.00000000000000008154 0.00000000000000003817 0.89107508099494681097 
0.00000000000000009304 0.00000000000000004398 0.88294103816633950910 
0.00000000000000003995 0.00000000000000017438 0.87383232363138674259 
0.00000000000000004157 -0.00000000000000000978 0.86376958083917221298 
0.00000000000000002081 -0.00000000000000007071 0.85277870924162513244 
-0.00000000000000001942 -0.00000000000000002521 0.84089043642423200176 
-0.00000000000000002625 0.00000000000000002878 0.82813986307180820212 
0.00000000000000000535 0.00000000000000004228 0.81456598972348270848 
-0.00000000000000003737 -0.00000000000000002858 0.80021123351048195627 
0.00000000000000005045 0.00000000000000007567 0.78512094226357120874 
-0.00000000000000001582 0.00000000000000016275 0.76934291254908826474 
-0.00000000000000006276 0.00000000000000005893 0.75292691736410188863 
0.00000000000000004031 -0.00000000000000003792 0.73592424840902359584 
-0.00000000000000002565 0.00000000000000002721 0.71838727707328942085 
-0.00000000000000008301 0.00000000000000008408 0.70036903752663248746 
0.00000000000000001229 -0.00000000000000005427 0.68192283461244862508 
0.00000000000000003219 0.00000000000000001799 0.66310187859597435889 
-0.00000000000000000113 -0.00000000000000005854 0.64395894823162558307 
-0.00000000000000003046 0.00000000000000006892 0.62454608308242243186 
-0.00000000000000002250 0.00000000000000005148 0.60491430555015290871 
0.00000000000000017023 0.00000000000000002874 0.58511337265686447218 
0.00000000000000003170 -0.00000000000000007312 0.56519155725468606111 
-0.00000000000000015145 -0.00000000000000005156 0.54519545802937419143 
0.00000000000000010977 -0.00000000000000013605 0.52516983740045874995 
0.00000000000000001957 0.00000000000000011258 0.50515748620411504710 
0.00000000000000002418 -0.00000000000000008401 0.48519911387041120276 
-0.00000000000000002985 0.00000000000000007851 0.46533326267075819649 
-0.00000000000000002019 0.00000000000000002721 0.44559624451055829253 
-0.00000000000000000152 -0.00000000000000010848 0.42602209867258938880 
-0.00000000000000005313 -0.00000000000000002709 0.40664256887506694538 
-0.00000000000000010187 0.00000000000000007877 0.38748709799119279706 
0.00000000000000007717 0.00000000000000008400 0.36858341178257814086 
0.00000000000000002597 -0.00000000000000002218 0.34995662844517522183 
-0.00000000000000004039 -0.00000000000000017034 0.33162852857760344305 
-0.00000000000000012859 0.00000000000000011344 0.31361959907608527587 
-0.00000000000000001981 -0.00000000000000002007 0.29594820767133228623 
0.00000000000000002173 -0.00000000000000005657 0.27863067026651444635 
-0.00000000000000001400 0.00000000000000010165 0.26168132531591314915 
-0.00000000000000018276 0.00000000000000002701 0.24511261399237810332 
0.00000000000000001213 -0.00000000000000003385 0.22893516497509819319 
0.00000000000000005162 -0.00000000000000002243 0.21315788277431005349 
0.00000000000000002406 -0.00000000000000010634 0.19778803859524918263 
-0.00000000000000007415 0.00000000000000008594 0.18283136282887194057 
-0.00000000000000007248 -0.00000000000000003582 0.16829213834080622436 
0.00000000000000001997 0.00000000000000005442 0.15417329381188127346 
-0.00000000000000011664 0.00000000000000003154 0.14047649646288198899 
-0.00000000000000024124 0.00000000000000003148 0.12720224357235773716 
0.00000000000000004527 0.00000000000000002299 0.11434995226904978716 
0.00000000002093742959 0.00000000000000011073 0.10191804714946980925 
0.00000001685631395318 -0.00000000000000010667 0.08990404533617915583 
0.00000033634416391315 0.00000000000000002913 0.07830463865324464867 
0.00000233427611420214 0.00000000000000000028 0.06711577265211167431 
0.00000969889749939295 0.00000000000000005234 0.05633272227371598218 
0.00002972137212696689 -0.00000000000000016299 0.04595016398108418831 
0.00007443021656783221 0.00000000000000000377 0.03596224424101255451 
0.00016144193508557073 -0.00000000000000006180 0.02636264427375585237 
0.00031446908284991378 -0.00000000000000007973 0.01714464102613855179 
0.00056347493480092070 -0.00000000000000013593 0.00830116435624569243 
0.00094449581718032173 0.00000000000000005787 -0.00017514955295847305 
0.00149917193687751880 0.00000000000000008344 -0.00829190850794447702 
0.00227403836405611244 -0.00000000000000002542 -0.01605691828113874758 
0.00331963215799346888 0.00000000000000003057 -0.02347814016435743889 
0.00468947140132198233 0.00000000000000011209 -0.03056365199712713851 
0.00643895861026367970 0.00000000000000005267 -0.03732161255376494069 
0.00862425575052616980 -0.00000000000000005274 -0.04376022916143245539 
0.01130117176015166779 0.00000000000000002712 -0.04988772841198894914 
0.01452409668729535454 0.00000000000000007996 -0.05571232982313612664 
0.01834500974161501138 -0.00000000000000002717 -0.06124222229891662650 
0.02281258204362915029 0.00000000000000008463 -0.06648554323591814030 
0.02797138884160167011 -0.00000000000000005737 -0.07145036011937082321 
0.03386124057353271516 0.00000000000000005736 -0.07614465445256424214 
0.04051663744507816994 -0.00000000000000002717 -0.08057630786348556062 
0.04796634819026036889 -0.00000000000000016028 -0.08475309023415721066 
0.05623311036620655401 -0.00000000000000008574 -0.08868264970069937581 
0.06533344686927859690 0.00000000000000005302 -0.09237250437551873528 
0.07527759129697202123 -0.00000000000000002714 -0.09583003564712788691 
0.08606951325847171652 -0.00000000000000013467 -0.09906248291781220849 
0.09770703369347633060 0.00000000000000000264 -0.10207693964458119940 
0.11018201962978900477 0.00000000000000005568 -0.10488035055446863486 
0.12348064753289685058 -0.00000000000000008160 -0.10747950991121361930 
0.13758372441626151583 0.00000000000000002966 -0.10988106071655651119 
0.15246705613464728302 -0.00000000000000002721 -0.11209149473577165179 
0.16810185272481822927 0.00000000000000008276 -0.11411715324354901324 
0.18445516124400912483 0.00000000000000005671 -0.11596422839288911266 
0.20149031724759511319 -0.00000000000000008050 -0.11763876511621119969 
0.21916740680962573662 0.00000000000000002723 -0.11914666347438011840 
0.23744373179443925559 0.00000000000000002512 -0.12049368137575969251 
0.25627427191025775599 -0.00000000000000016316 -0.12168543759368187496 
0.27561213789652050377 -0.00000000000000005340 -0.12272741501684586440 
0.29540901099962829646 -0.00000000000000005440 -0.12362496407310291646 
0.31561556466403395405 0.00000000000000005249 -0.12438330627281109220 
0.33618186509758041236 0.00000000000000002907 -0.12500782596163947935 
0.35705774805455492427 -0.00000000000000002808 -0.12550431368906855845 
0.37819316981230016728 -0.00000000000000005265 -0.12587644433214770223 
0.39953853089448432279 0.00000000000000002976 -0.12612896413800075979 
0.42104497161493531499 0.00000000000000005276 -0.12626650822068644087 
0.44266463898029384527 0.00000000000000000001 -0.12629360399325564868 
0.46435092489864798759 0.00000000000000000077 -0.12621467448223752661 
0.48605867599661978229 0.00000000000000011032 -0.12603404150759067726 
0.50774437565163266228 -0.00000000000000002792 -0.12575592871454951971 
0.52936629910217880557 -0.00000000000000005235 -0.12538446444692355475 
0.55088464271019554896 0.00000000000000018912 -0.12492368445426833834 
0.57226162861956952899 0.00000000000000008290 -0.12437753442796588288 
0.59346158618695055154 0.00000000000000008163 -0.12374987236360759923 
0.61445101165907678453 -0.00000000000000007985 -0.12304447074920418781 
0.63519860763823354777 -0.00000000000000002665 -0.12226501858064409145 
0.65567530391777584242 -0.00000000000000005389 -0.12141512320749951737 
0.67585426128614944918 0.00000000000000005442 -0.12049831201374426592 
0.69571085989304670694 -0.00000000000000002625 -0.11951690089302263731 
0.71522266654121946505 0.00000000000000002722 -0.11847518253818103973 
0.73436922575518359668 0.00000000000000008333 -0.11737674016080185124 
0.75313130749474710424 0.00000000000000002761 -0.11622479098007584830 
0.77148967770907528330 0.00000000000000005367 -0.11502247862356805574 
0.78942373376634211724 -0.00000000000000010814 -0.11377287396203664138 
0.80691025303809915670 0.00000000000000000130 -0.11247897583755868400 
0.82392240046244458185 0.00000000000000013486 -0.11114371169509190684 
0.84042906692239394140 -0.00000000000000002748 -0.10976993812769308967 
0.85639455846841483488 -0.00000000000000002647 -0.10836044134560869623 
0.87177862158439489715 0.00000000000000013583 -0.10691793757935247333 
0.88653676769098177513 -0.00000000000000002721 -0.10544507342671931294 
0.90062084760448724019 0.00000000000000002688 -0.10394442615342394665 
0.91397982112873743521 -0.00000000000000002707 -0.10241850395676041496 
0.92656066632520750481 -0.00000000000000002710 -0.10086974620130957636 
0.93830937571708117328 0.00000000000000000009 -0.09930052363531385873 
0.94917199153864917349 -0.00000000000000002715 -0.09771313859590395612 
0.95909563826265731290 0.00000000000000010891 -0.09610982521087615971 
0.96802953400559155206 0.00000000000000008162 -0.09449274960422703040 
0.97592617126698544272 0.00000000000000018027 -0.09286401011213107903 
0.98274297832391033225 0.00000000000000011564 -0.09122563751551680811 
0.98844427851523908313 0.00000000000000005435 -0.08957959529485864936 
0.99300320354648774490 0.00000000000000010893 -0.08792777991225862733 
0.99640333138109016264 0.00000000000000010216 -0.08627202112535535539 
0.99863991961559861466 0.00000000000000006773 -0.08461408233705905446 
0.99972067764869820827 -0.00000000000000002329 -0.08295566098458523330 
0.99966607166265630813 0.00000000000000005442 -0.08129838897074991022 
0.99850919046602804041 0.00000000000000002018 -0.07964383313998082969 
0.99629522162456518597 0.00000000000000004737 -0.07799349580102370172 
0.99308059923967928473 0.00000000000000010176 -0.07634881529785136900 
0.98893188975631718396 -0.00000000000000000030 -0.07471116662984625401 
0.98392448228410933631 0.00000000000000010917 -0.07308186212189807240 
0.97814114664300344515 -0.00000000000000007518 -0.07146215214466405952 
0.97167051688537064980 0.00000000000000002079 -0.06985322588486540807 
0.96460555130107661359 0.00000000000000014924 -0.06825621216513767797 
0.95704201255114307312 0.00000000000000014878 -0.06667218031263431877 
0.94907700408814499315 0.00000000000000005580 -0.06510214107528047855 
0.94080759175316841514 0.00000000000000000729 -0.06354704758429831346 
0.93232953262405648953 0.00000000000000002721 -0.06200779636137955519 
0.92373612697617668577 0.00000000000000009685 -0.06048522836865508762 
0.91511720368796301006 0.00000000000000004592 -0.05898013009941138057 
0.90655824461342215947 0.00000000000000005502 -0.05749323470732877611 
0.89813964935127521549 0.00000000000000016882 -0.05602522317186790779 
0.88993613843912067196 0.00000000000000000552 -0.05457672549729269962 
0.88201629024738181784 0.00000000000000018233 -0.05314832194272076094 
0.87444220468772504429 0.00000000000000010134 -0.05174054428049625065 
0.86726928522386870224 0.00000000000000011027 -0.05035387708011966612 
0.86054612951683695510 0.00000000000000010053 -0.04898875901491532570 
0.85431451828951843197 0.00000000000000004685 -0.04764558418859376338 
0.84860949159694043509 0.00000000000000002043 -0.04632470347884299483 
0.84345950158250015960 0.00000000000000016922 -0.04502642589509653348 
0.83888663093436610652 0.00000000000000006886 -0.04375101994763072599 
0.83490686658307800005 -0.00000000000000003992 -0.04249871502518548505 
0.83153041865869170568 0.00000000000000006800 -0.04126970277833446471 
0.82876207531631485015 0.00000000000000010695 -0.04006413850589354841 
0.82660158471014599790 0.00000000000000012339 -0.03888214254171705464 
0.82504405612021980421 0.00000000000000000100 -0.03772380163930261210 
0.82408037298952041549 0.00000000000000013704 -0.03658917035171200399 
0.82369761139223030000 0.00000000000000010777 -0.03547827240440234314 
0.82387945821061403517 0.00000000000000008159 -0.03439110205865478220 
0.82460662403552342781 0.00000000000000010776 -0.03332848008902731390 
0.82585724651362579785 0.00000000000000017792 -0.03228999738224299504 
0.82760728053563237250 0.00000000000000005551 -0.03127498591208571765 
0.82983087228851082351 0.00000000000000016324 -0.03028333953107582854 
0.83250071477721010460 0.00000000000000003959 -0.02931492902023537239 
