1.309252 -2.055663 -1.886261 0.050178 0.219119 0.387790 2.323418 -1.043039 0.891917 3.066068 -1.253219 -2.368258 0.488172 1.570036 -0.785620 1.525919 -0.576243 1.636341 -5.339677 -1.101180 0.529034 1.550903 2.115823 -1.535119 -0.750046 -1.130735 -5.354371 3.382444 -0.363093 2.252066 -1.964407 -2.152942 0.804454 1.625042 -2.708794 -5.283925 1.137866 0.121090 -1.964682 2.552617 -3.317431 -0.151382 -4.350631 -1.060641 0.269253 -0.419099 -4.600899 -2.576402 -1.804112 0.952139 -3.048144 -0.275192 -0.557045 -0.290378 1.730461 1.618265 -0.710299 -1.574924 1.091384 2.535752 3.177469 2.039934 1.723194 1.852840 2.211002 2.062571 -1.911041 2.113967 -0.626639 1.055521 2.390483 -1.668228 -0.963557 -1.555739 0.635750 -1.522371 0.328102 1.510249 1.058733 2.711676 -0.712381 1.816270 1.804687 -2.246143 0.056447 -0.125502 -0.795053 2.924976 -1.501635 -2.532414 -1.087701 -0.543672 1.008968 2.064963 0.899034 0.817597 1.227048 -0.075361 -1.308029 0.939473 -3.371584 2.395195 -0.628835 2.899720 -1.413636 -1.822586 0.922366 -0.609300 0.641398 -1.464103 -1.657336 0.592737 0.551146 3.934706 -2.298253 -3.043664 -1.542098 0.705702 -2.107625 -1.942544 -2.018419 -1.400420 2.595584 -3.153260 1.474914 -0.579801 1.450873 -6.185765 -0.363731 4.336818 -2.734246 -4.108216 3.248082 0.037147 2.033879 -1.812594 -2.888045 -3.834332 1.050775 -0.155258 0.922541 1.774477 -1.806270 1.289890 -1.694215 -2.786243 -0.486428 -2.889107 0.513437 -0.121943 -0.305071 -1.551665 -0.318428 0.062235 0.104166 -0.456979 -0.646238 -0.804069 1.248919 0.854782 2.474826 0.063720 0.428997 2.328875 -0.056073 1.583183 -0.776519 -2.448318 -1.677021 2.283167 0.968002 0.414830 -1.483114 -0.450792 -1.771295 -1.023720 2.308588 -0.901838 0.685206 0.636566 -0.949193 1.562415 3.102740 1.879615 -0.522318 1.566819 -0.483706 -0.207272 3.308768 0.200485 3.390909 -1.040364 -3.756833 3.174533 0.299533 4.907217 4.662914 -0.280883 2.446618 -0.680748 0.135546 1.752918 -1.442909 0.006205 1.352003 -0.912333 -0.183164 -3.242057 1.663185 -0.925601 -2.838622 2.959735 1.723002 1.047275 1.289759 -0.228037 0.417509 -1.354551 -1.155008 2.166155 -2.827269 1.390725 4.568193 -0.127662 2.220743 -3.041189 1.932624 -0.641005 -0.980953 2.214762 -0.630313 -0.552472 2.018892 -3.607966 -0.328470 3.110837 -1.818794 -3.469291 -0.602615 -0.370124 -4.054918 2.372398 1.469559 -1.084159 -0.575484 2.048813 1.531968 -2.515621 0.145307 -1.714343 1.902638 -0.830647 -0.630905 -2.226580 -1.263951 0.889788 0.480628 -0.115825 -0.084190 -0.004061 0.293542 -1.440001 0.822473 -3.196779 -2.421556 1.589247 2.460513 1.282338 -0.624534 0.246594 -0.958977 1.267324 0.619944 -0.151847 -0.575764 3.174536 0.515874 -1.041365 1.435687 1.242506 -1.141940 -0.897158 -2.538926 -0.194104 2.971545 3.531119 0.625079 1.030475 -0.167833 0.545597 0.307482 -3.739605 -4.964768 1.331384 1.951708 -0.896477 1.313562 1.676752 1.850239 1.731523 -0.281627 -0.231134 -0.530262 -0.696059 -0.746843 8.022557 -0.016306 -1.233867 0.103174 -0.883959 -4.355020 1.791480 1.892349 -1.262551 2.384529 2.571631 2.548053 0.677007 -2.461779 -1.505365 0.118761 -0.808074 2.262448 -0.663770 -1.825207 -0.515746 1.997306 3.110419 1.767817 -2.449868 0.473749 0.525703 0.419334 -1.730388 2.184255 -2.271571 5.540765 -1.485764 -0.547596 1.669679 3.168951 -5.088806 -1.611064 2.168950 2.933707 -2.238110 2.431331 0.315843 0.696609 2.490113 1.978302 -0.645110 3.086036 -3.118349 1.722130 -0.773713 1.207601 -1.205466 -2.611044 3.592141 -1.103465 -0.920648 -2.075356 -1.387455 0.766722 0.094512 3.326330 0.503222 0.615621 1.253359 -2.196936 0.484518 -1.754359 1.753497 4.184135 -2.765602 0.487839 1.095715 6.455976 -2.698598 -1.765083 -4.417198 -1.332764 3.550479 -0.167541 -0.637349 0.148160 -0.942382 2.021457 -2.214830 1.886549 0.786369 -1.665289 0.815357 2.550001 -1.662411 2.758234 1.929552 1.556248 1.061210 -0.757968 -0.183085 -0.105462 -0.369715 1.332048 -1.256892 -0.760532 -2.028445 0.571533 2.086808 -0.648578 1.296811 -2.384572 -1.290752 -0.645071 -2.508139 1.421705 2.188937 -0.562471 3.631379 -0.528819 0.487057 0.735437 0.426741 1.792588 0.720478 2.109274 -3.485663 -2.020854 -0.914815 -0.975124 -1.372306 -5.046401 -1.913615 -1.340167 -4.793215 5.608658 1.702135 2.968353 -2.563405 1.018170 -2.045240 -3.461814 2.128152 -1.125624 -3.610340 -0.402663 -0.035037 -1.311197 2.579559 1.801171 4.838660 1.522269 -1.831238 -2.150401 0.553883 5.133661 -0.932875 -2.947454 -3.157486 -1.693755 -2.924788 6.246142 1.648943 -2.604223 0.680582 -1.867084 -0.852886 -2.660842 -4.432359 -0.070853 -6.424224 -1.108125 1.038804 0.420641 4.099067 1.416139 1.696291 2.052608 -1.966717 0.721446 -1.801201 -0.149348 -0.540130 2.716612 1.990126 -1.766083 -0.470162 -1.365591 2.384469 2.873195 1.197094 -2.591585 0.597736 -0.772460 -2.139409 -3.620653 2.389808 -0.925564 -1.073941 -2.295141 -0.935638 1.320589 -0.990990 -0.952591 2.930616 -1.878632 2.517239 -1.590731 -2.616761 1.998572 0.940825 2.021412 1.304445 0.999693 3.332377 0.804543 0.984626 -2.604206 3.326185 3.747690 0.213778 -3.166445 0.313708 -4.725864 -3.328142 -1.227412 -0.015204 -0.967264 0.925865 4.723798 0.561879 -0.671634 -4.746706 -3.145715 -2.850381 -1.751171 1.053647 -1.777077 -4.527340 -1.901265 2.825221 3.633865 1.827967 2.949772 -2.739641 0.609140 -2.565285 -0.321771 -4.398723 -0.553125 -0.853067 0.738945 -1.163973 -0.245988 2.063103 1.705367 -0.741489 -2.105599 1.977077 4.723293 -0.795296 -2.094258 6.260081 0.963923 -4.588171 0.759874 0.428282 1.488736 2.121279 -0.433905 -1.390295 -0.582593 0.025257 -0.061435 0.990482 0.297695 -3.419109 -0.286384 1.856713 1.093157 2.327122 -5.473649 2.028303 3.401914 1.718093 -0.431714 1.504436 -1.925611 -4.576563 -1.475764 -1.427192 1.359581 -3.329429 -2.397090 -0.894363 1.245513 -0.766872 1.055758 2.389518 -0.124478 1.854670 1.728699 3.102624 -2.940744 3.322789 0.732790 -1.705686 0.693684 -1.443998 -1.041493 0.993115 -3.266329 -3.763911 -2.815292 4.854305 2.781356 -2.158788 4.702503 0.545259 -0.837195 -1.793000 0.156838 -0.365416 0.354739 -1.869453 0.721983 -1.062917 -0.343270 -5.305033 1.543988 2.356585 2.509055 1.613757 1.642102 -1.364913 -0.133016 -1.770471 1.889791 -1.520622 1.751382 1.225000 -2.449437 -2.641348 -1.321474 0.598636 -0.331768 -1.150602 0.970131 -2.765055 2.077188 0.035993 -3.649385 1.153014 0.378268 1.634380 4.526884 -2.215926 4.686445 0.251211 2.153946 0.125362 3.069929 0.403722 1.752801 -2.147901 0.679805 0.508642 -3.361986 2.816101 5.221046 3.162790 0.981534 3.283026 1.688290 -2.042046 0.354612 -1.924140 3.095768 -2.059076 -1.632037 -3.914813 2.780666 0.268564 1.475958 2.758908 0.320877 -2.796981 4.056862 -0.771176 -0.736887 2.723297 -1.892340 -1.119192 1.140700 -0.993940 -0.490668 -4.236477 0.734947 0.342317 -0.442739 3.405810 -1.133112 -0.269198 0.487948 0.314867 2.038240 0.804914 -1.280921 -2.326597 -3.239819 -2.085737 1.559502 2.026774 -0.786924 -0.198635 -2.864245 0.477144 2.107695 0.780194 1.965307 -0.543210 -1.668953 -0.469507 -0.307370 -3.927608 2.055241 0.849711 0.235409 0.468266 -4.465671 1.237761 2.547387 1.017484 0.629554 2.012218 -1.524132 -2.281241 0.435290 -5.164191 -2.452132 -0.625984 0.533582 -1.587317 -1.077918 -1.685347 -2.467154 1.754299 -2.684684 1.127330 -1.241396 2.508188 0.428960 -1.393217 -2.039425 2.239587 -0.684075 -2.600666 -0.298708 1.507600 -4.453714 -2.879728 -3.643636 2.528532 -0.858714 0.595283 0.766397 0.821368 -2.306995 -2.883251 1.506678 5.673474 -2.490206 0.220781 -0.986324 1.682921 -3.957679 2.235678 -2.294555 -0.485457 -0.592272 -0.437167 -1.857661 0.544729 0.278772 -1.482857 0.431491 2.111522 1.295762 6.282184 0.913115 1.394473 -0.058518 -3.308781 -0.381700 2.256227 -1.275157 0.516134 -1.467462 -0.212477 3.906052 2.547354 0.108360 3.760737 0.940942 -0.655888 -2.048977 3.863234 -1.215216 0.349050 -1.503114 -2.633031 -3.335291 -0.782110 2.577232 -0.641954 -4.336960 -2.289748 -1.280072 -2.743864 1.041255 3.576378 3.857782 -0.607143 4.204386 2.321372 -1.495277 -2.647601 -0.475203 -6.421021 1.651508 -1.531666 2.204956 3.528242 -2.405036 -1.965224 -0.791475 -2.620460 -2.400920 -1.380962 3.740127 0.390842 2.379783 -0.664918 2.289308 0.351021 -1.832678 3.705663 -3.573459 2.469841 -3.480520 2.884034 -2.773503 -0.518277 -0.011241 3.037808 5.337432 1.901869 0.023448 -0.499331 -1.703074 0.755698 1.255078 -5.379604 -4.129444 4.138447 -0.866543 -0.648125 3.325380 -0.861404 -1.840439 4.013888 0.915545 0.397729 3.429727 4.406729 -3.543835 4.987459 2.134358 -2.086344 2.028830 -2.469786 0.159036 -0.244584 -0.740119 1.714929 0.704067 0.814923 -4.245636 -2.823877 -1.754211 3.237404 3.114583 -0.184306 2.298848 -0.892480 0.300183 -1.084547 3.952526 -3.196857 4.120623 2.910650 -1.311528 3.580908 4.733389 1.880709 -3.684239 2.709888 2.219160 0.696575 3.857469 2.824917 0.794821 3.056522 -2.588040 -2.921893 1.140115 -3.590638 -1.332472 0.218361 -0.015175 -1.224487 -2.329125 -2.607572 -1.652353 -0.031515 1.207701 3.827276 2.686182 0.877328 1.897114 -1.303962 -2.259545 1.636847 0.111866 1.088653 0.430953 -2.824539 -0.936806 1.487042 -0.769523 -4.370026 3.595113 2.255505 1.337252 -2.147311 -0.686872 2.065931 -4.214612 -3.231600 -0.767281 2.026499 2.818620 -5.250023 0.916419 -0.324361 -0.301784 -1.945418 -0.275512 1.348293 4.037945 1.054038 1.595654 0.046380 2.497703 -3.395673 2.690533 1.404685 2.090956 6.793375 -1.992251 -2.041296 -0.329649 1.376803 0.680767 2.685630 -0.105284 2.047686 2.011663 -2.976540 2.072176 -0.439905 -0.830469 -2.597940 2.949825 0.476174 -1.549504 -0.517096 0.236415 -1.570228 4.064932 0.744173 -1.196494 2.964172 0.734586 1.027036 -6.187919 -0.729462 1.283536 1.451020 2.537911 -1.676312 3.192033 -5.617838 5.235514 2.235647 0.458912 0.576267 2.104661 0.442533 -1.065463 1.059178 -2.329065 -2.303925 -1.709755 0.148052 1.667397 -6.230183 -0.283032 0.253079 -0.218717 -3.619997 0.684218 0.686169 0.171069 1.888377 -1.688782 0.860736 -0.908704 -2.548306 -3.410859 -4.850307 -0.196954 -2.614869 1.056003 0.960759 4.300360 2.108494 0.318686 1.190677 -4.189861 2.057866 0.852126 6.558528 1.014944 -0.858607 1.117347 -0.288724 -3.597369 -1.133593 -0.145843 2.732139 -0.643722 3.606508 -3.477582 1.882133 1.909461 -2.573411 1.485217 2.204014 -0.452644 1.822247 -0.424174 0.711745 -4.765186 0.068837 0.018325 0.754036 0.201012 0.265690 0.824443 -0.624937 -0.146852 -1.552415 -1.560637 2.171412 0.971735 0.625433 6.130375 -3.996741 1.632704 -1.882087 0.204167 -1.864060 -0.694322 1.334844 -2.772441 -0.133091 -2.763725 -0.300839 -0.068933 -0.756589 1.312221 2.465302 -1.622239 3.073557 -1.139323 1.352627 -2.638948 -0.406991 -0.279775 0.924553 2.256605 -0.013503 -1.433956 1.519560 -2.431382 3.655409 0.236750 5.206273 0.356411 -1.234587 0.299627 2.116703 -2.330112 -3.739223 0.447910 1.885876 -2.865324 0.010193 -3.012814 3.544641 2.209040 -2.220963 0.784482 2.283385 -1.826223 -1.124830 0.795787 2.474007 4.731880 -2.080652 1.240741 -1.996587 0.377373 -1.478763 3.466750 -4.920641 -0.078632 0.219303 -3.256993 -0.393502 4.821817 -0.336951 5.274119 -1.529419 -1.604781 -0.587043 -0.860898 -0.738822 0.304522 1.452755 -0.316911 1.671218 2.034996 3.653082 4.548705 3.308660 -5.961213 -3.618041 -0.692530 -3.071241 0.214876 -0.657890 -0.284892 -1.384019 -2.258603 2.984911 -3.521061 2.467538 -0.112824 1.320251 -0.411177 -1.962334 -0.643554 1.266469 2.132736 -0.250382 1.428771 3.388538 -0.926209 8.694717 -0.793131 1.635074 1.723425 -2.485561 0.519275 1.375080 -1.141487 2.963841 -0.188176 -0.920992 -2.015227 3.973300 1.060261 -3.295540 -0.301150 -1.613382 -1.306513 2.333806 1.358554 -4.038518 -2.675154 -1.365964 -2.764411 -0.941698 -1.187829 -2.696707 -3.715372 -2.479080 2.098833 -2.572931 -0.253582 -1.632534 -2.897139 -1.860330 0.134813 1.636950 2.535508 -1.865228 -3.947679 1.295290 -0.995508 2.246265 1.043879 -4.709485 -2.650236 7.054093 2.884574 -5.231182 -3.217310 -3.180625 0.843824 1.057352 -1.689935 -0.851713 -0.553219 -3.355485 5.163546 -2.179626 0.070639 0.129613 -1.873958 4.359181 -0.898425 2.965558 -2.633873 1.438015 -1.846683 1.604442 2.795372 -1.950739 -1.240023 1.439242 2.600208 1.883574 -0.775939 -1.599647 -2.705335 1.415198 -1.198823 2.083995 -2.193979 0.370248 -2.723741 -5.422268 3.396112 -1.930234 -3.946108 0.994418 -1.264567 -4.078732 -1.283146 -0.831331 -0.777537 0.344475 0.288522 -3.029237 -3.815223 1.085985 -1.323340 3.562499 -3.104484 -0.164949 -3.088819 1.210601 -2.680280 2.748580 1.628224 -0.795676 -2.021171 0.942723 4.189404 -1.017082 0.709249 -2.478643 -0.100464 -0.140861 1.095024 0.706085 2.016600 -0.190301 -1.424851 -4.309258 2.371816 0.945392 1.563197 -4.275916 1.019109 1.187828 2.210645 -0.277612 -1.831056 -2.840913 1.449832 0.410877 5.264494 -0.113277 -1.338416 1.749898 1.376313 -2.725547 3.096304 5.275669 -3.617169 -2.368235 0.956139 2.480448 2.743533 -2.117005 -2.430880 -1.444270 0.374600 1.838102 0.648407 2.240869 -1.597908 -0.682004 0.012715 -1.988378 -3.494720 -4.765768 1.588898 -1.276349 3.860936 -0.404903 2.006629 -1.239592 2.828904 0.356603 -2.025454 3.688436 -1.185272 0.733248 4.407684 1.227179 -0.260633 -3.662678 3.231286 -3.351326 0.137674 -3.370304 0.878543 4.093931 2.475272 -2.953152 0.582561 0.682805 -1.374264 1.797238 1.021500 -2.956256 1.568613 1.223142 -0.587212 -0.556218 1.407841 2.955778 -0.189235 0.013622 4.204634 -4.262569 2.462643 -1.754620 -1.506734 2.375044 2.763885 -1.282264 -0.641547 1.732150 -1.784611 -1.844687 5.746931 -1.637922 -1.320260 -0.554625 -3.412652 4.724984 4.125657 1.071039 1.388289 1.364264 -1.492530 -1.137066 2.364930 -0.431889 -2.841307 3.385686 -2.617277 5.420420 -1.491317 -0.643334 3.726463 1.998660 -0.128576 -1.758550 2.470563 3.889471 0.071284 0.587751 2.747578 2.073857 1.442742 1.195635 -2.286359 -1.554141 2.250298 1.192726 -3.003841 -1.919464 0.916114 0.540675 -1.780070 -2.804736 3.633684 0.395631 0.054727 -1.197133 -0.445423 1.614761 4.220022 -0.672266 -1.845281 -0.915711 -0.360469 -0.615425 -0.896226 1.034815 -1.088420 -0.813151 3.446337 -2.796390 -0.034052 0.115821 -0.069930 -1.911706 -3.435221 -2.070650 -1.696920 -0.075226 -3.638822 0.880277 -4.528469 -4.943381 0.264277 3.119625 3.403681 2.206486 -2.956847 1.085288 -2.639709 -2.049862 -1.994755 -0.643981 -0.938875 -0.976071 1.405348 -0.232494 -1.779474 -0.852535 -2.483881 -2.051746 -2.039261 -0.081086 -2.079560 0.142842 0.367709 0.400814 -1.346016 -0.800397 -2.274728 -1.873131 3.540795 0.259642 -1.748093 -0.720301 3.400220 -2.897091 -0.541783 -0.244404 -2.205459 -0.239629 1.307153 -0.823560 -0.536198 1.389653 4.910372 -2.125871 2.258833 2.086325 -0.471141 1.414734 -2.645558 -1.687228 3.830782 0.152073 2.076302 -0.281937 -3.192680 0.121812 -0.419495 -2.392303 1.407319 -1.355883 2.773618 0.177607 0.430965 -2.542350 1.684808 -0.726059 0.769025 1.977353 -0.416212 -0.067210 -3.262462 1.451530 -0.877117 0.377448 2.028331 -0.586812 -0.074670 0.270436 -3.211828 1.411758 -3.167902 -2.459285 -3.734478 0.489789 1.952689 2.612108 -1.425786 -0.176364 3.842534 -0.871461 -0.802090 1.229681 0.520364 1.912599 1.090399 -0.521971 1.777533 1.138220 0.955505 -1.156729 2.667413 0.104386 1.620189 -2.236473 -1.326936 2.710598 -0.378297 -0.402008 1.642729 -0.630435 1.622637 -2.518865 -1.459478 0.765473 -1.912895 -3.185876 1.167906 0.599662 0.352934 -1.520859 1.225437 2.849363 -1.887082 0.673052 -1.108009 0.763337 -1.370893 2.291671 1.768471 -0.725677 -0.117038 -1.449900 -2.770676 -0.359762 0.876683 2.038305 1.108270 -4.126411 5.045884 -1.715868 0.419754 -1.347352 0.436067 0.361633 1.426396 -0.565044 0.053467 -1.791386 6.138250 -4.930340 1.946557 -1.958109 -1.599951 2.482173 1.064038 -0.773403 1.469542 -0.754205 -3.355026 -0.899499 0.975884 -1.625623 0.148712 5.472653 -3.010078 1.868801 -1.665085 2.606035 -1.983921 -0.282110 3.667217 3.794220 2.629145 0.924755 -2.181351 0.983987 0.192764 3.178950 3.405198 -3.123071 -1.366077 -0.392926 -0.313994 2.986942 1.391623 2.898180 0.553267 0.920347 3.259274 2.195497 5.065451 -0.012550 2.014469 -1.590421 -1.067951 -2.357969 3.106157 -0.065014 1.433122 -2.175086 0.942404 2.787835 -1.772874 -2.839612 -5.364925 1.262494 2.059032 2.317015 -5.000990 2.594483 0.663009 -1.429430 -0.905035 -2.528888 -5.474362 2.803283 1.298423 -0.857866 -3.950213 3.297998 -2.667498 -0.519131 -2.099936 -5.137609 -2.102701 1.422898 0.644836 -1.362498 1.006442 -1.995820 -3.027436 -3.866451 0.502742 1.307269 3.550212 0.876547 -0.337935 -2.822943 3.857299 0.560807 -3.805592 -2.757021 -0.327694 -0.638201 -2.634910 -3.506212 1.428027 -1.291128 -2.840680 -1.738872 -1.292849 0.600974 1.731358 2.923223 -1.186867 3.084252 2.621893 1.868523 -0.339768 3.348199 2.348193 -2.186019 0.488073 2.344949 1.272465 -1.040098 1.216769 -0.574552 -0.591027 1.317026 0.856563 -1.277682 2.659480 0.185162 -1.460177 -0.883415 -0.569332 -0.557814 0.878846 0.432371 4.005138 1.029483 -0.530483 2.103830 -0.253917 -2.012009 3.677420 0.324295 1.942251 1.458600 -0.291546 3.995601 -2.708601 1.920996 -0.406294 -0.815830 1.416062 -2.941064 0.051960 -3.479914 -2.655253 1.817093 -1.320487 2.671506 3.681807 -0.685992 2.235679 -1.715996 -2.600634 -2.009712 -0.494532 -0.797971 -2.940692 -0.124735 2.054734 1.359832 3.013630 0.670698 -0.828147 -2.078484 2.007158 1.004408 -1.676108 -1.063009 -2.248104 -1.466898 2.342456 -2.298125 2.010792 -0.382608 -0.110160 -1.402399 -1.102218 -2.407758 4.964028 -0.648301 -0.350160 -1.483682 -2.452651 0.259307 -0.463159 2.772278 -3.513618 2.864654 -0.954348 1.055344 -0.690720 -0.708327 1.399180 0.558978 -1.520550 1.070381 -2.913090 3.489512 -1.389581 0.672269 2.548592 -1.998691 -0.936727 2.969511 1.763873 1.216617 -0.973431 -0.055779 -3.400081 0.909995 0.359565 -0.326572 -2.050209 -1.231782 1.228118 -1.086877 -2.651610 0.122734 -3.757913 -4.523866 0.196927 1.382978 2.323508 -1.959377 1.161022 -0.253667 -5.613037 -2.016687 1.487867 -1.777832 -1.675565 -1.025469 1.568949 1.128619 2.506782 0.313775 0.358245 -1.379685 -4.482411 -1.486018 0.080352 -4.296349 3.881015 -1.028210 -0.397031 0.344407 -3.232050 -0.141650 1.002064 3.566736 2.398880 -0.162808 -0.816774 1.712161 -0.701101 -0.833605 -4.516396 0.114569 -0.334996 1.016249 2.602084 -1.537390 3.081486 0.690462 0.405971 0.515728 1.696172 1.170244 -1.157485 -0.627049 1.595443 2.546780 1.633557 4.785722 0.138889 -1.194531 -0.277306 1.413864 -3.035216 -0.850489 2.778447 3.422270 0.617995 1.137999 -0.153946 0.177546 -1.884553 5.464450 -0.316578 1.352594 -0.206209 -1.493851 -2.348967 -1.939684 -1.775238 -0.008076 -0.678852 -0.310511 7.118375 -0.160002 2.274452 -1.114827 -0.595012 -2.125991 -0.543598 -4.316745 1.920376 -0.851218 -0.474235 0.097058 2.106621 -0.093651 -3.571685 -0.551297 3.082841 -0.444448 1.400980 -2.247357 2.485891 0.062696 -0.165930 0.167694 -1.893176 0.453100 1.940421 2.808658 -3.119904 1.749378 -0.102944 -0.287859 -0.243729 -2.178607 -1.442401 0.549222 1.805557 1.341390 0.958694 -4.050952 -0.494860 -0.412687 0.839582 1.889764 -0.747095 1.760002 -1.861687 2.551188 -3.339270 0.931623 0.569961 -0.157067 1.785870 -0.456862 -3.492767 3.398881 5.406616 1.748156 -2.113737 2.950923 0.710359 0.238333 1.847863 2.972145 -1.566395 0.899012 2.799146 0.262810 0.159090 -3.212595 -0.212906 -0.361666 -4.395125 -4.648233 1.932329 0.796647 -1.485056 -0.661667 3.719224 -0.854895 -2.291830 2.351401 -0.312014 -0.611998 -0.445771 -3.740677 -2.314226 -1.978392 3.606873 0.299955 1.780483 -1.526824 3.074866 0.641324 -3.234826 -0.283000 -4.055729 -1.513742 2.150019 -4.524692 0.893853 -1.123719 1.078655 -0.766208 -0.842967 -1.962997 0.186989 1.540593 -0.868465 2.898648 -3.083863 -1.844114 0.819775 -0.041759 -0.251730 1.270034 -0.842231 -0.215640 3.409671 0.623631 0.486457 -1.281779 4.577280 -0.518520 -4.123805 -2.306898 -3.548089 -6.522261 0.194910 -0.738289 -0.883857 -0.577651 0.099917 -4.617589 2.223027 -2.391713 3.238955 0.022215 3.407422 -0.579551 -3.664398 1.630873 2.551761 4.406294 1.084227 -0.791579 5.832507 3.948567 -0.731849 3.544916 2.388910 3.382406 0.440878 2.285143 0.286734 0.060527 -1.612882 -2.894793 -0.450895 -4.313590 0.231575 -8.854679 2.638177 -0.087401 0.967172 4.726826 1.565399 1.961444 -3.277333 6.761233 2.891715 -0.805283 -1.676155 2.592326 7.152748 0.880256 2.703369 2.896518 -3.151949 1.898798 9.814755 -4.557119 0.719360 -0.664298 1.538654 1.023652 3.568423 -0.649252 1.554374 4.848144 3.722177 -0.828543 3.564210 0.990149 -1.049164 2.834115 5.363189 -1.738306 -2.550845 2.529168 5.352135 3.150726 -6.551531 3.684280 -0.760454 -4.602061 0.643868 -5.373249 -1.958559 0.089847 -3.888958 -2.064121 -1.636379 -2.712827 -3.555853 0.766983 -1.334323 0.641328 -6.526541 -5.734535 1.596026 -3.456828 2.444911 1.452593 -0.651072 2.373483 0.102031 -1.097821 -5.997132 -0.962738 -4.647735 -4.208646 -4.987302 -5.545343 -5.640984 -0.701489 0.799256 -3.247419 -2.052131 0.877228 -1.190588 2.643594 -0.221250 -0.080822 3.682057 0.557710 -2.792842 0.131080 -1.907270 -3.349148 0.708309 -3.594363 -0.803295 -2.483632 -0.036616 0.121215 4.963200 3.451837 0.849852 -0.448368 0.312908 1.937072 2.541736 -2.357618 2.069635 1.380318 -4.359752 0.985433 0.461342 -0.093115 5.044366 -0.401263 2.198570 -1.576410 -2.637948 3.860354 3.377432 -1.673305 -0.771111 1.566229 1.397133 2.481919 1.672334 -2.129950 0.575877 -1.410590 -1.083911 2.541763 2.941049 0.315507 -2.876236 -3.035563 0.017304 1.007637 -3.631730 -4.422290 0.577881 5.398973 1.601938 -0.268505 2.614627 2.278098 3.361980 2.262152 1.602829 -2.232597 -1.453048 -0.875238 -4.594406 -0.051646 -4.092546 5.665393 2.021957 1.389057 -3.002422 0.244657 0.544690 -0.394968 0.895216 2.135844 -5.766623 3.740001 -0.863951 -0.692239 -3.862670 -1.246815 -0.793535 0.391707 0.001408 2.012039 -2.065906 -0.882777 1.431354 0.739519 1.941101 -0.595460 -0.237546 -1.570475 0.580893 2.152387 2.784192 3.640418 -0.712162 0.179324 -2.833434 1.437021 0.568585 -2.270343 -1.540824 0.657798 2.215649 -1.965311 2.371112 3.795013 2.357924 0.197256 0.543865 -0.981838 0.938795 -1.549297 2.263450 -0.468811 -0.439280 0.150591 0.213344 -3.279412 -2.258740 5.260788 3.068088 5.318759 -0.858530 2.206785 -1.003687 2.604853 -3.644187 0.379012 -0.108373 -0.557685 -2.033154 -1.069918 -4.094204 0.766103 1.745466 0.857356 -1.174173 -0.372823 0.251653 1.991732 2.883916 -1.570542 0.873754 2.640307 -1.809533 -1.007231 -0.675664 -0.661339 1.023881 0.302676 -1.344550 1.088029 -0.936531 -4.004458 -0.932311 -1.038817 2.287127 -2.378645 -1.583951 -2.209183 0.118609 3.520532 -1.544167 0.754957 2.683866 3.490906 1.044079 -0.854722 3.503838 2.273538 1.188766 1.119786 0.838600 -2.728455 -0.081354 1.605998 -1.121807 2.548476 1.783596 -0.326288 -1.391626 1.027755 0.789864 1.828880 2.783933 -1.492883 -0.612921 -1.771447 -1.271285 2.449364 -0.839392 1.122140 -2.500216 -1.480231 -0.514733 -6.108263 -0.776018 0.647907 1.351538 2.823849 2.133402 -4.558579 -2.289108 0.294357 1.233223 -0.137125 1.212950 2.943564 -2.802104 0.560805 0.953305 -3.291884 -0.696372 0.734250 1.923808 -2.259944 -6.585525 -0.153137 3.015803 -5.869420 -0.500510 -5.697109 3.039361 -3.358216 -1.000708 1.751476 -2.850290 5.443881 0.305328 -3.361379 0.433725 1.516183 1.030329 2.036972 1.347131 -2.021118 -1.132992 3.013033 0.000989 -2.106063 -1.401372 0.854314 -3.117631 6.521522 -2.669625 1.841839 -3.418402 6.437827 1.147654 0.178838 -0.929993 -0.480175 -0.351700 -0.429581 1.028487 -2.819354 -3.959488 -2.355102 1.554760 0.618962 0.024557 0.340352 2.421115 -1.577350 1.003104 0.781592 -1.567684 -4.750594 1.887186 -2.609355 1.310983 0.857474 -2.920212 -3.168277 -0.385037 -0.530400 4.438292 -1.120033 -0.364466 -1.338798 -2.502375 -3.291870 -2.896526 -0.988781 2.133331 0.901848 2.821719 -2.624100 2.592822 0.398428 -1.885570 -3.164679 0.773466 0.034386 3.138106 0.421782 -4.361726 -0.476820 -0.310429 -2.539049 -0.468527 0.783549 2.214318 -0.186978 -1.339799 -1.897204 3.957838 3.976723 -2.989685 0.129948 0.434619 2.004521 -0.472255 1.271940 2.894835 -0.006321 2.062093 -1.692744 0.703746 -3.033513 0.999084 0.497479 -3.790784 2.946783 0.209763 -3.406148 3.506670 -1.442929 0.896240 2.266752 1.320459 -0.344900 -2.033764 -2.793977 -0.200410 -0.993550 -1.155337 -2.816281 1.592676 1.155849 4.338585 -0.235090 3.862943 -0.370366 1.606399 1.291092 0.510659 -5.041458 0.015896 -0.312220 -0.696301 2.804632 0.169672 -1.221451 1.477053 -0.685966 -0.332633 -2.403382 1.620631 -0.898005 0.798614 2.616742 -1.605226 1.124827 -4.299057 -1.197434 0.681385 -4.084978 0.674414 1.933892 -0.486526 2.037510 -0.107371 4.034765 -0.759602 -2.350913 -4.742952 1.564445 3.908570 10.768399 0.479134 -1.714850 -1.051991 3.332204 -1.869658 -0.607345 0.625425 -3.497790 3.022467 -1.014556 1.405931 1.403541 0.729146 -2.571794 1.665540 2.762797 1.684950 1.150763 4.869598 -1.524319 -2.292368 -1.237910 0.565272 3.136322 -2.104904 0.613157 -2.498086 3.782643 1.120298 0.477321 -4.592797 -1.364341 0.727344 5.135045 3.108453 -2.794219 -0.881111 0.154712 5.223285 -3.941280 2.230223 1.741003 0.881707 -0.527240 1.710730 -3.800995 2.630885 4.896994 -3.953907 2.958170 2.349479 -3.503605 -0.065662 -2.145037 0.241884 1.278852 0.326121 0.826743 0.753584 4.582062 -1.707229 0.830678 -2.644521 -2.122672 1.854715 0.480603 0.259790 2.221894 0.146443 -0.834901 -0.289924 -0.130457 -2.170356 -1.951244 -1.547696 4.046077 -0.964508 -2.059953 -0.606812 1.489192 -2.587809 -2.011786 2.041620 1.050511 -1.199968 1.476472 3.240481 -1.068067 -2.230873 0.596065 3.678958 3.742958 -2.744095 0.714951 -0.684719 1.302756 2.639749 -0.349000 1.714855 1.348350 -0.504004 -1.496391 0.745853 -4.882977 -0.162095 3.008621 -0.181083 0.145139 -1.117625 -0.050843 1.998267 1.005078 0.760209 -3.099864 3.371888 0.689898 -3.158659 1.822598 -4.194781 0.625520 5.496228 -0.256974 0.480424 2.541481 -2.894623 -3.264793 2.736685 4.838847 0.813158 -2.795947 -0.725597 1.872357 -0.719238 -2.408349 1.667003 0.657594 -3.216884 1.792561 1.496084 -2.487417 2.028326 6.732213 -2.468480 -1.300501 -0.245631 -0.100274 1.304431 3.871135 0.979637 -0.783825 -5.152979 0.757832 -1.612366 1.490875 4.073963 0.738063 -4.004327 -1.672755 2.884230 -0.193876 -0.893264 1.055007 -2.869781 1.835184 -3.842021 -0.678037 -0.514324 6.018431 2.375096 -1.741269 1.696306 -3.480993 1.201792 2.282992 -2.866484 -0.185144 -2.118078 -1.117463 1.201639 -1.284245 -4.180459 0.539274 -5.178417 3.363354 0.117082 3.401115 -4.159733 -0.692249 0.239069 -3.806369 -3.027134 -2.588649 0.974500 -3.198417 4.709663 2.053193 -1.868981 -0.342479 1.820476 -0.692401 0.794399 -3.394059 -2.280404 -0.076170 -3.859450 2.624903 -0.293252 3.188233 2.662854 -1.464912 -0.077399 0.062338 1.515917 -4.619210 1.585868 -0.765295 2.575736 -1.490120 -4.275274 1.120114 0.388330 -0.247636 3.281173 1.990423 -3.408071 -1.818158 4.421432 -0.899671 4.144734 2.837374 -1.324318 -5.450044 5.431729 1.803892 2.202686 1.461766 -0.350856 -3.108626 -0.122405 3.366719 -3.574901 -4.801827 0.392890 -0.088463 1.460270 2.751537 0.503172 -0.840337 -3.688071 3.086474 -0.161746 2.610852 1.769508 -0.443247 -3.028571 -1.648663 -6.419910 -1.519419 -2.241645 1.029289 -1.406069 -0.770260 0.375766 0.701428 2.460556 -1.855824 3.831898 0.814816 2.160543 -1.543207 -0.931119 3.205280 1.749100 1.064187 2.715928 -1.521458 3.043013 -1.328089 -0.866947 -0.630314 0.721736 2.152339 1.248080 -2.363636 4.294681 -3.980335 -0.780868 1.201727 -3.441833 -0.727379 -0.933900 1.093530 -2.659875 5.159679 2.269736 3.329039 -4.085823 -2.297100 0.427881 -0.645151 -1.100948 -2.995729 1.293393 2.859297 0.310795 -2.565693 0.361854 0.257553 -1.980367 1.848905 -0.827226 2.832708 -3.135387 -1.723616 1.035812 -1.611688 0.457918 -0.053865 -3.742974 1.227683 4.216595 -0.575546 -0.127001 -5.044902 -3.186172 -0.819841 -1.607189 0.043770 -0.549539 -0.194223 0.525953 0.762473 0.907554 2.301070 -0.347739 -0.220925 3.416701 -4.797078 0.411598 -3.341918 -2.733521 -2.191451 -0.519330 -2.321323 -1.862123 2.339908 1.784112 -2.268869 0.731506 2.384794 3.216072 0.321001 -1.281835 -2.311481 -3.480370 -0.944679 0.422412 3.002694 -3.499127 1.603340 0.025103 1.986805 1.550422 0.839691 2.399533 1.531276 -2.289026 -1.133810 -0.937245 -1.000420 0.527571 -1.819962 2.253149 -0.162346 1.945032 -5.229930 0.081035 3.430381 -1.999460 -1.475369 2.551366 -1.801299 2.553574 -3.458055 -2.106180 1.852561 0.554359 0.311548 1.903029 1.552200 -0.170402 1.965291 -0.105095 -7.284451 5.362227 -2.349773 -0.379730 3.345710 4.057018 -0.006786 -2.965081 -1.233094 -0.988214 -0.052015 2.869188 1.399148 -2.367928 0.992672 1.391641 1.090139 0.572584 -1.617731 -1.236748 -4.614844 1.998706 4.539608 2.644174 0.575662 -7.562503 -0.770197 -0.808253 -3.508122 2.015297 -3.196512 -2.068245 -0.865716 -0.239394 3.691616 -3.251076 4.996320 3.452962 -1.193176 1.850807 -0.330795 -3.622383 -2.774112 -0.814625 4.037585 1.910864 -1.868904 -0.210076 -1.303128 1.125762 0.426445 1.409261 2.340854 1.512746 -1.831987 -0.506827 -0.148380 4.879484 0.990890 -1.154522 -0.356807 3.544361 -0.945561 1.286243 -0.880743 2.743485 -3.584654 1.238016 -0.856889 0.862838 -1.208979 -6.092209 -0.536611 2.641785 1.133926 2.667611 -1.420727 1.662761 1.599679 -0.488813 -0.249151 -0.700283 -0.862457 -0.805143 1.092630 -0.948369 -4.120415 -0.811117 -0.765889 -4.542951 0.122526 -2.147262 -1.739244 -2.966255 -0.208848 1.586442 0.743591 -1.065370 1.398472 2.775868 -1.502457 -0.782299 -0.486548 -0.735163 -4.400022 0.272469 -1.988178 1.704427 1.105117 0.988882 1.180997 1.172491 -2.392021 -1.519434 -6.814714 3.541420 1.269998 0.269234 2.466495 0.526398 1.284835 -0.340050 -0.221539 3.036081 -0.666582 1.216100 -0.807654 -3.902297 -2.328349 3.337698 -1.984452 0.044011 1.743099 -0.455854 5.394297 0.466848 -0.980266 -2.102920 -1.769514 -1.596789 1.543247 -1.412650 0.709124 0.648294 0.977413 1.131706 0.961710 -2.888094 3.219710 1.692226 0.966449 0.842890 2.665496 -1.382004 1.133653 0.803786 2.080401 -0.719827 -3.957885 -0.759177 -0.825625 4.259317 -4.422336 -1.117275 -0.509216 -4.071695 2.563773 -0.494669 1.034336 0.801915 2.497849 0.639393 0.736300 -0.946582 -0.634635 -2.640048 3.151411 -1.952826 -1.407336 -0.718688 1.395537 -0.770738 -2.196560 3.833833 2.347135 1.528254 -0.058276 -3.104614 1.721938 0.825550 0.155133 3.443883 -3.156594 0.176911 2.296003 1.550566 -0.597381 3.066695 5.696342 2.285921 -1.292038 0.065923 5.435742 -3.719259 -0.791364 1.061678 0.067544 3.571006 0.949852 -4.053642 1.355871 0.807815 0.435985 -3.561815 4.443069 1.028888 0.829807 1.395964 3.200233 -1.177790 -2.233160 -4.987461 -0.356837 2.174955 -2.711480 3.540949 2.725787 2.513500 -0.634500 -3.211274 -2.045191 -2.279726 -0.863615 -1.430459 1.959276 -0.229400 2.366551 -0.955312 1.742034 -2.241973 -0.015247 1.275477 2.063730 1.267134 -3.961084 -2.035345 0.651444 1.691372 -4.550983 0.203771 1.654346 2.746415 -2.936828 -1.221554 1.106192 -3.148284 -2.296480 -0.097761 -0.871603 2.702849 0.263534 -4.455082 1.124056 -1.065978 0.790541 1.932608 0.927327 -0.938274 -0.151260 0.428960 -3.101952 -0.592661 -0.837762 -1.226613 2.461289 -3.659012 -0.293721 0.082849 1.719786 -0.565828 -2.258006 0.301997 -1.789661 0.382901 0.258610 -1.890485 2.324409 -1.974648 -2.872262 -3.571835 -2.886077 -0.818310 2.124665 1.009016 0.900999 3.047760 -2.342909 0.875743 2.404602 0.982620 -1.523944 2.336495 3.357327 -1.086031 -0.097524 -4.898624 -0.034993 -0.712973 2.223469 1.081929 4.220539 0.054161 1.154193 3.367298 -1.095606 0.786183 5.462376 -0.404597 -1.768211 2.860363 -3.139662 1.495760 0.853313 3.757219 -1.137938 -0.477293 -1.391784 0.907081 0.393184 0.069810 -0.243459 -1.948950 -1.199672 2.913812 1.771869 1.287410 -2.318478 0.673818 0.592864 3.775146 -1.069195 -2.421860 -1.442201 0.727656 -1.501834 -2.928248 1.298715 0.543632 2.074471 1.924649 3.563622 -5.890903 1.896695 4.750199 -2.824590 3.324986 -3.035720 -0.096647 -1.531770 -2.901509 5.096681 0.768591 -1.216885 -0.042154 -3.291845 1.662621 2.464101 -2.277221 -3.339105 -0.613702 -2.246168 3.592288 -1.377273 2.694892 -3.303562 1.719744 -1.996314 1.969435 1.040894 3.902475 -0.819215 -1.706805 1.161921 -0.920335 -2.719698 -0.364482 -0.971936 0.710458 -3.151567 0.028767 0.149183 5.269667 -3.394979 1.624385 -2.230310 -1.610702 4.104197 0.509984 -3.301056 -1.929369 5.802385 0.355936 2.070310 1.994959 -1.984914 -0.999810 -2.281148 -1.876455 -0.329552 2.453534 -0.208842 -1.576775 3.274712 -6.154989 3.208652 0.100252 1.146797 -1.151558 -0.738856 1.731046 1.247715 -2.473070 0.502286 -0.039962 1.556720 -0.823504 4.924416 -5.361428 0.330673 -2.988362 1.158871 2.022698 -2.686173 0.213421 2.116636 -3.678027 -0.089937 1.543721 2.431382 -2.185122 -2.924821 0.182122 1.553869 -2.703601 0.070883 1.612922 2.637686 5.594179 -2.625755 -0.868042 3.357367 -5.104127 -1.827953 3.389890 -0.426615 -2.194308 -2.637367 0.618557 0.229487 1.736266 -2.291320 1.808128 -0.581361 1.607699 -2.133857 -3.115423 -0.415700 -2.604131 1.343169 -1.220300 0.770849 0.842012 -0.863432 1.785597 1.283464 -2.719157 -1.796244 -1.494823 0.309833 -0.286737 3.206241 -4.767670 2.543176 0.345308 -1.526991 -4.485818 0.171845 3.003131 -0.424930 -1.791012 -2.393173 -1.475057 -0.975131 -4.527588 -3.594693 0.228982 1.186292 4.254347 -1.960497 -2.119275 -0.670861 1.293259 -3.157934 0.653686 -0.255692 2.940919 -1.236794 -1.797501 1.126881 0.566808 0.121544 1.604396 6.086691 0.578150 1.133049 1.856976 1.572022 -0.706558 -0.645365 -2.598350 1.140483 0.304131 0.175056 -3.163336 1.726896 -0.505389 -2.194345 -1.456068 3.917370 -1.421697 0.927089 4.674269 -3.749056 -0.226952 -1.595976 0.241244 1.251151 0.269808 3.836643 -0.791382 -1.485661 -0.189480 -0.285112 1.119339 1.863572 -0.806144 -0.366087 -1.582018 2.875636 1.860624 -0.663222 5.017041 1.583902 -0.288205 4.066753 -2.351657 2.068807 2.965908 -0.035351 1.831977 4.901637 3.708634 -0.489193 -1.208443 -0.374104 -0.752710 -1.084854 -1.289363 3.915146 2.436543 2.287110 4.480978 -1.437914 -5.532921 0.006743 2.564601 -1.441172 3.829508 -2.473072 -2.668208 -0.803427 -2.021443 -0.048974 0.730576 -0.061914 3.462834 -0.765724 0.521449 1.031725 -2.724982 -0.142649 -0.714643 0.694727 1.892934 1.376789 -0.159373 -2.977249 0.323141 -5.295356 2.895877 -5.985338 0.712407 0.360962 3.696073 -0.395413 -1.355844 -3.626727 1.007521 -1.739022 -0.092136 1.138077 0.545501 -2.716576 -1.021804 -2.074348 -1.724677 5.298499 1.093642 2.515658 -2.834661 0.886259 1.091196 2.181509 1.198715 0.388125 -1.418696 -0.602318 -0.139607 -0.139911 -2.154657 -1.653698 0.424579 0.014964 1.783710 -2.133091 -2.839300 0.096913 1.526000 2.397906 1.419947 3.022192 -0.959162 -1.669658 1.191252 0.396105 -0.356531 -0.599855 -4.028979 -0.851490 -4.177049 -1.178394 0.526450 1.497403 2.745851 0.451168 1.211633 1.516296 -2.229390 -1.404478 -1.470205 -3.542055 -2.996375 -4.211214 0.410752 -0.122812 3.445168 -4.366702 -0.541423 0.017916 -3.877714 -4.619885 -2.011499 -0.576387 -1.191918 -2.535578 0.499938 0.407585 -3.051774 -1.718645 0.346813 -5.786732 -4.264015 2.029526 -1.267595 -1.147834 -2.140906 4.196038 -4.333673 -2.622637 1.942883 0.317247 3.248105 0.465103 -4.496121 -0.724839 1.264301 0.429468 -0.342592 -2.300033 0.179117 1.842346 3.182353 -1.185649 -0.564537 -1.937571 -1.460526 0.431103 -2.151288 -0.171143 -0.405656 1.543451 1.305072 1.142087 1.135019 -0.889262 1.285428 -2.837845 -2.196624 -0.080064 1.052045 2.135676 -2.058363 2.691437 0.366562 0.460500 0.594497 1.909883 4.517868 1.098191 1.251967 1.418545 -5.856600 1.621488 -4.798434 1.135463 3.463971 -1.767041 -0.534092 2.098478 3.742272 -0.863474 -2.124410 2.125152 -1.088294 0.791525 0.563191 3.778366 -0.906311 -0.036964 2.369705 -2.101601 -3.263377 4.672019 2.409807 3.091486 -0.832640 0.362974 0.767013 -2.925281 -0.256195 -2.803521 0.770059 3.620123 0.632358 -4.135585 3.364653 2.518848 1.528719 1.117389 2.496922 1.613260 3.181505 1.006778 0.984915 -2.763057 -1.776877 2.051286 2.417486 1.261608 -0.653993 -5.075207 0.707399 2.146415 -0.893624 -1.012888 2.677282 1.834097 -0.078282 0.815249 -0.881753 -0.750838 -2.435286 3.338914 5.140899 -2.049846 4.830172 0.539059 2.765624 -1.161553 -2.442136 -1.997805 1.277676 -4.979558 1.693551 -2.534526 -3.379474 3.384687 0.470813 0.331692 -3.155074 7.049331 -2.473887 -1.487866 1.353215 -3.032368 3.024518 1.844321 -0.520151 -0.155763 -1.481787 -0.542301 -0.585014 2.860477 -2.061993 -3.248482 1.717400 -0.720267 1.261793 -0.827767 -4.029457 2.602647 3.225267 0.377195 0.539784 -0.989275 -2.095415 0.448952 -3.435245 -4.611622 -0.266175 0.908577 2.048082 -3.661591 0.097631 -1.377637 2.605112 -0.138326 1.367074 4.255988 -0.661307 2.108563 -1.491869 -0.806416 -2.496124 1.326760 0.232070 1.361154 1.067349 -0.572215 0.246287 2.332876 1.515262 -0.917829 2.865411 3.560211 0.659857 1.069364 2.998208 0.340468 3.925292 0.984498 -1.042955 -2.350095 0.248561 -1.896099 -1.705999 2.093632 0.982243 0.733376 -0.638960 5.476042 0.263887 2.307423 -1.597579 -1.059886 -2.638450 -0.344897 2.844106 -2.249319 0.445254 -1.069021 -0.386700 -1.775820 -1.236994 -2.939856 -2.559878 -2.083586 1.780840 -2.657756 1.977824 1.586850 1.331781 -3.901231 1.372200 -2.857508 -0.683407 -2.587769 1.355811 -1.274477 -0.770454 -1.768162 0.735444 -6.636703 -2.685002 -0.568886 -1.427111 2.095593 -0.416702 0.152414 -1.054256 -0.094099 3.637194 -3.366083 -5.868845 -2.345859 1.191031 0.058691 1.631380 -0.472104 0.044513 -4.571428 -0.719238 -2.709333 -1.116404 0.190029 -2.227968 0.355046 -1.255746 -2.172530 -1.233665 2.413674 -0.714888 0.994127 -2.786575 0.051429 1.855534 1.149651 -4.533432 0.496268 -1.763753 -1.561589 2.350172 1.160590 -1.168040 1.382268 -0.400400 1.619176 -2.511557 3.562684 3.650595 -1.341787 -0.268141 -1.623108 -2.846993 -3.914129 2.126555 -1.464100 -3.403573 -2.004405 -1.262759 -4.457355 0.534017 -0.121961 -0.811067 -0.677665 -0.270100 1.699117 -0.601402 -1.926590 0.451605 -0.141937 1.371385 -1.015257 -0.655150 1.336496 0.855682 0.727564 0.534290 2.108879 -3.944556 -2.387238 1.813936 0.412264 3.424987 -1.237107 1.355665 1.304784 3.068932 -1.193064 0.920290 2.183729 2.847084 0.295918 -1.192852 -0.529767 1.362306 4.329571 0.916631 4.230347 4.895104 2.129250 -1.039974 1.761407 2.786272 -0.475977 -0.415454 -2.232943 -1.745337 0.570253 -1.433648 2.469617 -0.363115 -0.040408 3.934519 -4.262978 -0.636935 1.240071 2.050793 2.829352 3.719259 3.024332 0.898179 3.459953 -2.447773 1.919453 -0.900060 0.558152 -3.470621 -4.198074 -2.738605 -4.061523 -3.021450 -2.625709 1.156464 -1.389922 1.077162 -2.267980 -1.138158 4.763240 1.079701 -1.012076 -4.016940 -2.572752 1.516201 2.197889 2.906746 -5.263219 -2.860474 0.334453 3.501799 -1.617034 0.401953 1.937352 -4.021245 3.445254 2.434306 1.324498 -0.794151 1.624477 -0.537339 -2.172880 2.339386 2.808246 -0.232357 -6.814077 -2.217423 -0.089220 2.671490 -0.407545 -2.169941 4.101496 -2.275881 2.947588 4.032449 -1.149561 -0.594369 -0.208561 -1.925649 -3.425661 -0.733384 -2.875426 -0.757552 2.904426 1.855626 3.394731 -4.054449 -1.782367 0.642885 -3.789604 -1.380592 1.658890 -4.906206 -3.108696 -1.647263 -3.006318 1.106567 2.063417 -0.692857 -2.134748 0.895258 -2.761152 3.384128 -1.617713 -3.191283 -0.509002 -2.430734 0.018504 3.208520 -1.612668 2.613346 -3.280227 1.850117 2.923120 1.632040 -0.614832 4.910766 1.655597 1.439621 -1.875702 -1.026620 0.702330 -1.893324 -1.537998 -3.318936 -0.773942 -2.480133 0.102626 -5.344045 -0.220159 3.037506 1.586720 -3.948358 -2.096066 2.224770 4.546399 3.023665 -1.255170 1.282217 2.921376 2.372394 -1.583353 0.682824 -1.784223 0.311156 -3.312040 -2.383731 5.053722 -4.273926 -2.322988 0.521781 -1.798201 -1.286483 0.871079 0.277407 -0.216194 -3.319894 1.761059 -0.877350 4.584241 -0.498292 1.565595 -2.096573 -1.116015 3.009118 1.477889 0.772178 0.530629 -2.912531 -3.293722 -0.349635 0.967210 -0.183440 -3.973004 -0.732933 -0.509230 -3.815590 -4.128484 -1.453471 -0.146209 2.805871 0.072006 -1.320623 -2.065533 -2.678840 -0.005842 -6.055916 -1.347263 -0.161449 -2.605900 -1.548472 2.726544 -1.664018 -2.599885 0.391274 -0.206736 -4.291630 -1.247323 2.222577 -1.004862 -2.293479 2.435335 -0.340390 -1.974972 -1.003852 4.304759 3.916459 -2.668864 0.771953 2.442297 -2.011335 4.264837 -0.957278 2.458143 1.556267 -0.416414 -3.340380 3.070444 -0.051769 -0.473256 -0.320812 3.128350 0.178149 -1.227249 -3.778125 2.599686 4.632597 -0.825476 1.557155 3.005358 -1.253405 -0.090927 0.264703 1.408610 2.011650 3.010489 -1.309549 -0.438168 2.008562 -0.351956 -2.066560 3.690851 3.640284 4.045341 1.673063 0.333217 0.944084 -2.585755 0.050189 -2.551132 -0.897620 0.586981 0.159899 0.476874 0.797872 -0.694094 3.385479 0.458968 2.062784 1.365119 -0.765803 3.362121 0.556193 -1.142283 1.156207 -4.669409 -1.401339 2.157717 0.854538 2.141175 1.700244 -3.441348 -3.356164 -0.178320 -2.514452 -0.912879 -1.390188 3.917789 0.831745 1.427322 -3.247339 1.852848 1.161892 -6.788705 2.313111 2.284782 0.962745 -0.626442 -1.353031 1.344861 0.817207 0.752714 0.208756 3.228371 0.379526 0.739110 -0.660144 -3.790051 4.502743 -1.115066 0.765954 0.461174 2.130291 -1.687523 2.905489 0.505409 -1.655941 -2.771785 -3.746981 0.554535 1.374200 0.585579 -1.247429 -0.395379 2.052224 1.618468 -0.475145 -2.090007 0.143313 1.549286 0.872381 -2.843484 -3.494145 1.183501 -1.303382 -1.020173 2.659276 -0.383676 1.727101 0.008878 0.535034 0.473664 2.005949 -4.011481 4.258590 2.548517 3.377646 1.122478 -2.045211 2.786840 0.011749 0.025905 1.492405 -3.069870 -0.264236 -0.125964 0.003784 1.714549 -4.207639 -2.516372 1.697010 -2.838875 3.256623 1.921796 1.347586 1.481340 1.806676 0.059259 -1.648476 0.691241 5.201650 -0.655056 -0.083760 0.519328 4.148896 -0.476828 -1.582716 -4.413600 0.017826 2.925668 -0.276013 1.686894 -2.176407 -2.598720 0.672225 2.157466 -0.849365 -0.958001 1.171356 4.337224 1.477843 0.043874 0.635444 -3.009850 -0.161238 -2.180925 -0.371019 2.616812 -3.819953 1.569806 1.448673 -0.527020 1.844753 -0.437738 -0.303921 1.403024 0.969353 0.736255 -1.180839 1.326681 -0.821692 -2.240824 -1.399075 3.985249 2.178591 3.378568 -0.541264 2.194138 -1.461949 -0.562925 1.333512 1.840238 2.497136 -3.536119 0.137159 0.485932 0.357239 0.351341 0.038537 -1.943485 -1.326196 1.088050 -1.109270 -2.599162 1.854462 2.773469 0.059418 -1.172197 -0.262492 1.621356 4.537382 -5.727594 -1.761767 -4.928783 -5.537355 2.900282 -2.646431 1.235296 -2.739935 0.692344 2.910379 0.408475 -2.818441 -1.985335 -1.725756 1.815587 -1.065157 -0.783641 -0.506438 -1.892709 -0.835745 1.253454 -3.058968 -2.350046 -5.342218 3.206180 -2.074519 2.008386 -2.018654 2.406197 -1.572182 1.103961 -6.192508 -2.688840 0.967896 3.189750 -0.098302 3.844557 -2.093397 -2.202298 -2.500097 1.628942 -1.906923 1.269375 -1.325841 0.903031 1.094024 1.382695 -2.167051 0.418701 -0.029309 -2.276381 -1.832548 1.996433 -0.897100 2.996982 0.599294 0.801103 0.897210 0.855771 -2.902061 -3.943425 3.948133 1.711250 0.807752 4.587340 0.012674 2.589693 -1.033453 1.381435 -1.384042 1.878243 -0.949989 0.828392 2.417647 -1.693894 4.632564 -1.994730 0.551247 -1.423896 0.417912 1.667935 -1.113862 -0.689853 -3.986176 0.825707 -1.471064 -1.484990 -1.366693 2.044249 2.761073 0.055110 