-0.000000 0.000000 0.000000 -0.000000 0.000000 0.000000 -0.000000 -0.000000 -0.000000 -0.000000 0.000000 -0.000000 0.000000 0.000000 -0.000000 -0.000000 -0.000000 -0.000000 0.000000 0.000000 -0.000000 0.000000 -0.000000 0.000000 0.000000 0.000000 0.000000 -0.000000 -0.000000 -0.000000 -0.000000 -0.000000 -0.000000 0.000000 0.000000 -0.000000 -0.000000 0.000000 -0.000000 -0.000000 0.000000 0.000000 0.000000 0.000000 -0.000000 -0.000000 -0.000000 0.000000 -0.000000 0.000000 0.000000 0.000000 -0.000000 0.000000 0.000000 0.000000 -0.000000 -0.000000 0.000000 0.000000 0.000000 0.000000 0.000000 0.000000 -0.000000 0.000000 -0.000000 0.000000 0.000000 0.000000 -0.000000 0.000000 0.000000 0.000000 0.000000 0.000000 -0.000000 0.000000 0.000000 0.000000 0.000000 0.000000 0.000000 0.000000 0.000000 0.000000 0.000000 0.000000 0.000000 -0.000000 0.000000 -0.000000 -0.000000 -0.000000 -0.000001 -0.000002 -0.000006 -0.000014 -0.000028 -0.000053 -0.000093 -0.000152 -0.000237 -0.000353 -0.000508 -0.000710 -0.000964 -0.001280 -0.001664 -0.002123 -0.002665 -0.003294 -0.004018 -0.004841 -0.005767 -0.006801 -0.007943 -0.009197 -0.010564 -0.012043 -0.013634 -0.015336 -0.017147 -0.019063 -0.021081 -0.023197 -0.025407 -0.027706 -0.030088 -0.032547 -0.035077 -0.037672 -0.040325 -0.043030 -0.045781 -0.048570 -0.051390 -0.054236 -0.057101 -0.059978 -0.062862 -0.065746 -0.068625 -0.071494 -0.074347 -0.077179 -0.079985 -0.082762 -0.085505 -0.088211 -0.090876 -0.093497 -0.096071 -0.098595 -0.101067 -0.103485 -0.105844 -0.108143 -0.110378 -0.112543 -0.114635 -0.116647 -0.118573 -0.120407 -0.122142 -0.123770 -0.125285 -0.126680 -0.127947 -0.129079 -0.130072 -0.130919 -0.131616 -0.132160 -0.132549 -0.132783 -0.132863 -0.132793 -0.132578 -0.132224 -0.131739 -0.131133 -0.130415 -0.129597 -0.128691 -0.127710 -0.126667 -0.125573 -0.124444 -0.123290 -0.122125 -0.120961 -0.119808 -0.118678 -0.117579 -0.116521 -0.115513 -0.114561 -0.113671 -0.112848 -0.112099 -0.111424 -0.110829 -0.110313 -0.109880 -0.109528 -0.109258 -0.109069 -0.108960 -0.108928 -0.108972 -0.109088 -0.109274 -0.109526 -0.109841 -0.110216 -0.110645 -0.111126 -0.111654 -0.112225 -0.112835 -0.113481 -0.114158 -0.114862 -0.115590 -0.116338 -0.117103 -0.117881 -0.118669 -0.119464 -0.120263 -0.121064 -0.121863 -0.122658 -0.123443 -0.124216 -0.124971 -0.125702 -0.126404 -0.127069 -0.127690 -0.128260 -0.128770 -0.129212 -0.129578 -0.129861 -0.130053 -0.130146 -0.130134 -0.130012 -0.129776 -0.129422 -0.128951 -0.128361 -0.127657 -0.126842 -0.125921 -0.124901 -0.123791 -0.122600 -0.121339 -0.120019 -0.118650 -0.117246 -0.115818 -0.114378 -0.112939 -0.111511 -0.110105 -0.108732 -0.107402 -0.106123 -0.104904 -0.103752 -0.102673 -0.101672 -0.100755 -0.099926 -0.099186 -0.098538 -0.097983 -0.097523 -0.097156 -0.096882 -0.096700 -0.096607 -0.096602 -0.096682 -0.096843 -0.097082 -0.097396 -0.097780 -0.098230 -0.098742 -0.099312 -0.099936 -0.100608 -0.101326 -0.102083 -0.102877 -0.103703 -0.104557 -0.105435 -0.106333 -0.107249 -0.108177 -0.109116 -0.110061 -0.111011 -0.111961 -0.112908 -0.113847 -0.114775 -0.115686 -0.116573 -0.117431 -0.118252 -0.119028 -0.119752 -0.120415 -0.121009 -0.121526 -0.121957 -0.122295 -0.122533 -0.122664 -0.122684 -0.122588 -0.122374 -0.122042 -0.121592 -0.121026 -0.120351 -0.119570 -0.118692 -0.117726 -0.116680 -0.115565 -0.114393 -0.113174 -0.111921 -0.110647 -0.109361 -0.108077 -0.106805 -0.105556 -0.104340 -0.103166 -0.102043 -0.100979 -0.099981 -0.099055 -0.098205 -0.097436 -0.096752 -0.096156 -0.095648 -0.095230 -0.094903 -0.094666 -0.094518 -0.094458 -0.094484 -0.094593 -0.094782 -0.095049 -0.095389 -0.095800 -0.096276 -0.096815 -0.097412 -0.098062 -0.098762 -0.099507 -0.100292 -0.101115 -0.101970 -0.102853 -0.103762 -0.104691 -0.105637 -0.106597 -0.107568 -0.108546 -0.109528 -0.110512 -0.111493 -0.112469 -0.113434 -0.114384 -0.115314 -0.116217 -0.117086 -0.117914 -0.118694 -0.119417 -0.120075 -0.120660 -0.121164 -0.121578 -0.121895 -0.122108 -0.122212 -0.122199 -0.122065 -0.121805 -0.121418 -0.120899 -0.120248 -0.119463 -0.118545 -0.117496 -0.116316 -0.115009 -0.113577 -0.112026 -0.110358 -0.108580 -0.106697 -0.104715 -0.102639 -0.100478 -0.098237 -0.095924 -0.093545 -0.091107 -0.088619 -0.086086 -0.083516 -0.080915 -0.078290 -0.075648 -0.072994 -0.070336 -0.067678 -0.065026 -0.062385 -0.059760 -0.057156 -0.054577 -0.052027 -0.049509 -0.047028 -0.044586 -0.042185 -0.039829 -0.037519 -0.035258 -0.033047 -0.030887 -0.028781 -0.026728 -0.024730 -0.022788 -0.020901 -0.019070 -0.017295 -0.015576 -0.013914 -0.012306 -0.010754 -0.009258 -0.007817 -0.006436 -0.005118 -0.003871 -0.002703 -0.001629 -0.000661 0.000181 0.000880 0.001412 0.001756 0.001888 0.001784 0.001421 0.000776 -0.000173 -0.001447 -0.003065 -0.005042 -0.007394 -0.010131 -0.013264 -0.016797 -0.020736 -0.025080 -0.029827 -0.034974 -0.040513 -0.046435 -0.052728 -0.059379 -0.066371 -0.073689 -0.081313 -0.089225 -0.097402 -0.105825 -0.114470 -0.123315 -0.132337 -0.141513 -0.150822 -0.160239 -0.169743 -0.179312 -0.188924 -0.198560 -0.208199 -0.217823 -0.227412 -0.236951 -0.246421 -0.255809 -0.265100 -0.274281 -0.283338 -0.292262 -0.301040 -0.309665 -0.318126 -0.326416 -0.334524 -0.342439 -0.350151 -0.357643 -0.364901 -0.371905 -0.378636 -0.385073 -0.391192 -0.396969 -0.402381 -0.407402 -0.412010 -0.416181 -0.419895 -0.423132 -0.425877 -0.428119 -0.429851 -0.431072 -0.431786 -0.432004 -0.431739 -0.431014 -0.429854 -0.428289 -0.426351 -0.424079 -0.421511 -0.418688 -0.415652 -0.412445 -0.409109 -0.405686 -0.402216 -0.398739 -0.395289 -0.391903 -0.388611 -0.385443 -0.382426 -0.379583 -0.376933 -0.374496 -0.372285 -0.370311 -0.368585 -0.367112 -0.365896 -0.364939 -0.364240 -0.363797 -0.363606 -0.363660 -0.363952 -0.364473 -0.365214 -0.366164 -0.367313 -0.368647 -0.370155 -0.371824 -0.373641 -0.375594 -0.377668 -0.379852 -0.382133 -0.384499 -0.386937 -0.389436 -0.391984 -0.394572 -0.397189 -0.399825 -0.402472 -0.405119 -0.407757 -0.410375 -0.412960 -0.415498 -0.417972 -0.420363 -0.422650 -0.424810 -0.426819 -0.428650 -0.430276 -0.431671 -0.432809 -0.433662 -0.434206 -0.434418 -0.434276 -0.433764 -0.432869 -0.431583 -0.429903 -0.427833 -0.425382 -0.422564 -0.419399 -0.415911 -0.412128 -0.408083 -0.403810 -0.399348 -0.394735 -0.390011 -0.385216 -0.380391 -0.375574 -0.370803 -0.366115 -0.361543 -0.357120 -0.352875 -0.348834 -0.345021 -0.341456 -0.338158 -0.335140 -0.332416 -0.329993 -0.327879 -0.326077 -0.324589 -0.323414 -0.322548 -0.321987 -0.321725 -0.321752 -0.322061 -0.322639 -0.323475 -0.324557 -0.325872 -0.327405 -0.329143 -0.331071 -0.333175 -0.335439 -0.337851 -0.340395 -0.343057 -0.345824 -0.348682 -0.351619 -0.354621 -0.357678 -0.360777 -0.363909 -0.367062 -0.370226 -0.373390 -0.376541 -0.379666 -0.382749 -0.385770 -0.388711 -0.391549 -0.394258 -0.396815 -0.399191 -0.401359 -0.403292 -0.404962 -0.406342 -0.407407 -0.408134 -0.408501 -0.408490 -0.408089 -0.407289 -0.406088 -0.404487 -0.402496 -0.400129 -0.397405 -0.394347 -0.390986 -0.387353 -0.383483 -0.379413 -0.375184 -0.370835 -0.366406 -0.361939 -0.357474 -0.353047 -0.348697 -0.344458 -0.340361 -0.336438 -0.332714 -0.329214 -0.325960 -0.322969 -0.320256 -0.317833 -0.315711 -0.313895 -0.312390 -0.311197 -0.310315 -0.309742 -0.309473 -0.309500 -0.309816 -0.310412 -0.311276 -0.312397 -0.313762 -0.315357 -0.317169 -0.319184 -0.321387 -0.323763 -0.326297 -0.328975 -0.331783 -0.334706 -0.337730 -0.340842 -0.344028 -0.347276 -0.350575 -0.353912 -0.357277 -0.360660 -0.364049 -0.367434 -0.370803 -0.374142 -0.377436 -0.380667 -0.383815 -0.386859 -0.389774 -0.392535 -0.395116 -0.397489 -0.399627 -0.401502 -0.403087 -0.404358 -0.405289 -0.405858 -0.406046 -0.405835 -0.405209 -0.404157 -0.402669 -0.400739 -0.398364 -0.395543 -0.392278 -0.388574 -0.384440 -0.379886 -0.374923 -0.369566 -0.363832 -0.357739 -0.351306 -0.344553 -0.337502 -0.330176 -0.322597 -0.314790 -0.306777 -0.298582 -0.290228 -0.281740 -0.273139 -0.264449 -0.255691 -0.246887 -0.238056 -0.229218 -0.220392 -0.211596 -0.202845 -0.194157 -0.185545 -0.177024 -0.168606 -0.160302 -0.152124 -0.144081 -0.136181 -0.128433 -0.120843 -0.113417 -0.106161 -0.099079 -0.092175 -0.085451 -0.078910 -0.072554 -0.066384 -0.060399 -0.054601 -0.048989 -0.043562 -0.038318 -0.033255 -0.028364 -0.023635 -0.019045 -0.014567 -0.010160 -0.005775 -0.001352 0.003178 0.007893 0.012876 0.018217 0.024010 0.030349 0.037328 0.045040 0.053575 0.063015 0.073438 0.084914 0.097504 0.111260 0.126225 0.142431 0.159899 0.178642 0.198661 0.219948 0.242484 0.266245 0.291194 0.317290 0.344483 0.372717 0.401931 0.432059 0.463032 0.494776 0.527216 0.560274 0.593872 0.627930 0.662370 0.697112 0.732079 0.767195 0.802386 0.837580 0.872708 0.907703 0.942502 0.977044 1.011274 1.045136 1.078582 1.111565 1.144042 1.175974 1.207326 1.238065 1.268161 1.297585 1.326306 1.354287 1.381488 1.407861 1.433352 1.457896 1.481425 1.503863 1.525128 1.545137 1.563803 1.581039 1.596759 1.610882 1.623331 1.634035 1.642937 1.649991 1.655170 1.658465 1.659887 1.659469 1.657261 1.653337 1.647787 1.640717 1.632248 1.622513 1.611657 1.599827 1.587180 1.573871 1.560059 1.545898 1.531538 1.517127 1.502802 1.488695 1.474926 1.461607 1.448840 1.436714 1.425310 1.414695 1.404928 1.396054 1.388112 1.381126 1.375115 1.370088 1.366044 1.362977 1.360872 1.359709 1.359464 1.360104 1.361597 1.363902 1.366979 1.370784 1.375271 1.380394 1.386105 1.392355 1.399098 1.406283 1.413865 1.421797 1.430034 1.438532 1.447249 1.456144 1.465178 1.474316 1.483521 1.492760 1.501997 1.511194 1.520306 1.529282 1.538063 1.546584 1.554769 1.562535 1.569796 1.576456 1.582419 1.587586 1.591858 1.595137 1.597329 1.598346 1.598106 1.596540 1.593593 1.589226 1.583420 1.576176 1.567516 1.557483 1.546139 1.533564 1.519856 1.505128 1.489502 1.473113 1.456102 1.438614 1.420798 1.402801 1.384769 1.366846 1.349168 1.331864 1.315058 1.298861 1.283377 1.268699 1.254908 1.242076 1.230262 1.219517 1.209878 1.201375 1.194026 1.187840 1.182819 1.178956 1.176235 1.174636 1.174131 1.174687 1.176268 1.178831 1.182330 1.186720 1.191948 1.197964 1.204714 1.212145 1.220203 1.228834 1.237985 1.247602 1.257635 1.268033 1.278747 1.289731 1.300940 1.312329 1.323858 1.335489 1.347182 1.358899 1.370596 1.382227 1.393736 1.405062 1.416135 1.426877 1.437202 1.447021 1.456235 1.464747 1.472454 1.479254 1.485049 1.489743 1.493243 1.495470 1.496351 1.495831 1.493873 1.490458 1.485587 1.479283 1.471589 1.462569 1.452303 1.440889 1.428439 1.415077 1.400935 1.386154 1.370878 1.355254 1.339428 1.323545 1.307746 1.292164 1.276928 1.262158 1.247964 1.234448 1.221700 1.209801 1.198820 1.188814 1.179833 1.171913 1.165082 1.159358 1.154750 1.151258 1.148873 1.147582 1.147363 1.148189 1.150026 1.152839 1.156586 1.161222 1.166701 1.172973 1.179986 1.187690 1.196032 1.204958 1.214416 1.224354 1.234721 1.245466 1.256540 1.267896 1.279488 1.291273 1.303209 1.315255 1.327374 1.339529 1.351679 1.363783 1.375792 1.387651 1.399298 1.410660 1.421660 1.432211 1.442222 1.451597 1.460235 1.468036 1.474899 1.480725 1.485420 1.488894 1.491063 1.491852 1.491195 1.489035 1.485325 1.480028 1.473119 1.464584 1.454418 1.442629 1.429232 1.414255 1.397732 1.379708 1.360233 1.339367 1.317174 1.293724 1.269091 1.243354 1.216595 1.188896 1.160344 1.131025 1.101025 1.070431 1.039328 1.007801 0.975932 0.943801 0.911487 0.879064 0.846605 0.814179 0.781851 0.749682 0.717732 0.686055 0.654701 0.623718 0.593152 0.563038 0.533415 0.504314 0.475765 0.447793 0.420422 0.393670 0.367555 0.342090 0.317288 0.293156 0.269701 0.246928 0.224839 0.203435 0.182714 0.162673 0.143308 0.124614 0.106584 0.089207 0.072473 0.056367 0.040870 0.025964 0.011622 -0.002182 -0.015478 -0.028301 -0.040684 -0.052664 -0.064278 -0.075566 -0.086565 -0.097313 -0.107845 -0.118198 -0.128404 -0.138495 -0.148498 -0.158440 -0.168344 -0.178229 -0.188112 -0.198009 -0.207928 -0.217880 -0.227868 -0.237897 -0.247965 -0.258070 -0.268210 -0.278376 -0.288562 -0.298758 -0.308953 -0.319136 -0.329293 -0.339413 -0.349482 -0.359484 -0.369405 -0.379231 -0.388947 -0.398539 -0.407994 -0.417299 -0.426441 -0.435408 -0.444188 -0.452771 -0.461148 -0.469310 -0.477247 -0.484954 -0.492422 -0.499646 -0.506623 -0.513349 -0.519820 -0.526033 -0.531984 -0.537667 -0.543077 -0.548203 -0.553036 -0.557562 -0.561767 -0.565632 -0.569141 -0.572273 -0.575008 -0.577327 -0.579209 -0.580636 -0.581588 -0.582051 -0.582012 -0.581461 -0.580395 -0.578814 -0.576724 -0.574137 -0.571069 -0.567545 -0.563589 -0.559235 -0.554516 -0.549473 -0.544144 -0.538573 -0.532803 -0.526879 -0.520844 -0.514741 -0.508613 -0.502500 -0.496440 -0.490470 -0.484623 -0.478929 -0.473417 -0.468111 -0.463034 -0.458203 -0.453635 -0.449343 -0.445336 -0.441622 -0.438205 -0.435088 -0.432271 -0.429752 -0.427527 -0.425590 -0.423935 -0.422554 -0.421437 -0.420572 -0.419948 -0.419554 -0.419376 -0.419401 -0.419618 -0.420011 -0.420568 -0.421276 -0.422121 -0.423091 -0.424173 -0.425355 -0.426625 -0.427971 -0.429381 -0.430847 -0.432359 -0.433907 -0.435481 -0.437069 -0.438659 -0.440235 -0.441781 -0.443277 -0.444703 -0.446035 -0.447247 -0.448315 -0.449209 -0.449904 -0.450371 -0.450584 -0.450516 -0.450143 -0.449443 -0.448398 -0.446994 -0.445220 -0.443074 -0.440555 -0.437672 -0.434438 -0.430869 -0.426990 -0.422827 -0.418411 -0.413777 -0.408961 -0.404001 -0.398936 -0.393807 -0.388652 -0.383511 -0.378421 -0.373419 -0.368539 -0.363813 -0.359269 -0.354935 -0.350835 -0.346989 -0.343416 -0.340130 -0.337143 -0.334466 -0.332104 -0.330061 -0.328340 -0.326939 -0.325855 -0.325085 -0.324620 -0.324454 -0.324577 -0.324979 -0.325647 -0.326569 -0.327731 -0.329120 -0.330720 -0.332518 -0.334498 -0.336647 -0.338949 -0.341390 -0.343956 -0.346632 -0.349406 -0.352263 -0.355192 -0.358178 -0.361212 -0.364283 -0.367380 -0.370492 -0.373609 -0.376719 -0.379807 -0.382858 -0.385855 -0.388776 -0.391601 -0.394304 -0.396861 -0.399245 -0.401428 -0.403383 -0.405081 -0.406497 -0.407604 -0.408378 -0.408799 -0.408849 -0.408517 -0.407795 -0.406681 -0.405178 -0.403297 -0.401052 -0.398463 -0.395555 -0.392356 -0.388899 -0.385218 -0.381351 -0.377336 -0.373211 -0.369017 -0.364793 -0.360576 -0.356403 -0.352310 -0.348329 -0.344491 -0.340824 -0.337353 -0.334100 -0.331086 -0.328327 -0.325837 -0.323627 -0.321705 -0.320077 -0.318746 -0.317713 -0.316977 -0.316534 -0.316379 -0.316506 -0.316906 -0.317571 -0.318490 -0.319650 -0.321040 -0.322646 -0.324454 -0.326452 -0.328624 -0.330957 -0.333437 -0.336050 -0.338781 -0.341618 -0.344547 -0.347556 -0.350631 -0.353762 -0.356936 -0.360144 -0.363374 -0.366617 -0.369861 -0.373097 -0.376311 -0.379488 -0.382612 -0.385664 -0.388623 -0.391466 -0.394168 -0.396704 -0.399045 -0.401165 -0.403036 -0.404632 -0.405925 -0.406891 -0.407507 -0.407752 -0.407607 -0.407057 -0.406087 -0.404688 -0.402851 -0.400572 -0.397850 -0.394686 -0.391083 -0.387048 -0.382591 -0.377723 -0.372457 -0.366810 -0.360797 -0.354439 -0.347755 -0.340767 -0.333495 -0.325964 -0.318197 -0.310216 -0.302045 -0.293709 -0.285230 -0.276631 -0.267936 -0.259165 -0.250341 -0.241485 -0.232615 -0.223750 -0.214910 -0.206111 -0.197369 -0.188699 -0.180115 -0.171630 -0.163257 -0.155007 -0.146889 -0.138912 -0.131085 -0.123414 -0.115907 -0.108568 -0.101403 -0.094414 -0.087607 -0.080982 -0.074542 -0.068288 -0.062222 -0.056342 -0.050649 -0.045143 -0.039821 -0.034684 -0.029728 -0.024953 -0.020357 -0.015939 -0.011698 -0.007636 -0.003752 -0.000048 0.003474 0.006810 0.009958 0.012914 0.015675 0.018237 0.020595 0.022747 0.024688 0.026417 0.027931 0.029227 0.030306 0.031166 0.031807 0.032232 0.032442 0.032440 0.032229 0.031813 0.031197 0.030386 0.029387 0.028207 0.026852 0.025330 0.023648 0.021816 0.019842 0.017733 0.015500 0.013151 0.010694 0.008140 0.005496 0.002771 -0.000026 -0.002887 -0.005804 -0.008768 -0.011773 -0.014811 -0.017875 -0.020958 -0.024053 -0.027155 -0.030257 -0.033355 -0.036443 -0.039516 -0.042570 -0.045601 -0.048605 -0.051577 -0.054514 -0.057411 -0.060263 -0.063065 -0.065811 -0.068494 -0.071108 -0.073644 -0.076096 -0.078453 -0.080710 -0.082856 -0.084885 -0.086789 -0.088560 -0.090191 -0.091678 -0.093015 -0.094201 -0.095232 -0.096110 -0.096837 -0.097416 -0.097853 -0.098154 -0.098328 -0.098385 -0.098334 -0.098186 -0.097955 -0.097651 -0.097288 -0.096878 -0.096433 -0.095966 -0.095487 -0.095008 -0.094540 -0.094091 -0.093671 -0.093288 -0.092949 -0.092660 -0.092427 -0.092254 -0.092145 -0.092102 -0.092128 -0.092223 -0.092390 -0.092626 -0.092932 -0.093307 -0.093748 -0.094253 -0.094821 -0.095447 -0.096129 -0.096864 -0.097648 -0.098477 -0.099347 -0.100255 -0.101197 -0.102169 -0.103167 -0.104187 -0.105225 -0.106278 -0.107343 -0.108416 -0.109494 -0.110574 -0.111653 -0.112729 -0.113797 -0.114857 -0.115905 -0.116937 -0.117949 -0.118937 -0.119895 -0.120817 -0.121698 -0.122529 -0.123304 -0.124014 -0.124652 -0.125209 -0.125678 -0.126052 -0.126323 -0.126484 -0.126531 -0.126459 -0.126264 -0.125946 -0.125505 -0.124942 -0.124262 -0.123469 -0.122571 -0.121575 -0.120491 -0.119328 -0.118099 -0.116815 -0.115488 -0.114130 -0.112753 -0.111370 -0.109992 -0.108630 -0.107296 -0.105999 -0.104749 -0.103554 -0.102423 -0.101361 -0.100375 -0.099469 -0.098649 -0.097916 -0.097275 -0.096725 -0.096269 -0.095905 -0.095635 -0.095456 -0.095367 -0.095365 -0.095449 -0.095615 -0.095859 -0.096178 -0.096569 -0.097027 -0.097548 -0.098128 -0.098762 -0.099447 -0.100177 -0.100949 -0.101758 -0.102600 -0.103470 -0.104366 -0.105283 -0.106218 -0.107167 -0.108127 -0.109094 -0.110066 -0.111038 -0.112009 -0.112973 -0.113927 -0.114865 -0.115782 -0.116672 -0.117526 -0.118339 -0.119102 -0.119806 -0.120445 -0.121009 -0.121490 -0.121880 -0.122173 -0.122361 -0.122439 -0.122403 -0.122250 -0.121978 -0.121588 -0.121083 -0.120466 -0.119742 -0.118919 -0.118005 -0.117009 -0.115940 -0.114811 -0.113632 -0.112415 -0.111172 -0.109915 -0.108656 -0.107404 -0.106172 -0.104970 -0.103806 -0.102691 -0.101630 -0.100633 -0.099704 -0.098850 -0.098075 -0.097382 -0.096774 -0.096254 -0.095822 -0.095480 -0.095226 -0.095061 -0.094983 -0.094990 -0.095080 -0.095250 -0.095496 -0.095817 -0.096207 -0.096664 -0.097183 -0.097761 -0.098392 -0.099074 -0.099801 -0.100569 -0.101375 -0.102214 -0.103082 -0.103976 -0.104891 -0.105824 -0.106771 -0.107729 -0.108696 -0.109667 -0.110640 -0.111612 -0.112579 -0.113537 -0.114481 -0.115405 -0.116304 -0.117172 -0.117999 -0.118780 -0.119507 -0.120170 -0.120761 -0.121273 -0.121697 -0.122027 -0.122253 -0.122371 -0.122375 -0.122258 -0.122017 -0.121648 -0.121149 -0.120517 -0.119753 -0.118856 -0.117827 -0.116667 -0.115379 -0.113966 -0.112433 -0.110783 -0.109021 -0.107154 -0.105186 -0.103124 -0.100975 -0.098745 -0.096441 -0.094070 -0.091640 -0.089157 -0.086629 -0.084062 -0.081463 -0.078839 -0.076197 -0.073542 -0.070881 -0.068219 -0.065563 -0.062916 -0.060286 -0.057674 -0.055088 -0.052529 -0.050003 -0.047512 -0.045059 -0.042648 -0.040281 -0.037960 -0.035687 -0.033464 -0.031293 -0.029174 -0.027110 -0.025099 -0.023145 -0.021245 -0.019402 -0.017615 -0.015885 -0.014210 -0.012591 -0.011027 -0.009519 -0.008066 -0.006672 -0.005341 -0.004078 -0.002894 -0.001799 -0.000809 0.000061 0.000789 0.001357 0.001740 0.001917 0.001862 0.001553 0.000966 0.000079 -0.001129 -0.002677 -0.004581 -0.006857 -0.009517 -0.012570 -0.016023 -0.019881 -0.024145 -0.028812 -0.033880 -0.039342 -0.045189 -0.051409 -0.057989 -0.064915 -0.072170 -0.079735 -0.087591 -0.095718 -0.104093 -0.112696 -0.121504 -0.130493 -0.139641 -0.148925 -0.158323 -0.167812 -0.177370 -0.186976 -0.196610 -0.206250 -0.215879 -0.225477 -0.235027 -0.244513 -0.253920 -0.263232 -0.272436 -0.281519 -0.290471 -0.299279 -0.307936 -0.316431 -0.324757 -0.332902 -0.340857 -0.348611 -0.356149 -0.363455 -0.370512 -0.377300 -0.383798 -0.389983 -0.395831 -0.401318 -0.406419 -0.411112 -0.415373 -0.419180 -0.422514 -0.425358 -0.427700 -0.429532 -0.430850 -0.431658 -0.431963 -0.431780 -0.431128 -0.430030 -0.428517 -0.426620 -0.424375 -0.421822 -0.419000 -0.415952 -0.412721 -0.409348 -0.405876 -0.402346 -0.398797 -0.395268 -0.391793 -0.388405 -0.385136 -0.382012 -0.379057 -0.376294 -0.373741 -0.371414 -0.369325 -0.367484 -0.365898 -0.364572 -0.363509 -0.362708 -0.362168 -0.361884 -0.361851 -0.362063 -0.362510 -0.363183 -0.364072 -0.365166 -0.366453 -0.367919 -0.369554 -0.371343 -0.373274 -0.375333 -0.377507 -0.379784 -0.382151 -0.384596 -0.387107 -0.389672 -0.392280 -0.394922 -0.397587 -0.400265 -0.402948 -0.405626 -0.408287 -0.410921 -0.413514 -0.416049 -0.418508 -0.420872 -0.423117 -0.425220 -0.427156 -0.428897 -0.430417 -0.431690 -0.432688 -0.433386 -0.433760 -0.433788 -0.433451 -0.432736 -0.431631 -0.430132 -0.428241 -0.425964 -0.423312 -0.420305 -0.416963 -0.413315 -0.409390 -0.405223 -0.400851 -0.396311 -0.391644 -0.386890 -0.382089 -0.377280 -0.372502 -0.367791 -0.363184 -0.358712 -0.354406 -0.350294 -0.346399 -0.342745 -0.339351 -0.336231 -0.333399 -0.330866 -0.328638 -0.326721 -0.325117 -0.323826 -0.322846 -0.322173 -0.321800 -0.321720 -0.321925 -0.322404 -0.323146 -0.324137 -0.325367 -0.326820 -0.328484 -0.330343 -0.332383 -0.334590 -0.336950 -0.339447 -0.342067 -0.344798 -0.347624 -0.350534 -0.353515 -0.356554 -0.359640 -0.362762 -0.365910 -0.369073 -0.372240 -0.375400 -0.378538 -0.381641 -0.384691 -0.387667 -0.390550 -0.393314 -0.395935 -0.398387 -0.400642 -0.402672 -0.404450 -0.405949 -0.407143 -0.408007 -0.408521 -0.408665 -0.408426 -0.407796 -0.406770 -0.405351 -0.403546 -0.401370 -0.398841 -0.395981 -0.392820 -0.389388 -0.385719 -0.381851 -0.377821 -0.373670 -0.369436 -0.365159 -0.360879 -0.356632 -0.352455 -0.348382 -0.344444 -0.340670 -0.337087 -0.333718 -0.330584 -0.327704 -0.325091 -0.322758 -0.320714 -0.318966 -0.317518 -0.316371 -0.315525 -0.314977 -0.314722 -0.314755 -0.315066 -0.315648 -0.316489 -0.317579 -0.318905 -0.320453 -0.322212 -0.324166 -0.326302 -0.328605 -0.331062 -0.333657 -0.336378 -0.339210 -0.342139 -0.345154 -0.348240 -0.351386 -0.354580 -0.357812 -0.361070 -0.364344 -0.367624 -0.370900 -0.374158 -0.377385 -0.380566 -0.383682 -0.386712 -0.389636 -0.392428 -0.395063 -0.397515 -0.399755 -0.401757 -0.403493 -0.404936 -0.406062 -0.406845 -0.407265 -0.407302 -0.406939 -0.406161 -0.404956 -0.403316 -0.401234 -0.398709 -0.395741 -0.392331 -0.388486 -0.384214 -0.379525 -0.374433 -0.368952 -0.363098 -0.356891 -0.350349 -0.343493 -0.336345 -0.328928 -0.321265 -0.313378 -0.305292 -0.297030 -0.288616 -0.280072 -0.271422 -0.262689 -0.253893 -0.245055 -0.236196 -0.227335 -0.218491 -0.209681 -0.200921 -0.192226 -0.183613 -0.175093 -0.166680 -0.158384 -0.150217 -0.142188 -0.134304 -0.126574 -0.119005 -0.111602 -0.104370 -0.097313 -0.090436 -0.083740 -0.077229 -0.070903 -0.064763 -0.058811 -0.053045 -0.047465 -0.042071 -0.036861 -0.031829 -0.026967 -0.022259 -0.017682 -0.013203 -0.008777 -0.004352 0.000137 0.004761 0.009602 0.014746 0.020284 0.026310 0.032919 0.040205 0.048258 0.057168 0.067013 0.077870 0.089804 0.102874 0.117126 0.132601 0.149326 0.167318 0.186586 0.207127 0.228929 0.251971 0.276223 0.301648 0.328199 0.355825 0.384467 0.414064 0.444547 0.475844 0.507883 0.540586 0.573875 0.607671 0.641897 0.676471 0.711317 0.746357 0.781515 0.816719 0.851898 0.886983 0.921910 0.956615 0.991040 1.025131 1.058833 1.092100 1.124887 1.157151 1.188856 1.219966 1.250451 1.280282 1.309428 1.337857 1.365530 1.392405 1.418431 1.443550 1.467695 1.490796 1.512773 1.533544 1.553024 1.571126 1.587763 1.602852 1.616312 1.628069 1.638058 1.646226 1.652538 1.656974 1.659536 1.660245 1.659143 1.656293 1.651775 1.645687 1.638144 1.629273 1.619210 1.608102 1.596101 1.583361 1.570039 1.556290 1.542265 1.528114 1.513975 1.499984 1.486265 1.472934 1.460097 1.447847 1.436270 1.425438 1.415414 1.406249 1.397985 1.390652 1.384273 1.378860 1.374418 1.370943 1.368424 1.366845 1.366183 1.366409 1.367492 1.369396 1.372080 1.375503 1.379620 1.384386 1.389754 1.395677 1.402107 1.408996 1.416297 1.423965 1.431953 1.440219 1.448719 1.457413 1.466262 1.475227 1.484275 1.493371 1.502481 1.511567 1.520588 1.529497 1.538236 1.546745 1.554950 1.562773 1.570127 1.576922 1.583061 1.588446 1.592977 1.596557 1.599090 1.600484 1.600654 1.599527 1.597038 1.593140 1.587806 1.581026 1.572811 1.563193 1.552226 1.539982 1.526549 1.512034 1.496555 1.480242 1.463233 1.445674 1.427711 1.409495 1.391174 1.372893 1.354794 1.337012 1.319673 1.302896 1.286790 1.271454 1.256977 1.243435 1.230895 1.219413 1.209032 1.199788 1.191703 1.184793 1.179063 1.174509 1.171120 1.168879 1.167760 1.167734 1.168764 1.170811 1.173832 1.177779 1.182602 1.188251 1.194671 1.201810 1.209612 1.218023 1.226989 1.236456 1.246371 1.256684 1.267343 1.278301 1.289510 1.300927 1.312507 1.324212 1.336002 1.347838 1.359680 1.371484 1.383197 1.394765 1.406120 1.417189 1.427893 1.438143 1.447845 1.456902 1.465213 1.472676 1.479191 1.484659 1.488985 1.492083 1.493874 1.494294 1.493293 1.490842 1.486929 1.481565 1.474780 1.466627 1.457175 1.446513 1.434744 1.421985 1.408363 1.394016 1.379085 1.363716 1.348055 1.332249 1.316441 1.300769 1.285365 1.270354 1.255853 1.241969 1.228798 1.216427 1.204932 1.194378 1.184819 1.176299 1.168851 1.162499 1.157256 1.153130 1.150115 1.148203 1.147374 1.147606 1.148869 1.151129 1.154346 1.158479 1.163482 1.169306 1.175902 1.183218 1.191203 1.199803 1.208965 1.218638 1.228768 1.239307 1.250202 1.261407 1.272875 1.284560 1.296419 1.308413 1.320501 1.332646 1.344811 1.356954 1.369031 1.380992 1.392778 1.404323 1.415552 1.426385 1.436734 1.446503 1.455595 1.463911 1.471348 1.477807 1.483190 1.487405 1.490364 1.491987 1.492202 1.490947 1.488168 1.483823 1.477879 1.470317 1.461124 1.450303 1.437863 1.423825 1.408219 1.391084 1.372468 1.352423 1.331012 1.308301 1.284362 1.259272 1.233110 1.205958 1.177901 1.149025 1.119416 1.089162 1.058347 1.027058 0.995378 0.963388 0.931168 0.898795 0.866343 0.833883 0.801482 0.769204 0.737109 0.705256 0.673696 0.642479 0.611652 0.581256 0.551329 0.521905 0.493016 0.464689 0.436950 0.409819 0.383314 0.357453 0.332247 0.307707 0.283840 0.260653 0.238149 0.216329 0.195194 0.174741 0.154967 0.135868 0.117436 0.099665 0.082545 0.066067 0.050217 0.034983 0.020350 0.006301 -0.007180 -0.020113 -0.032517 -0.044411 -0.055816 -0.066754 -0.077243 -0.087306 -0.096962 -0.106232 -0.115134 -0.123687 -0.131910 -0.139818 -0.147427 -0.154753 -0.161809 -0.168607 -0.175160 -0.181478 -0.187570 -0.193445 -0.199111 -0.204574 -0.209841 -0.214916 -0.219805 -0.224510 -0.229036 -0.233385 -0.237560 -0.241562 -0.245396 -0.249060 -0.252557 -0.255887 -0.259051 -0.262051 -0.264886 -0.267559 -0.270070 -0.272420 -0.274610 -0.276643 -0.278519 -0.280239 -0.281807 -0.283223 -0.284489 -0.285606 -0.286579 -0.287409 -0.288101 -0.288656 -0.289076 -0.289364 -0.289522 -0.289549 -0.289446 -0.289213 -0.288847 -0.288348 -0.287712 -0.286937 -0.286019 -0.284954 -0.283741 -0.282374 -0.280851 -0.279171 -0.277330 -0.275328 -0.273167 -0.270847 -0.268374 -0.265751 -0.262986 -0.260087 -0.257064 -0.253928 -0.250690 -0.247364 -0.243962 -0.240500 -0.236990 -0.233448 -0.229888 -0.226323 -0.222767 -0.219234 -0.215735 -0.212282 -0.208886 -0.205557 -0.202303 -0.199134 -0.196056 -0.193075 -0.190196 -0.187424 -0.184762 -0.182213 -0.179778 -0.177458 -0.175253 -0.173164 -0.171188 -0.169325 -0.167573 -0.165931 -0.164393 -0.162958 -0.161621 -0.160378 -0.159226 -0.158161 -0.157179 -0.156275 -0.155446 -0.154686 -0.153993 -0.153361 -0.152787 -0.152267 -0.151797 -0.151374 -0.150990 -0.150647 -0.150339 -0.150064 -0.149818 -0.149598 -0.149399 -0.149216 -0.149044 -0.148877 -0.148708 -0.148530 -0.148334 -0.148113 -0.147857 -0.147558 -0.147208 -0.146798 -0.146320 -0.145765 -0.145128 -0.144402 -0.143582 -0.142666 -0.141651 -0.140537 -0.139328 -0.138025 -0.136634 -0.135161 -0.133615 -0.132004 -0.130338 -0.128628 -0.126884 -0.125119 -0.123344 -0.121570 -0.119810 -0.118073 -0.116371 -0.114713 -0.113109 -0.111568 -0.110096 -0.108702 -0.107390 -0.106167 -0.105036 -0.104001 -0.103064 -0.102228 -0.101493 -0.100859 -0.100327 -0.099894 -0.099560 -0.099322 -0.099178 -0.099125 -0.099161 -0.099281 -0.099480 -0.099755 -0.100101 -0.100513 -0.100989 -0.101521 -0.102107 -0.102742 -0.103421 -0.104140 -0.104894 -0.105680 -0.106493 -0.107330 -0.108185 -0.109056 -0.109939 -0.110832 -0.111732 -0.112634 -0.113536 -0.114433 -0.115320 -0.116193 -0.117044 -0.117867 -0.118656 -0.119401 -0.120096 -0.120731 -0.121299 -0.121791 -0.122199 -0.122515 -0.122732 -0.122844 -0.122846 -0.122733 -0.122502 -0.122155 -0.121690 -0.121112 -0.120424 -0.119631 -0.118743 -0.117766 -0.116710 -0.115586 -0.114406 -0.113179 -0.111920 -0.110638 -0.109346 -0.108056 -0.106779 -0.105525 -0.104305 -0.103127 -0.102000 -0.100933 -0.099932 -0.099002 -0.098150 -0.097379 -0.096693 -0.096094 -0.095585 -0.095166 -0.094837 -0.094599 -0.094450 -0.094390 -0.094414 -0.094523 -0.094712 -0.094980 -0.095323 -0.095735 -0.096213 -0.096754 -0.097352 -0.098005 -0.098706 -0.099453 -0.100240 -0.101064 -0.101921 -0.102806 -0.103716 -0.104646 -0.105594 -0.106556 -0.107528 -0.108507 -0.109491 -0.110475 -0.111458 -0.112435 -0.113401 -0.114353 -0.115283 -0.116187 -0.117058 -0.117887 -0.118668 -0.119392 -0.120051 -0.120637 -0.121141 -0.121556 -0.121874 -0.122088 -0.122192 -0.122180 -0.122047 -0.121788 -0.121401 -0.120883 -0.120232 -0.119448 -0.118532 -0.117483 -0.116303 -0.114997 -0.113566 -0.112014 -0.110347 -0.108570 -0.106687 -0.104705 -0.102630 -0.100469 -0.098229 -0.095916 -0.093537 -0.091100 -0.088612 -0.086079 -0.083509 -0.080909 -0.078284 -0.075642 -0.072989 -0.070331 -0.067673 -0.065021 -0.062380 -0.059756 -0.057152 -0.054573 -0.052023 -0.049506 -0.047024 -0.044582 -0.042182 -0.039826 -0.037516 -0.035255 -0.033044 -0.030885 -0.028778 -0.026726 -0.024728 -0.022786 -0.020899 -0.019068 -0.017293 -0.015575 -0.013912 -0.012305 -0.010752 -0.009250 -0.007792 -0.006363 -0.004941 -0.003496 -0.001986 -0.000359 0.001447 0.003501 0.005881 0.008672 0.011963 0.015844 0.020408 0.025747 0.031949 0.039099 0.047275 0.056550 0.066987 0.078642 0.091561 0.105779 0.121323 0.138207 0.156438 0.176011 0.196911 0.219115 0.242592 0.267301 0.293195 0.320220 0.348317 0.377419 0.407459 0.438362 0.470054 0.502456 0.535487 0.569069 0.603120 0.637559 0.672307 0.707286 0.742418 0.777629 0.812847 0.848003 0.883029 0.917863 0.952443 0.986715 1.020623 1.054120 1.087158 1.119695 1.151693 1.183117 1.213933 1.244112 1.273622 1.302430 1.330497 1.357778 1.384224 1.409773 1.434360 1.457911 1.480348 1.501588 1.521544 1.540128 1.557255 1.572838 1.586796 1.599056 1.609553 1.618234 1.625065 1.630029 1.633127 1.634383 1.633840 1.631561 1.627629 1.622143 1.615218 1.606979 1.597564 1.587120 1.575796 1.563746 1.551125 1.538087 1.524782 1.511355 1.497945 1.484684 1.471694 1.459089 1.446972 1.435436 1.424563 1.414423 1.405079 1.396578 1.388961 1.382259 1.376490 1.371667 1.367794 1.364865 1.362871 1.361793 1.361608 1.362288 1.363801 1.366111 1.369178 1.372961 1.377416 1.382497 1.388159 1.394354 1.401035 1.408156 1.415671 1.423533 1.431699 1.440125 1.448771 1.457594 1.466559 1.475627 1.484765 1.493939 1.503114 1.512254 1.521314 1.530247 1.538996 1.547496 1.555674 1.563450 1.570737 1.577442 1.583469 1.588720 1.593096 1.596498 1.598832 1.600009 1.599947 1.598576 1.595840 1.591701 1.586139 1.579156 1.570774 1.561034 1.549999 1.537749 1.524381 1.510005 1.494743 1.478729 1.462101 1.445002 1.427579 1.409978 1.392343 1.374812 1.357522 1.340599 1.324164 1.308327 1.293189 1.278840 1.265362 1.252822 1.241282 1.230787 1.221376 1.213077 1.205908 1.199878 1.194988 1.191230 1.188590 1.187047 1.186573 1.187136 1.188700 1.191224 1.194663 1.198971 1.204098 1.209994 1.216606 1.223883 1.231771 1.240217 1.249170 1.258578 1.268390 1.278557 1.289032 1.299769 1.310724 1.321854 1.333120 1.344483 1.355906 1.367348 1.378766 1.390113 1.401332 1.412360 1.423125 1.433550 1.443546 1.453022 1.461881 1.470023 1.477346 1.483749 1.489133 1.493403 1.496469 1.498250 1.498677 1.497698 1.495274 1.491390 1.486050 1.479278 1.471119 1.461638 1.450920 1.439062 1.426179 1.412396 1.397847 1.382674 1.367023 1.351041 1.334876 1.318672 1.302571 1.286709 1.271213 1.256203 1.241790 1.228076 1.215150 1.203092 1.191972 1.181848 1.172766 1.164764 1.157868 1.152095 1.147455 1.143945 1.141558 1.140278 1.140083 1.140945 1.142829 1.145699 1.149513 1.154225 1.159787 1.166150 1.173262 1.181070 1.189521 1.198561 1.208138 1.218198 1.228690 1.239562 1.250766 1.262254 1.273979 1.285898 1.297967 1.310148 1.322402 1.334691 1.346975 1.359211 1.371352 1.383342 1.395117 1.406607 1.417733 1.428409 1.438542 1.448038 1.456794 1.464712 1.471689 1.477628 1.482433 1.486015 1.488290 1.489183 1.488628 1.486567 1.482954 1.477752 1.470936 1.462492 1.452415 1.440712 1.427400 1.412505 1.396063 1.378117 1.358720 1.337928 1.315808 1.292428 1.267864 1.242195 1.215500 1.187865 1.159375 1.130115 1.100174 1.069636 1.038588 1.007114 0.975297 0.943216 0.910951 0.878575 0.846162 0.813779 0.781493 0.749366 0.717455 0.685815 0.654498 0.623550 0.593017 0.562936 0.533344 0.504273 0.475753 0.447809 0.420463 0.393737 0.367645 0.342204 0.317422 0.293311 0.269876 0.247121 0.225049 0.203661 0.182955 0.162929 0.143577 0.124896 0.106877 0.089512 0.072791 0.056703 0.041235 0.026371 0.012097 -0.001604 -0.014751 -0.027364 -0.039461 -0.051062 -0.062190 -0.072864 -0.083105 -0.092934 -0.102369 -0.111432 -0.120140 -0.128511 -0.136563 -0.144311 -0.151771 -0.158956 -0.165879 -0.172552 -0.178987 -0.185192 -0.191176 -0.196948 -0.202515 -0.207882 -0.213054 -0.218038 -0.222836 -0.227452 -0.231889 -0.236150 -0.240237 -0.244151 -0.247895 -0.251471 -0.254878 -0.258118 -0.261191 -0.264099 -0.266843 -0.269423 -0.271840 -0.274097 -0.276194 -0.278133 -0.279915 -0.281543 -0.283017 -0.284340 -0.285514 -0.286540 -0.287422 -0.288164 -0.288767 -0.289234 -0.289568 -0.289770 -0.289840 -0.289780 -0.289588 -0.289264 -0.288805 -0.288209 -0.287473 -0.286595 -0.285570 -0.284396 -0.283068 -0.281585 -0.279942 -0.278139 -0.276174 -0.274047 -0.271759 -0.269314 -0.266715 -0.263970 -0.261084 -0.258068 -0.254931 -0.251686 -0.248345 -0.244921 -0.241428 -0.237881 -0.234293 -0.230681 -0.227057 -0.223436 -0.219832 -0.216258 -0.212725 -0.209246 -0.205831 -0.202489 -0.199230 -0.196061 -0.192989 -0.190020 -0.187159 -0.184409 -0.181774 -0.179256 -0.176856 -0.174575 -0.172413 -0.170369 -0.168441 -0.166628 -0.164928 -0.163340 -0.161857 -0.160478 -0.159198 -0.158014 -0.156921 -0.155914 -0.154991 -0.154146 -0.153376 -0.152675 -0.152039 -0.151465 -0.150949 -0.150485 -0.150070 -0.149699 -0.149370 -0.149079 -0.148822 -0.148598 -0.148402 -0.148229 -0.148077 -0.147939 -0.147810 -0.147684 -0.147554 -0.147412 -0.147250 -0.147060 -0.146834 -0.146562 -0.146236 -0.145847 -0.145388 -0.144850 -0.144228 -0.143515 -0.142707 -0.141802 -0.140799 -0.139697 -0.138499 -0.137210 -0.135834 -0.134378 -0.132852 -0.131263 -0.129622 -0.127941 -0.126228 -0.124498 -0.122760 -0.121027 -0.119309 -0.117617 -0.115963 -0.114354 -0.112801 -0.111312 -0.109894 -0.108553 -0.107296 -0.106127 -0.105050 -0.104068 -0.103185 -0.102400 -0.101715 -0.101130 -0.100644 -0.100256 -0.099965 -0.099768 -0.099662 -0.099647 -0.099716 -0.099867 -0.100095 -0.100396 -0.100765 -0.101199 -0.101693 -0.102242 -0.102842 -0.103488 -0.104177 -0.104903 -0.105663 -0.106452 -0.107267 -0.108104 -0.108956 -0.109824 -0.110703 -0.111590 -0.112482 -0.113376 -0.114267 -0.115152 -0.116025 -0.116880 -0.117712 -0.118513 -0.119277 -0.119994 -0.120657 -0.121258 -0.121788 -0.122239 -0.122602 -0.122872 -0.123039 -0.123099 -0.123047 -0.122878 -0.122592 -0.122188 -0.121667 -0.121032 -0.120289 -0.119444 -0.118504 -0.117478 -0.116376 -0.115209 -0.113989 -0.112726 -0.111433 -0.110122 -0.108805 -0.107493 -0.106198 -0.104929 -0.103697 -0.102511 -0.101380 -0.100311 -0.099310 -0.098384 -0.097538 -0.096775 -0.096099 -0.095512 -0.095016 -0.094612 -0.094300 -0.094078 -0.093947 -0.093905 -0.093949 -0.094076 -0.094286 -0.094574 -0.094935 -0.095367 -0.095865 -0.096424 -0.097041 -0.097711 -0.098430 -0.099193 -0.099997 -0.100837 -0.101709 -0.102608 -0.103532 -0.104476 -0.105436 -0.106410 -0.107393 -0.108384 -0.109377 -0.110372 -0.111363 -0.112347 -0.113320 -0.114277 -0.115212 -0.116119 -0.116991 -0.117820 -0.118598 -0.119318 -0.119971 -0.120550 -0.121045 -0.121448 -0.121754 -0.121954 -0.122042 -0.122013 -0.121862 -0.121585 -0.121178 -0.120640 -0.119969 -0.119164 -0.118227 -0.117157 -0.115958 -0.114631 -0.113181 -0.111612 -0.109927 -0.108133 -0.106234 -0.104238 -0.102150 -0.099977 -0.097725 -0.095402 -0.093016 -0.090571 -0.088077 -0.085540 -0.082967 -0.080364 -0.077739 -0.075098 -0.072446 -0.069790 -0.067136 -0.064489 -0.061853 -0.059235 -0.056638 -0.054067 -0.051525 -0.049017 -0.046545 -0.044113 -0.041723 -0.039378 -0.037080 -0.034830 -0.032631 -0.030483 -0.028389 -0.026348 -0.024363 -0.022433 -0.020558 -0.018739 -0.016977 -0.015270 -0.013619 -0.012024 -0.010483 -0.008993 -0.007549 -0.006137 -0.004738 -0.003321 -0.001848 -0.000269 0.001476 0.003455 0.005745 0.008429 0.011594 0.015333 0.019736 0.024897 0.030903 0.037842 0.045792 0.054827 0.065013 0.076407 0.089057 0.103000 0.118265 0.134869 0.152819 0.172113 0.192739 0.214674 0.237889 0.262346 0.287998 0.314793 0.342671 0.371570 0.401420 0.432149 0.463682 0.495941 0.528846 0.562318 0.596275 0.630637 0.665324 0.700257 0.735359 0.770555 0.805773 0.840942 0.875995 0.910868 0.945500 0.979834 1.013815 1.047395 1.080525 1.113163 1.145268 1.176807 1.207744 1.238051 1.267695 1.296644 1.324861 1.352302 1.378917 1.404649 1.429433 1.453196 1.475862 1.497347 1.517566 1.536431 1.553855 1.569753 1.584042 1.596647 1.607498 1.616542 1.623738 1.629061 1.632510 1.634101 1.633871 1.631878 1.628198 1.622927 1.616175 1.608065 1.598734 1.588325 1.576988 1.564877 1.552149 1.538959 1.525459 1.511797 1.498116 1.484551 1.471228 1.458265 1.445769 1.433836 1.422554 1.411996 1.402228 1.393303 1.385264 1.378145 1.371968 1.366748 1.362492 1.359197 1.356853 1.355446 1.354952 1.355347 1.356597 1.358668 1.361520 1.365112 1.369401 1.374340 1.379883 1.385984 1.392594 1.399666 1.407152 1.415007 1.423186 1.431643 1.440337 1.449226 1.458271 1.467434 1.476681 1.485976 1.495286 1.504575 1.513801 1.522918 1.531874 1.540606 1.549044 1.557112 1.564723 1.571789 1.578213 1.583898 1.588745 1.592655 1.595533 1.597285 1.597828 1.597086 1.594997 1.591516 1.586615 1.580287 1.572547 1.563428 1.552984 1.541289 1.528433 1.514521 1.499672 1.484013 1.467683 1.450822 1.433577 1.416093 1.398516 1.380987 1.363643 1.346614 1.330025 1.313988 1.298610 1.283985 1.270197 1.257321 1.245419 1.234544 1.224738 1.216032 1.208448 1.201999 1.196689 1.192514 1.189463 1.187515 1.186648 1.186830 1.188027 1.190199 1.193303 1.197294 1.202123 1.207739 1.214092 1.221130 1.228799 1.237046 1.245819 1.255067 1.264738 1.274783 1.285154 1.295804 1.306688 1.317763 1.328989 1.340326 1.351738 1.363184 1.374624 1.386011 1.397293 1.408410 1.419294 1.429867 1.440048 1.449746 1.458865 1.467306 1.474969 1.481752 1.487555 1.492280 1.495837 1.498143 1.499126 1.498730 1.496917 1.493669 1.488987 1.482893 1.475429 1.466660 1.456664 1.445539 1.433394 1.420352 1.406545 1.392110 1.377189 1.361927 1.346468 1.330953 1.315521 1.300305 1.285428 1.271010 1.257158 1.243971 1.231539 1.219938 1.209237 1.199493 1.190753 1.183052 1.176418 1.170867 1.166408 1.163041 1.160758 1.159544 1.159378 1.160233 1.162076 1.164872 1.168580 1.173156 1.178554 1.184726 1.191622 1.199190 1.207380 1.216140 1.225418 1.235162 1.245324 1.255853 1.266702 1.277824 1.289175 1.300712 1.312395 1.324183 1.336041 1.347931 1.359813 1.371644 1.383374 1.394948 1.406301 1.417361 1.428047 1.438273 1.447946 1.456968 1.465240 1.472660 1.479129 1.484547 1.488822 1.491864 1.493591 1.493931 1.492818 1.490196 1.486022 1.480261 1.472889 1.463894 1.453274 1.441038 1.427203 1.411799 1.394862 1.376438 1.356578 1.335344 1.312800 1.289017 1.264071 1.238040 1.211007 1.183055 1.154271 1.124739 1.094547 1.063781 1.032527 1.000868 0.968885 0.936660 0.904269 0.871787 0.839285 0.806831 0.774490 0.742324 0.710389 0.678739 0.647425 0.616493 0.585986 0.555943 0.526399 0.497385 0.468930 0.441059 0.413794 0.387154 0.361156 0.335812 0.311133 0.287128 0.263802 0.241160 0.219204 0.197934 0.177347 0.157442 0.138212 0.119653 0.101755 0.084508 0.067897 0.051906 0.036513 0.021697 0.007428 -0.006323 -0.019589 -0.032404 -0.044805 -0.056829 -0.068516 -0.079902 -0.091025 -0.101923 -0.112630 -0.123179 -0.133602 -0.143928 -0.154181 -0.164386 -0.174563 -0.184728 -0.194897 -0.205079 -0.215285 -0.225518 -0.235782 -0.246078 -0.256404 -0.266754 -0.277125 -0.287507 -0.297891 -0.308268 -0.318625 -0.328951 -0.339231 -0.349452 -0.359602 -0.369665 -0.379627 -0.389474 -0.399192 -0.408766 -0.418185 -0.427436 -0.436506 -0.445386 -0.454063 -0.462529 -0.470775 -0.478793 -0.486575 -0.494116 -0.501410 -0.508449 -0.515234 -0.521760 -0.528024 -0.534022 -0.539750 -0.545200 -0.550364 -0.555230 -0.559787 -0.564018 -0.567908 -0.571438 -0.574589 -0.577340 -0.579672 -0.581564 -0.582998 -0.583956 -0.584423 -0.584385 -0.583835 -0.582768 -0.581187 -0.579097 -0.576512 -0.573448 -0.569929 -0.565982 -0.561639 -0.556936 -0.551910 -0.546604 -0.541059 -0.535318 -0.529427 -0.523427 -0.517363 -0.511275 -0.505204 -0.499188 -0.493263 -0.487460 -0.481811 -0.476343 -0.471081 -0.466045 -0.461254 -0.456723 -0.452465 -0.448489 -0.444803 -0.441411 -0.438315 -0.435514 -0.433008 -0.430791 -0.428858 -0.427202 -0.425814 -0.424688 -0.423810 -0.423169 -0.422754 -0.422551 -0.422548 -0.422732 -0.423090 -0.423608 -0.424274 -0.425075 -0.425998 -0.427030 -0.428160 -0.429377 -0.430668 -0.432023 -0.433430 -0.434883 -0.436370 -0.437881 -0.439406 -0.440930 -0.442438 -0.443914 -0.445337 -0.446686 -0.447938 -0.449066 -0.450045 -0.450847 -0.451444 -0.451810 -0.451917 -0.451740 -0.451255 -0.450439 -0.449276 -0.447751 -0.445855 -0.443586 -0.440943 -0.437937 -0.434579 -0.430889 -0.426889 -0.422609 -0.418078 -0.413332 -0.408407 -0.403342 -0.398177 -0.392952 -0.387707 -0.382480 -0.377310 -0.372233 -0.367283 -0.362492 -0.357890 -0.353503 -0.349354 -0.345466 -0.341855 -0.338536 -0.335523 -0.332822 -0.330442 -0.328386 -0.326655 -0.325249 -0.324164 -0.323395 -0.322936 -0.322778 -0.322912 -0.323327 -0.324012 -0.324953 -0.326136 -0.327548 -0.329173 -0.330997 -0.333005 -0.335183 -0.337515 -0.339987 -0.342584 -0.345293 -0.348099 -0.350990 -0.353952 -0.356974 -0.360041 -0.363145 -0.366276 -0.369422 -0.372572 -0.375714 -0.378835 -0.381919 -0.384947 -0.387900 -0.390755 -0.393489 -0.396076 -0.398489 -0.400701 -0.402684 -0.404410 -0.405853 -0.406986 -0.407786 -0.408230 -0.408302 -0.407986 -0.407275 -0.406165 -0.404658 -0.402761 -0.400489 -0.397860 -0.394897 -0.391629 -0.388087 -0.384306 -0.380323 -0.376177 -0.371908 -0.367556 -0.363162 -0.358764 -0.354402 -0.350111 -0.345926 -0.341879 -0.338001 -0.334317 -0.330853 -0.327629 -0.324664 -0.321972 -0.319567 -0.317458 -0.315651 -0.314150 -0.312958 -0.312074 -0.311495 -0.311216 -0.311232 -0.311533 -0.312111 -0.312957 -0.314058 -0.315401 -0.316973 -0.318760 -0.320748 -0.322922 -0.325268 -0.327772 -0.330419 -0.333194 -0.336084 -0.339074 -0.342152 -0.345304 -0.348518 -0.351782 -0.355085 -0.358415 -0.361763 -0.365118 -0.368470 -0.371805 -0.375111 -0.378372 -0.381571 -0.384688 -0.387700 -0.390585 -0.393316 -0.395867 -0.398211 -0.400320 -0.402168 -0.403726 -0.404970 -0.405875 -0.406419 -0.406582 -0.406347 -0.405698 -0.404622 -0.403112 -0.401160 -0.398764 -0.395922 -0.392637 -0.388914 -0.384761 -0.380187 -0.375207 -0.369833 -0.364082 -0.357972 -0.351523 -0.344754 -0.337689 -0.330348 -0.322755 -0.314934 -0.306908 -0.298700 -0.290334 -0.281834 -0.273222 -0.264520 -0.255752 -0.246937 