4.77603700043692036559 4.77603700043692036559 4.77603700043692036559 6.40637944616653864927 3.14569455470730074964 3.14569455470730074964 6.40637944616653864927 8.03672189189615870930 8.03672189189615870930 9.66706433762577788116 9.66706433762577788116 6.40637944616653864927 4.77603700043692036559 6.40637944616653864927 11.29740678335539527666 8.03672189189615870930 8.03672189189615870930 4.77603700043692036559 4.77603700043692036559 3.14569455470730074964 6.40637944616653864927 6.40637944616653864927 6.40637944616653864927 6.40637944616653864927 6.40637944616653864927 9.66706433762577788116 8.03672189189615870930 9.66706433762577788116 8.03672189189615870930 8.03672189189615870930 8.03672189189615870930 9.66706433762577788116 8.03672189189615870930 9.66706433762577788116 8.03672189189615870930 6.40637944616653864927 9.66706433762577788116 8.03672189189615870930 4.77603700043692036559 6.40637944616653864927 6.40637944616653864927 4.77603700043692036559 4.77603700043692036559 6.40637944616653864927 1.51535210897768113369 4.77603700043692036559 4.77603700043692036559 1.51535210897768113369 4.77603700043692036559 4.77603700043692036559 1.51535210897768113369 6.40637944616653864927 4.77603700043692036559 1.51535210897768113369 1.51535210897768113369 1.51535210897768113369 1.51535210897768113369 1.51535210897768113369 -0.11499033675193787163 -1.74533278248155698797 -1.74533278248155698797 -1.74533278248155698797 1.51535210897768113369 3.14569455470730074964 3.14569455470730074964 3.14569455470730074964 -0.11499033675193787163 -0.11499033675193787163 1.51535210897768113369 1.51535210897768113369 1.51535210897768113369 6.40637944616653864927 -0.11499033675193787163 -5.00601767394079555373 -0.11499033675193787163 -1.74533278248155698797 -0.11499033675193787163 1.51535210897768113369 1.51535210897768113369 -1.74533278248155698797 -3.37567522821117593779 -3.37567522821117593779 -0.11499033675193787163 -1.74533278248155698797 -1.74533278248155698797 -3.37567522821117593779 -3.37567522821117593779 -5.00601767394079555373 -5.00601767394079555373 -8.26670256540003478563 -6.63636011967041472559 -3.37567522821117593779 -6.63636011967041472559 -3.37567522821117593779 -1.74533278248155698797 -5.00601767394079555373 -3.37567522821117593779 -8.26670256540003478563 -5.00601767394079555373 -5.00601767394079555373 -5.00601767394079555373 -3.37567522821117593779 -6.63636011967041472559 -1.74533278248155698797 -5.00601767394079555373 -5.00601767394079555373 -5.00601767394079555373 -6.63636011967041472559 -8.26670256540003478563 -6.63636011967041472559 -3.37567522821117593779 -5.00601767394079555373 -5.00601767394079555373 -5.00601767394079555373 -6.63636011967041472559 -8.26670256540003478563 -9.89704501112965395748 -8.26670256540003478563 -5.00601767394079555373 -3.37567522821117593779 -6.63636011967041472559 -5.00601767394079555373 -5.00601767394079555373 -6.63636011967041472559 -11.52738745685927312934 -6.63636011967041472559 -5.00601767394079555373 -3.37567522821117593779 -3.37567522821117593779 -5.00601767394079555373 -6.63636011967041472559 -1.74533278248155698797 -5.00601767394079555373 -5.00601767394079555373 -1.74533278248155698797 -3.37567522821117593779 -3.37567522821117593779 -8.26670256540003478563 -1.74533278248155698797 1.51535210897768113369 -0.11499033675193787163 -0.11499033675193787163 -1.74533278248155698797 -3.37567522821117593779 -1.74533278248155698797 -1.74533278248155698797 -1.74533278248155698797 -0.11499033675193787163 1.51535210897768113369 -1.74533278248155698797 -0.11499033675193787163 -0.11499033675193787163 -0.11499033675193787163 -0.11499033675193787163 -0.11499033675193787163 1.51535210897768113369 1.51535210897768113369 -1.74533278248155698797 -3.37567522821117593779 -1.74533278248155698797 -0.11499033675193787163 1.51535210897768113369 -0.11499033675193787163 1.51535210897768113369 -0.11499033675193787163 3.14569455470730074964 -1.74533278248155698797 -5.00601767394079555373 -5.00601767394079555373 -1.74533278248155698797 -1.74533278248155698797 3.14569455470730074964 -0.11499033675193787163 -1.74533278248155698797 1.51535210897768113369 -0.11499033675193787163 -3.37567522821117593779 -3.37567522821117593779 -3.37567522821117593779 -3.37567522821117593779 -0.11499033675193787163 -3.37567522821117593779 -1.74533278248155698797 -0.11499033675193787163 -3.37567522821117593779 -0.11499033675193787163 -1.74533278248155698797 -1.74533278248155698797 -0.11499033675193787163 -1.74533278248155698797 -3.37567522821117593779 -3.37567522821117593779 -0.11499033675193787163 3.14569455470730074964 -1.74533278248155698797 1.51535210897768113369 -0.11499033675193787163 -3.37567522821117593779 -1.74533278248155698797 -3.37567522821117593779 -0.11499033675193787163 -3.37567522821117593779 1.51535210897768113369 1.51535210897768113369 -0.11499033675193787163 -1.74533278248155698797 -3.37567522821117593779 -0.11499033675193787163 -0.11499033675193787163 1.51535210897768113369 1.51535210897768113369 -3.37567522821117593779 -1.74533278248155698797 -0.11499033675193787163 -1.74533278248155698797 -3.37567522821117593779 -3.37567522821117593779 -0.11499033675193787163 -1.74533278248155698797 -1.74533278248155698797 -0.11499033675193787163 -1.74533278248155698797 -0.11499033675193787163 -3.37567522821117593779 -1.74533278248155698797 -3.37567522821117593779 -0.11499033675193787163 -0.11499033675193787163 -3.37567522821117593779 -1.74533278248155698797 -5.00601767394079555373 -3.37567522821117593779 -5.00601767394079555373 -3.37567522821117593779 1.51535210897768113369 -0.11499033675193787163 -0.11499033675193787163 -5.00601767394079555373 -3.37567522821117593779 -5.00601767394079555373 -5.00601767394079555373 -5.00601767394079555373 -3.37567522821117593779 -1.74533278248155698797 -1.74533278248155698797 -1.74533278248155698797 -1.74533278248155698797 -3.37567522821117593779 -3.37567522821117593779 -3.37567522821117593779 -0.11499033675193787163 -1.74533278248155698797 -0.11499033675193787163 -0.11499033675193787163 -5.00601767394079555373 -3.37567522821117593779 -1.74533278248155698797 -1.74533278248155698797 1.51535210897768113369 1.51535210897768113369 -0.11499033675193787163 -1.74533278248155698797 -1.74533278248155698797 -0.11499033675193787163 -0.11499033675193787163 1.51535210897768113369 1.51535210897768113369 1.51535210897768113369 -1.74533278248155698797 1.51535210897768113369 -1.74533278248155698797 3.14569455470730074964 3.14569455470730074964 1.51535210897768113369 1.51535210897768113369 -0.11499033675193787163 -0.11499033675193787163 -1.74533278248155698797 -0.11499033675193787163 -5.00601767394079555373 -3.37567522821117593779 -1.74533278248155698797 -0.11499033675193787163 -1.74533278248155698797 1.51535210897768113369 -0.11499033675193787163 -0.11499033675193787163 -1.74533278248155698797 -3.37567522821117593779 -1.74533278248155698797 -1.74533278248155698797 -1.74533278248155698797 -0.11499033675193787163 -0.11499033675193787163 -3.37567522821117593779 -1.74533278248155698797 -1.74533278248155698797 -3.37567522821117593779 -5.00601767394079555373 -3.37567522821117593779 -1.74533278248155698797 -1.74533278248155698797 -0.11499033675193787163 -0.11499033675193787163 -3.37567522821117593779 -0.11499033675193787163 -3.37567522821117593779 -5.00601767394079555373 -3.37567522821117593779 -1.74533278248155698797 -0.11499033675193787163 -3.37567522821117593779 -1.74533278248155698797 -5.00601767394079555373 -3.37567522821117593779 -1.74533278248155698797 -5.00601767394079555373 -6.63636011967041472559 -0.11499033675193787163 -0.11499033675193787163 -0.11499033675193787163 -0.11499033675193787163 -3.37567522821117593779 -1.74533278248155698797 -3.37567522821117593779 -8.26670256540003478563 -1.74533278248155698797 -5.00601767394079555373 -1.74533278248155698797 -3.37567522821117593779 -1.74533278248155698797 -1.74533278248155698797 -0.11499033675193787163 -1.74533278248155698797 -5.00601767394079555373 -5.00601767394079555373 -5.00601767394079555373 -3.37567522821117593779 1.51535210897768113369 -1.74533278248155698797 -5.00601767394079555373 -1.74533278248155698797 -1.74533278248155698797 -3.37567522821117593779 -5.00601767394079555373 -5.00601767394079555373 -1.74533278248155698797 1.51535210897768113369 -1.74533278248155698797 -1.74533278248155698797 -1.74533278248155698797 -3.37567522821117593779 -3.37567522821117593779 -5.00601767394079555373 -3.37567522821117593779 -5.00601767394079555373 -3.37567522821117593779 -0.11499033675193787163 -3.37567522821117593779 -3.37567522821117593779 -3.37567522821117593779 -0.11499033675193787163 -1.74533278248155698797 -3.37567522821117593779 -5.00601767394079555373 -1.74533278248155698797 -0.11499033675193787163 -1.74533278248155698797 -0.11499033675193787163 -1.74533278248155698797 -1.74533278248155698797 -3.37567522821117593779 -5.00601767394079555373 -5.00601767394079555373 1.51535210897768113369 -3.37567522821117593779 -0.11499033675193787163 -3.37567522821117593779 -1.74533278248155698797 -0.11499033675193787163 -0.11499033675193787163 -3.37567522821117593779 -0.11499033675193787163 -1.74533278248155698797 -0.11499033675193787163 -0.11499033675193787163 -1.74533278248155698797 1.51535210897768113369 -1.74533278248155698797 -1.74533278248155698797 -3.37567522821117593779 -0.11499033675193787163 -1.74533278248155698797 1.51535210897768113369 3.14569455470730074964 -0.11499033675193787163 -0.11499033675193787163 1.51535210897768113369 -1.74533278248155698797 -0.11499033675193787163 -0.11499033675193787163 -0.11499033675193787163 3.14569455470730074964 -0.11499033675193787163 -0.11499033675193787163 1.51535210897768113369 3.14569455470730074964 -1.74533278248155698797 -0.11499033675193787163 -0.11499033675193787163 -0.11499033675193787163 3.14569455470730074964 4.77603700043692036559 3.14569455470730074964 6.40637944616653864927 3.14569455470730074964 3.14569455470730074964 -1.74533278248155698797 1.51535210897768113369 3.14569455470730074964 4.77603700043692036559 1.51535210897768113369 3.14569455470730074964 3.14569455470730074964 1.51535210897768113369 3.14569455470730074964 1.51535210897768113369 1.51535210897768113369 6.40637944616653864927 1.51535210897768113369 4.77603700043692036559 3.14569455470730074964 1.51535210897768113369 1.51535210897768113369 -1.74533278248155698797 -0.11499033675193787163 4.77603700043692036559 1.51535210897768113369 3.14569455470730074964 4.77603700043692036559 1.51535210897768113369 3.14569455470730074964 -0.11499033675193787163 1.51535210897768113369 4.77603700043692036559 1.51535210897768113369 3.14569455470730074964 4.77603700043692036559 1.51535210897768113369 1.51535210897768113369 -1.74533278248155698797 -0.11499033675193787163 6.40637944616653864927 1.51535210897768113369 4.77603700043692036559 3.14569455470730074964 3.14569455470730074964 -0.11499033675193787163 1.51535210897768113369 -0.11499033675193787163 3.14569455470730074964 3.14569455470730074964 3.14569455470730074964 3.14569455470730074964 1.51535210897768113369 1.51535210897768113369 1.51535210897768113369 -0.11499033675193787163 -0.11499033675193787163 3.14569455470730074964 1.51535210897768113369 3.14569455470730074964 3.14569455470730074964 3.14569455470730074964 1.51535210897768113369 3.14569455470730074964 -0.11499033675193787163 3.14569455470730074964 3.14569455470730074964 4.77603700043692036559 1.51535210897768113369 1.51535210897768113369 1.51535210897768113369 3.14569455470730074964 -0.11499033675193787163 3.14569455470730074964 3.14569455470730074964 3.14569455470730074964 3.14569455470730074964 -0.11499033675193787163 3.14569455470730074964 1.51535210897768113369 -0.11499033675193787163 3.14569455470730074964 3.14569455470730074964 8.03672189189615870930 6.40637944616653864927 6.40637944616653864927 1.51535210897768113369 1.51535210897768113369 4.77603700043692036559 3.14569455470730074964 6.40637944616653864927 4.77603700043692036559 3.14569455470730074964 4.77603700043692036559 4.77603700043692036559 4.77603700043692036559 4.77603700043692036559 4.77603700043692036559 4.77603700043692036559 9.66706433762577788116 9.66706433762577788116 9.66706433762577788116 4.77603700043692036559 8.03672189189615870930 6.40637944616653864927 3.14569455470730074964 4.77603700043692036559 6.40637944616653864927 8.03672189189615870930 6.40637944616653864927 8.03672189189615870930 6.40637944616653864927 4.77603700043692036559 6.40637944616653864927 6.40637944616653864927 9.66706433762577788116 9.66706433762577788116 6.40637944616653864927 11.29740678335539527666 11.29740678335539527666 8.03672189189615870930 8.03672189189615870930 6.40637944616653864927 6.40637944616653864927 9.66706433762577788116 8.03672189189615870930 6.40637944616653864927 6.40637944616653864927 8.03672189189615870930 4.77603700043692036559 6.40637944616653864927 9.66706433762577788116 9.66706433762577788116 6.40637944616653864927 6.40637944616653864927 9.66706433762577788116 6.40637944616653864927 6.40637944616653864927 9.66706433762577788116 6.40637944616653864927 6.40637944616653864927 6.40637944616653864927 8.03672189189615870930 9.66706433762577788116 6.40637944616653864927 8.03672189189615870930 8.03672189189615870930 4.77603700043692036559 8.03672189189615870930 9.66706433762577788116 11.29740678335539527666 8.03672189189615870930 9.66706433762577788116 8.03672189189615870930 8.03672189189615870930 9.66706433762577788116 8.03672189189615870930 8.03672189189615870930 11.29740678335539527666 9.66706433762577788116 11.29740678335539527666 9.66706433762577788116 6.40637944616653864927 8.03672189189615870930 1.51535210897768113369 6.40637944616653864927 6.40637944616653864927 6.40637944616653864927 8.03672189189615870930 9.66706433762577788116 11.29740678335539527666 8.03672189189615870930 6.40637944616653864927 6.40637944616653864927 6.40637944616653864927 8.03672189189615870930 9.66706433762577788116 8.03672189189615870930 9.66706433762577788116 6.40637944616653864927 6.40637944616653864927 9.66706433762577788116 9.66706433762577788116 9.66706433762577788116 9.66706433762577788116 8.03672189189615870930 9.66706433762577788116 9.66706433762577788116 4.77603700043692036559 9.66706433762577788116 6.40637944616653864927 12.92774922908501444851 9.66706433762577788116 9.66706433762577788116 8.03672189189615870930 6.40637944616653864927 6.40637944616653864927 6.40637944616653864927 8.03672189189615870930 8.03672189189615870930 9.66706433762577788116 6.40637944616653864927 6.40637944616653864927 9.66706433762577788116 9.66706433762577788116 12.92774922908501444851 8.03672189189615870930 8.03672189189615870930 9.66706433762577788116 8.03672189189615870930 8.03672189189615870930 9.66706433762577788116 9.66706433762577788116 9.66706433762577788116 6.40637944616653864927 8.03672189189615870930 8.03672189189615870930 8.03672189189615870930 4.77603700043692036559 6.40637944616653864927 8.03672189189615870930 6.40637944616653864927 9.66706433762577788116 6.40637944616653864927 8.03672189189615870930 3.14569455470730074964 6.40637944616653864927 8.03672189189615870930 8.03672189189615870930 9.66706433762577788116 6.40637944616653864927 6.40637944616653864927 8.03672189189615870930 3.14569455470730074964 4.77603700043692036559 3.14569455470730074964 4.77603700043692036559 3.14569455470730074964 4.77603700043692036559 4.77603700043692036559 3.14569455470730074964 3.14569455470730074964 1.51535210897768113369 4.77603700043692036559 3.14569455470730074964 -0.11499033675193787163 3.14569455470730074964 3.14569455470730074964 4.77603700043692036559 6.40637944616653864927 3.14569455470730074964 1.51535210897768113369 3.14569455470730074964 1.51535210897768113369 3.14569455470730074964 4.77603700043692036559 4.77603700043692036559 4.77603700043692036559 1.51535210897768113369 3.14569455470730074964 4.77603700043692036559 3.14569455470730074964 1.51535210897768113369 1.51535210897768113369 -1.74533278248155698797 1.51535210897768113369 -0.11499033675193787163 6.40637944616653864927 6.40637944616653864927 4.77603700043692036559 4.77603700043692036559 3.14569455470730074964 4.77603700043692036559 3.14569455470730074964 6.40637944616653864927 4.77603700043692036559 3.14569455470730074964 1.51535210897768113369 4.77603700043692036559 1.51535210897768113369 1.51535210897768113369 4.77603700043692036559 3.14569455470730074964 4.77603700043692036559 3.14569455470730074964 4.77603700043692036559 6.40637944616653864927 4.77603700043692036559 3.14569455470730074964 3.14569455470730074964 3.14569455470730074964 6.40637944616653864927 3.14569455470730074964 4.77603700043692036559 4.77603700043692036559 6.40637944616653864927 4.77603700043692036559 1.51535210897768113369 -0.11499033675193787163 4.77603700043692036559 9.66706433762577788116 4.77603700043692036559 6.40637944616653864927 6.40637944616653864927 4.77603700043692036559 3.14569455470730074964 3.14569455470730074964 3.14569455470730074964 1.51535210897768113369 1.51535210897768113369 4.77603700043692036559 6.40637944616653864927 4.77603700043692036559 3.14569455470730074964 6.40637944616653864927 4.77603700043692036559 6.40637944616653864927 3.14569455470730074964 3.14569455470730074964 3.14569455470730074964 8.03672189189615870930 6.40637944616653864927 6.40637944616653864927 8.03672189189615870930 4.77603700043692036559 3.14569455470730074964 1.51535210897768113369 4.77603700043692036559 8.03672189189615870930 8.03672189189615870930 9.66706433762577788116 8.03672189189615870930 8.03672189189615870930 6.40637944616653864927 8.03672189189615870930 4.77603700043692036559 3.14569455470730074964 8.03672189189615870930 4.77603700043692036559 8.03672189189615870930 6.40637944616653864927 6.40637944616653864927 8.03672189189615870930 4.77603700043692036559 6.40637944616653864927 1.51535210897768113369 4.77603700043692036559 8.03672189189615870930 6.40637944616653864927 8.03672189189615870930 6.40637944616653864927 6.40637944616653864927 6.40637944616653864927 6.40637944616653864927 4.77603700043692036559 11.29740678335539527666 11.29740678335539527666 6.40637944616653864927 8.03672189189615870930 4.77603700043692036559 4.77603700043692036559 6.40637944616653864927 3.14569455470730074964 8.03672189189615870930 8.03672189189615870930 8.03672189189615870930 6.40637944616653864927 9.66706433762577788116 4.77603700043692036559 3.14569455470730074964 4.77603700043692036559 6.40637944616653864927 8.03672189189615870930 4.77603700043692036559 4.77603700043692036559 6.40637944616653864927 6.40637944616653864927 4.77603700043692036559 4.77603700043692036559 4.77603700043692036559 8.03672189189615870930 4.77603700043692036559 8.03672189189615870930 4.77603700043692036559 8.03672189189615870930 6.40637944616653864927 4.77603700043692036559 4.77603700043692036559 4.77603700043692036559 6.40637944616653864927 8.03672189189615870930 4.77603700043692036559 4.77603700043692036559 4.77603700043692036559 3.14569455470730074964 1.51535210897768113369 3.14569455470730074964 6.40637944616653864927 4.77603700043692036559 3.14569455470730074964 3.14569455470730074964 3.14569455470730074964 1.51535210897768113369 4.77603700043692036559 1.51535210897768113369 3.14569455470730074964 3.14569455470730074964 9.66706433762577788116 3.14569455470730074964 3.14569455470730074964 6.40637944616653864927 -0.11499033675193787163 3.14569455470730074964 3.14569455470730074964 -0.11499033675193787163 1.51535210897768113369 4.77603700043692036559 3.14569455470730074964 3.14569455470730074964 -0.11499033675193787163 -1.74533278248155698797 -0.11499033675193787163 1.51535210897768113369 1.51535210897768113369 1.51535210897768113369 3.14569455470730074964 3.14569455470730074964 3.14569455470730074964 3.14569455470730074964 1.51535210897768113369 3.14569455470730074964 3.14569455470730074964 -1.74533278248155698797 1.51535210897768113369 -0.11499033675193787163 4.77603700043692036559 3.14569455470730074964 3.14569455470730074964 3.14569455470730074964 1.51535210897768113369 -0.11499033675193787163 -1.74533278248155698797 1.51535210897768113369 6.40637944616653864927 6.40637944616653864927 6.40637944616653864927 1.51535210897768113369 3.14569455470730074964 4.77603700043692036559 1.51535210897768113369 6.40637944616653864927 6.40637944616653864927 3.14569455470730074964 3.14569455470730074964 3.14569455470730074964 3.14569455470730074964 3.14569455470730074964 1.51535210897768113369 -0.11499033675193787163 3.14569455470730074964 6.40637944616653864927 4.77603700043692036559 4.77603700043692036559 3.14569455470730074964 8.03672189189615870930 1.51535210897768113369 1.51535210897768113369 -0.11499033675193787163 3.14569455470730074964 4.77603700043692036559 3.14569455470730074964 4.77603700043692036559 4.77603700043692036559 6.40637944616653864927 3.14569455470730074964 3.14569455470730074964 4.77603700043692036559 4.77603700043692036559 8.03672189189615870930 8.03672189189615870930 8.03672189189615870930 8.03672189189615870930 6.40637944616653864927 4.77603700043692036559 4.77603700043692036559 4.77603700043692036559 3.14569455470730074964 6.40637944616653864927 11.29740678335539527666 3.14569455470730074964 6.40637944616653864927 8.03672189189615870930 8.03672189189615870930 9.66706433762577788116 6.40637944616653864927 4.77603700043692036559 4.77603700043692036559 9.66706433762577788116 8.03672189189615870930 6.40637944616653864927 8.03672189189615870930 9.66706433762577788116 8.03672189189615870930 6.40637944616653864927 6.40637944616653864927 6.40637944616653864927 9.66706433762577788116 11.29740678335539527666 8.03672189189615870930 11.29740678335539527666 9.66706433762577788116 8.03672189189615870930 3.14569455470730074964 6.40637944616653864927 8.03672189189615870930 8.03672189189615870930 11.29740678335539527666 9.66706433762577788116 11.29740678335539527666 6.40637944616653864927 6.40637944616653864927 9.66706433762577788116 8.03672189189615870930 4.77603700043692036559 4.77603700043692036559 9.66706433762577788116 8.03672189189615870930 9.66706433762577788116 4.77603700043692036559 1.51535210897768113369 3.14569455470730074964 4.77603700043692036559 11.29740678335539527666 11.29740678335539527666 6.40637944616653864927 8.03672189189615870930 4.77603700043692036559 3.14569455470730074964 3.14569455470730074964 3.14569455470730074964 1.51535210897768113369 4.77603700043692036559 3.14569455470730074964 3.14569455470730074964 6.40637944616653864927 6.40637944616653864927 4.77603700043692036559 4.77603700043692036559 1.51535210897768113369 3.14569455470730074964 6.40637944616653864927 4.77603700043692036559 3.14569455470730074964 6.40637944616653864927 4.77603700043692036559 8.03672189189615870930 4.77603700043692036559 1.51535210897768113369 3.14569455470730074964 3.14569455470730074964 4.77603700043692036559 4.77603700043692036559 6.40637944616653864927 6.40637944616653864927 4.77603700043692036559 3.14569455470730074964 1.51535210897768113369 3.14569455470730074964 4.77603700043692036559 4.77603700043692036559 4.77603700043692036559 6.40637944616653864927 3.14569455470730074964 4.77603700043692036559 3.14569455470730074964 1.51535210897768113369 4.77603700043692036559 3.14569455470730074964 4.77603700043692036559 3.14569455470730074964 3.14569455470730074964 3.14569455470730074964 3.14569455470730074964 3.14569455470730074964 4.77603700043692036559 6.40637944616653864927 6.40637944616653864927 4.77603700043692036559 9.66706433762577788116 9.66706433762577788116 9.66706433762577788116 12.92774922908501444851 6.40637944616653864927 6.40637944616653864927 4.77603700043692036559 1.51535210897768113369 1.51535210897768113369 1.51535210897768113369 3.14569455470730074964 3.14569455470730074964 1.51535210897768113369 1.51535210897768113369 1.51535210897768113369 4.77603700043692036559 -0.11499033675193787163 1.51535210897768113369 1.51535210897768113369 3.14569455470730074964 1.51535210897768113369 3.14569455470730074964 6.40637944616653864927 3.14569455470730074964 3.14569455470730074964 -3.37567522821117593779 -1.74533278248155698797 -0.11499033675193787163 -0.11499033675193787163 4.77603700043692036559 -0.11499033675193787163 -0.11499033675193787163 3.14569455470730074964 3.14569455470730074964 -0.11499033675193787163 3.14569455470730074964 1.51535210897768113369 3.14569455470730074964 -0.11499033675193787163 4.77603700043692036559 1.51535210897768113369 1.51535210897768113369 1.51535210897768113369 -1.74533278248155698797 -0.11499033675193787163 -1.74533278248155698797 -3.37567522821117593779 -0.11499033675193787163 1.51535210897768113369 -0.11499033675193787163 -1.74533278248155698797 1.51535210897768113369 -3.37567522821117593779 -3.37567522821117593779 -3.37567522821117593779 -6.63636011967041472559 -3.37567522821117593779 -1.74533278248155698797 -1.74533278248155698797 -1.74533278248155698797 -3.37567522821117593779 -1.74533278248155698797 -3.37567522821117593779 -1.74533278248155698797 -8.26670256540003478563 -6.63636011967041472559 -9.89704501112965395748 -9.89704501112965395748 -6.63636011967041472559 -6.63636011967041472559 -6.63636011967041472559 -5.00601767394079555373 -6.63636011967041472559 -8.26670256540003478563 -11.52738745685927312934 -11.52738745685927312934 -11.52738745685927312934 -11.52738745685927312934 -9.89704501112965395748 -6.63636011967041472559 -9.89704501112965395748 -9.89704501112965395748 -8.26670256540003478563 -11.52738745685927312934 -11.52738745685927312934 -16.41841479404813242127 -11.52738745685927312934 -11.52738745685927312934 -11.52738745685927312934 -9.89704501112965395748 -13.15772990258889052484 -11.52738745685927312934 -13.15772990258889052484 -14.78807234831851147305 -14.78807234831851147305 -14.78807234831851147305 -13.15772990258889052484 -13.15772990258889052484 -13.15772990258889052484 -14.78807234831851147305 -16.41841479404813242127 -14.78807234831851147305 -13.15772990258889052484 -14.78807234831851147305 -9.89704501112965395748 -11.52738745685927312934 -11.52738745685927312934 -11.52738745685927312934 -11.52738745685927312934 -9.89704501112965395748 -9.89704501112965395748 -6.63636011967041472559 -8.26670256540003478563 -8.26670256540003478563 -9.89704501112965395748 -9.89704501112965395748 -8.26670256540003478563 -6.63636011967041472559 -6.63636011967041472559 -6.63636011967041472559 -3.37567522821117593779 -3.37567522821117593779 -1.74533278248155698797 -3.37567522821117593779 -3.37567522821117593779 -1.74533278248155698797 -5.00601767394079555373 -3.37567522821117593779 -3.37567522821117593779 -3.37567522821117593779 -0.11499033675193787163 -0.11499033675193787163 3.14569455470730074964 1.51535210897768113369 4.77603700043692036559 1.51535210897768113369 3.14569455470730074964 3.14569455470730074964 3.14569455470730074964 1.51535210897768113369 4.77603700043692036559 4.77603700043692036559 1.51535210897768113369 3.14569455470730074964 4.77603700043692036559 6.40637944616653864927 8.03672189189615870930 6.40637944616653864927 4.77603700043692036559 6.40637944616653864927 8.03672189189615870930 1.51535210897768113369 4.77603700043692036559 4.77603700043692036559 -0.11499033675193787163 1.51535210897768113369 -1.74533278248155698797 -0.11499033675193787163 1.51535210897768113369 -1.74533278248155698797 -1.74533278248155698797 -0.11499033675193787163 -3.37567522821117593779 1.51535210897768113369 3.14569455470730074964 -0.11499033675193787163 -1.74533278248155698797 -1.74533278248155698797 4.77603700043692036559 -5.00601767394079555373 3.14569455470730074964 -3.37567522821117593779 -8.26670256540003478563 -8.26670256540003478563 -1.74533278248155698797 -3.37567522821117593779 -6.63636011967041472559 -8.26670256540003478563 -6.63636011967041472559 -6.63636011967041472559 -6.63636011967041472559 -6.63636011967041472559 -8.26670256540003478563 -5.00601767394079555373 -5.00601767394079555373 -5.00601767394079555373 -5.00601767394079555373 -5.00601767394079555373 -8.26670256540003478563 -8.26670256540003478563 -9.89704501112965395748 -8.26670256540003478563 -8.26670256540003478563 -6.63636011967041472559 -5.00601767394079555373 -8.26670256540003478563 -8.26670256540003478563 -6.63636011967041472559 -3.37567522821117593779 -1.74533278248155698797 -3.37567522821117593779 -6.63636011967041472559 -3.37567522821117593779 -3.37567522821117593779 -0.11499033675193787163 -5.00601767394079555373 -1.74533278248155698797 -3.37567522821117593779 -3.37567522821117593779 -0.11499033675193787163 -0.11499033675193787163 -3.37567522821117593779 -3.37567522821117593779 -0.11499033675193787163 -0.11499033675193787163 3.14569455470730074964 -0.11499033675193787163 1.51535210897768113369 3.14569455470730074964 3.14569455470730074964 4.77603700043692036559 1.51535210897768113369 1.51535210897768113369 6.40637944616653864927 4.77603700043692036559 4.77603700043692036559 3.14569455470730074964 3.14569455470730074964 3.14569455470730074964 4.77603700043692036559 6.40637944616653864927 4.77603700043692036559 6.40637944616653864927 4.77603700043692036559 1.51535210897768113369 3.14569455470730074964 -0.11499033675193787163 4.77603700043692036559 4.77603700043692036559 4.77603700043692036559 6.40637944616653864927 4.77603700043692036559 4.77603700043692036559 3.14569455470730074964 1.51535210897768113369 3.14569455470730074964 4.77603700043692036559 6.40637944616653864927 4.77603700043692036559 1.51535210897768113369 1.51535210897768113369 -0.11499033675193787163 1.51535210897768113369 8.03672189189615870930 1.51535210897768113369 1.51535210897768113369 3.14569455470730074964 -1.74533278248155698797 1.51535210897768113369 -1.74533278248155698797 3.14569455470730074964 -0.11499033675193787163 -0.11499033675193787163 -0.11499033675193787163 -1.74533278248155698797 -0.11499033675193787163 -5.00601767394079555373 -1.74533278248155698797 -0.11499033675193787163 -0.11499033675193787163 3.14569455470730074964 -0.11499033675193787163 -0.11499033675193787163 -3.37567522821117593779 -3.37567522821117593779 -5.00601767394079555373 -3.37567522821117593779 -5.00601767394079555373 -3.37567522821117593779 -1.74533278248155698797 -5.00601767394079555373 -1.74533278248155698797 -5.00601767394079555373 -3.37567522821117593779 -3.37567522821117593779 -3.37567522821117593779 -1.74533278248155698797 -1.74533278248155698797 -1.74533278248155698797 -1.74533278248155698797 -3.37567522821117593779 -3.37567522821117593779 -1.74533278248155698797 -1.74533278248155698797 -1.74533278248155698797 -1.74533278248155698797 1.51535210897768113369 -3.37567522821117593779 -0.11499033675193787163 -3.37567522821117593779 -3.37567522821117593779 -3.37567522821117593779 -3.37567522821117593779 -1.74533278248155698797 3.14569455470730074964 -3.37567522821117593779 -0.11499033675193787163 1.51535210897768113369 -1.74533278248155698797 -0.11499033675193787163 1.51535210897768113369 -0.11499033675193787163 4.77603700043692036559 -0.11499033675193787163 -1.74533278248155698797 1.51535210897768113369 1.51535210897768113369 -1.74533278248155698797 1.51535210897768113369 3.14569455470730074964 3.14569455470730074964 3.14569455470730074964 3.14569455470730074964 3.14569455470730074964 1.51535210897768113369 -0.11499033675193787163 6.40637944616653864927 4.77603700043692036559 3.14569455470730074964 6.40637944616653864927 4.77603700043692036559 3.14569455470730074964 4.77603700043692036559 4.77603700043692036559 4.77603700043692036559 4.77603700043692036559 6.40637944616653864927 3.14569455470730074964 3.14569455470730074964 3.14569455470730074964 1.51535210897768113369 1.51535210897768113369 6.40637944616653864927 4.77603700043692036559 6.40637944616653864927 4.77603700043692036559 6.40637944616653864927 3.14569455470730074964 6.40637944616653864927 1.51535210897768113369 3.14569455470730074964 6.40637944616653864927 4.77603700043692036559 6.40637944616653864927 8.03672189189615870930 4.77603700043692036559 8.03672189189615870930 4.77603700043692036559 4.77603700043692036559 1.51535210897768113369 4.77603700043692036559 3.14569455470730074964 4.77603700043692036559 4.77603700043692036559 6.40637944616653864927 8.03672189189615870930 6.40637944616653864927 3.14569455470730074964 6.40637944616653864927 3.14569455470730074964 4.77603700043692036559 6.40637944616653864927 4.77603700043692036559 4.77603700043692036559 3.14569455470730074964 4.77603700043692036559 4.77603700043692036559 1.51535210897768113369 1.51535210897768113369 4.77603700043692036559 3.14569455470730074964 6.40637944616653864927 3.14569455470730074964 4.77603700043692036559 3.14569455470730074964 3.14569455470730074964 1.51535210897768113369 -0.11499033675193787163 4.77603700043692036559 8.03672189189615870930 1.51535210897768113369 1.51535210897768113369 1.51535210897768113369 3.14569455470730074964 1.51535210897768113369 -0.11499033675193787163 3.14569455470730074964 3.14569455470730074964 6.40637944616653864927 1.51535210897768113369 1.51535210897768113369 1.51535210897768113369 -1.74533278248155698797 -0.11499033675193787163 -0.11499033675193787163 3.14569455470730074964 3.14569455470730074964 1.51535210897768113369 -0.11499033675193787163 1.51535210897768113369 -1.74533278248155698797 3.14569455470730074964 3.14569455470730074964 4.77603700043692036559 3.14569455470730074964 1.51535210897768113369 1.51535210897768113369 1.51535210897768113369 3.14569455470730074964 6.40637944616653864927 4.77603700043692036559 1.51535210897768113369 3.14569455470730074964 1.51535210897768113369 3.14569455470730074964 4.77603700043692036559 3.14569455470730074964 1.51535210897768113369 3.14569455470730074964 -0.11499033675193787163 1.51535210897768113369 -0.11499033675193787163 1.51535210897768113369 8.03672189189615870930 4.77603700043692036559 -0.11499033675193787163 1.51535210897768113369 3.14569455470730074964 1.51535210897768113369 4.77603700043692036559 1.51535210897768113369 4.77603700043692036559 3.14569455470730074964 1.51535210897768113369 -0.11499033675193787163 1.51535210897768113369 -0.11499033675193787163 -3.37567522821117593779 -0.11499033675193787163 -0.11499033675193787163 -0.11499033675193787163 -0.11499033675193787163 1.51535210897768113369 -1.74533278248155698797 -5.00601767394079555373 -5.00601767394079555373 -3.37567522821117593779 -5.00601767394079555373 -5.00601767394079555373 -5.00601767394079555373 -3.37567522821117593779 -1.74533278248155698797 -5.00601767394079555373 -3.37567522821117593779 -3.37567522821117593779 -8.26670256540003478563 -5.00601767394079555373 -9.89704501112965395748 -8.26670256540003478563 -5.00601767394079555373 -6.63636011967041472559 -5.00601767394079555373 -3.37567522821117593779 -8.26670256540003478563 -6.63636011967041472559 -5.00601767394079555373 -8.26670256540003478563 -5.00601767394079555373 -8.26670256540003478563 -3.37567522821117593779 -5.00601767394079555373 -5.00601767394079555373 -3.37567522821117593779 -9.89704501112965395748 -6.63636011967041472559 -5.00601767394079555373 -3.37567522821117593779 -5.00601767394079555373 -3.37567522821117593779 -3.37567522821117593779 -6.63636011967041472559 -5.00601767394079555373 -3.37567522821117593779 -6.63636011967041472559 -5.00601767394079555373 -0.11499033675193787163 -3.37567522821117593779 -3.37567522821117593779 -0.11499033675193787163 -1.74533278248155698797 -1.74533278248155698797 -0.11499033675193787163 -0.11499033675193787163 3.14569455470730074964 -3.37567522821117593779 -1.74533278248155698797 -3.37567522821117593779 -1.74533278248155698797 -0.11499033675193787163 1.51535210897768113369 1.51535210897768113369 -1.74533278248155698797 -1.74533278248155698797 -3.37567522821117593779 -5.00601767394079555373 -1.74533278248155698797 1.51535210897768113369 3.14569455470730074964 -1.74533278248155698797 -0.11499033675193787163 -3.37567522821117593779 -1.74533278248155698797 -3.37567522821117593779 -5.00601767394079555373 -1.74533278248155698797 -0.11499033675193787163 -1.74533278248155698797 1.51535210897768113369 -0.11499033675193787163 -1.74533278248155698797 -0.11499033675193787163 -3.37567522821117593779 -5.00601767394079555373 -1.74533278248155698797 -3.37567522821117593779 -0.11499033675193787163 -0.11499033675193787163 -3.37567522821117593779 -1.74533278248155698797 -3.37567522821117593779 -1.74533278248155698797 -5.00601767394079555373 -0.11499033675193787163 -1.74533278248155698797 -1.74533278248155698797 -1.74533278248155698797 -0.11499033675193787163 -3.37567522821117593779 -1.74533278248155698797 -0.11499033675193787163 1.51535210897768113369 1.51535210897768113369 1.51535210897768113369 1.51535210897768113369 -3.37567522821117593779 -0.11499033675193787163 -5.00601767394079555373 3.14569455470730074964 -0.11499033675193787163 -0.11499033675193787163 1.51535210897768113369 1.51535210897768113369 -0.11499033675193787163 -0.11499033675193787163 -0.11499033675193787163 -0.11499033675193787163 1.51535210897768113369 -1.74533278248155698797 3.14569455470730074964 4.77603700043692036559 1.51535210897768113369 -1.74533278248155698797 -3.37567522821117593779 1.51535210897768113369 -1.74533278248155698797 1.51535210897768113369 -0.11499033675193787163 -1.74533278248155698797 1.51535210897768113369 -1.74533278248155698797 3.14569455470730074964 3.14569455470730074964 3.14569455470730074964 3.14569455470730074964 1.51535210897768113369 -0.11499033675193787163 -0.11499033675193787163 3.14569455470730074964 -0.11499033675193787163 4.77603700043692036559 1.51535210897768113369 1.51535210897768113369 3.14569455470730074964 -0.11499033675193787163 1.51535210897768113369 4.77603700043692036559 3.14569455470730074964 6.40637944616653864927 1.51535210897768113369 6.40637944616653864927 4.77603700043692036559 1.51535210897768113369 1.51535210897768113369 -0.11499033675193787163 1.51535210897768113369 3.14569455470730074964 1.51535210897768113369 3.14569455470730074964 1.51535210897768113369 3.14569455470730074964 -0.11499033675193787163 -1.74533278248155698797 -1.74533278248155698797 -0.11499033675193787163 1.51535210897768113369 3.14569455470730074964 1.51535210897768113369 1.51535210897768113369 3.14569455470730074964 1.51535210897768113369 -0.11499033675193787163 3.14569455470730074964 1.51535210897768113369 4.77603700043692036559 6.40637944616653864927 1.51535210897768113369 3.14569455470730074964 1.51535210897768113369 1.51535210897768113369 1.51535210897768113369 4.77603700043692036559 4.77603700043692036559 1.51535210897768113369 3.14569455470730074964 4.77603700043692036559 1.51535210897768113369 3.14569455470730074964 4.77603700043692036559 4.77603700043692036559 4.77603700043692036559 4.77603700043692036559 1.51535210897768113369 3.14569455470730074964 3.14569455470730074964 6.40637944616653864927 4.77603700043692036559 4.77603700043692036559 6.40637944616653864927 3.14569455470730074964 4.77603700043692036559 1.51535210897768113369 1.51535210897768113369 4.77603700043692036559 3.14569455470730074964 4.77603700043692036559 3.14569455470730074964 4.77603700043692036559 6.40637944616653864927 1.51535210897768113369 1.51535210897768113369 -0.11499033675193787163 1.51535210897768113369 1.51535210897768113369 1.51535210897768113369 4.77603700043692036559 6.40637944616653864927 4.77603700043692036559 8.03672189189615870930 4.77603700043692036559 3.14569455470730074964 3.14569455470730074964 4.77603700043692036559 4.77603700043692036559 4.77603700043692036559 6.40637944616653864927 3.14569455470730074964 4.77603700043692036559 3.14569455470730074964 6.40637944616653864927 3.14569455470730074964 4.77603700043692036559 6.40637944616653864927 4.77603700043692036559 3.14569455470730074964 3.14569455470730074964 1.51535210897768113369 3.14569455470730074964 4.77603700043692036559 4.77603700043692036559 4.77603700043692036559 3.14569455470730074964 4.77603700043692036559 3.14569455470730074964 4.77603700043692036559 8.03672189189615870930 8.03672189189615870930 6.40637944616653864927 9.66706433762577788116 6.40637944616653864927 3.14569455470730074964 6.40637944616653864927 4.77603700043692036559 6.40637944616653864927 6.40637944616653864927 6.40637944616653864927 8.03672189189615870930 6.40637944616653864927 1.51535210897768113369 4.77603700043692036559 3.14569455470730074964 4.77603700043692036559 4.77603700043692036559 6.40637944616653864927 8.03672189189615870930 4.77603700043692036559 6.40637944616653864927 6.40637944616653864927 6.40637944616653864927 6.40637944616653864927 8.03672189189615870930 6.40637944616653864927 3.14569455470730074964 3.14569455470730074964 6.40637944616653864927 4.77603700043692036559 4.77603700043692036559 4.77603700043692036559 3.14569455470730074964 4.77603700043692036559 8.03672189189615870930 6.40637944616653864927 6.40637944616653864927 6.40637944616653864927 6.40637944616653864927 4.77603700043692036559 3.14569455470730074964 3.14569455470730074964 -0.11499033675193787163 3.14569455470730074964 8.03672189189615870930 4.77603700043692036559 6.40637944616653864927 4.77603700043692036559 4.77603700043692036559 4.77603700043692036559 3.14569455470730074964 1.51535210897768113369 3.14569455470730074964 3.14569455470730074964 3.14569455470730074964 4.77603700043692036559 6.40637944616653864927 6.40637944616653864927 4.77603700043692036559 3.14569455470730074964 1.51535210897768113369 -0.11499033675193787163 3.14569455470730074964 3.14569455470730074964 6.40637944616653864927 8.03672189189615870930 -0.11499033675193787163 3.14569455470730074964 3.14569455470730074964 -0.11499033675193787163 -0.11499033675193787163 -0.11499033675193787163 3.14569455470730074964 3.14569455470730074964 3.14569455470730074964 1.51535210897768113369 3.14569455470730074964 3.14569455470730074964 3.14569455470730074964 3.14569455470730074964 3.14569455470730074964 3.14569455470730074964 3.14569455470730074964 4.77603700043692036559 1.51535210897768113369 -0.11499033675193787163 -0.11499033675193787163 1.51535210897768113369 1.51535210897768113369 1.51535210897768113369 4.77603700043692036559 8.03672189189615870930 3.14569455470730074964 3.14569455470730074964 -0.11499033675193787163 -0.11499033675193787163 1.51535210897768113369 3.14569455470730074964 3.14569455470730074964 4.77603700043692036559 4.77603700043692036559 1.51535210897768113369 -0.11499033675193787163 1.51535210897768113369 4.77603700043692036559 3.14569455470730074964 4.77603700043692036559 4.77603700043692036559 3.14569455470730074964 1.51535210897768113369 -0.11499033675193787163 1.51535210897768113369 3.14569455470730074964 6.40637944616653864927 3.14569455470730074964 3.14569455470730074964 3.14569455470730074964 1.51535210897768113369 1.51535210897768113369 3.14569455470730074964 -0.11499033675193787163 3.14569455470730074964 4.77603700043692036559 3.14569455470730074964 4.77603700043692036559 3.14569455470730074964 3.14569455470730074964 4.77603700043692036559 6.40637944616653864927 4.77603700043692036559 4.77603700043692036559 4.77603700043692036559 4.77603700043692036559 3.14569455470730074964 3.14569455470730074964 3.14569455470730074964 8.03672189189615870930 4.77603700043692036559 6.40637944616653864927 1.51535210897768113369 4.77603700043692036559 6.40637944616653864927 8.03672189189615870930 4.77603700043692036559 9.66706433762577788116 6.40637944616653864927 1.51535210897768113369 3.14569455470730074964 4.77603700043692036559 6.40637944616653864927 6.40637944616653864927 6.40637944616653864927 8.03672189189615870930 3.14569455470730074964 4.77603700043692036559 3.14569455470730074964 1.51535210897768113369 1.51535210897768113369 -0.11499033675193787163 1.51535210897768113369 1.51535210897768113369 1.51535210897768113369 1.51535210897768113369 1.51535210897768113369 1.51535210897768113369 -0.11499033675193787163 -0.11499033675193787163 -1.74533278248155698797 -1.74533278248155698797 -1.74533278248155698797 1.51535210897768113369 3.14569455470730074964 4.77603700043692036559 4.77603700043692036559 1.51535210897768113369 1.51535210897768113369 -0.11499033675193787163 -0.11499033675193787163 3.14569455470730074964 1.51535210897768113369 3.14569455470730074964 3.14569455470730074964 3.14569455470730074964 3.14569455470730074964 -0.11499033675193787163 3.14569455470730074964 -0.11499033675193787163 1.51535210897768113369 1.51535210897768113369 3.14569455470730074964 -0.11499033675193787163 1.51535210897768113369 1.51535210897768113369 1.51535210897768113369 -3.37567522821117593779 -0.11499033675193787163 3.14569455470730074964 3.14569455470730074964 3.14569455470730074964 1.51535210897768113369 3.14569455470730074964 1.51535210897768113369 -0.11499033675193787163 -0.11499033675193787163 1.51535210897768113369 4.77603700043692036559 4.77603700043692036559 6.40637944616653864927 3.14569455470730074964 1.51535210897768113369 -0.11499033675193787163 3.14569455470730074964 6.40637944616653864927 6.40637944616653864927 3.14569455470730074964 4.77603700043692036559 3.14569455470730074964 4.77603700043692036559 4.77603700043692036559 3.14569455470730074964 3.14569455470730074964 4.77603700043692036559 6.40637944616653864927 4.77603700043692036559 1.51535210897768113369 3.14569455470730074964 3.14569455470730074964 4.77603700043692036559 -0.11499033675193787163 -1.74533278248155698797 -0.11499033675193787163 3.14569455470730074964 4.77603700043692036559 3.14569455470730074964 4.77603700043692036559 3.14569455470730074964 4.77603700043692036559 1.51535210897768113369 -0.11499033675193787163 -0.11499033675193787163 3.14569455470730074964 3.14569455470730074964 6.40637944616653864927 8.03672189189615870930 1.51535210897768113369 3.14569455470730074964 -1.74533278248155698797 4.77603700043692036559 -0.11499033675193787163 3.14569455470730074964 1.51535210897768113369 4.77603700043692036559 3.14569455470730074964 4.77603700043692036559 4.77603700043692036559 3.14569455470730074964 1.51535210897768113369 3.14569455470730074964 6.40637944616653864927 4.77603700043692036559 4.77603700043692036559 4.77603700043692036559 4.77603700043692036559 3.14569455470730074964 6.40637944616653864927 9.66706433762577788116 8.03672189189615870930 6.40637944616653864927 6.40637944616653864927 8.03672189189615870930 6.40637944616653864927 6.40637944616653864927 6.40637944616653864927 8.03672189189615870930 9.66706433762577788116 8.03672189189615870930 6.40637944616653864927 3.14569455470730074964 4.77603700043692036559 4.77603700043692036559 8.03672189189615870930 6.40637944616653864927 6.40637944616653864927 8.03672189189615870930 9.66706433762577788116 9.66706433762577788116 4.77603700043692036559 6.40637944616653864927 3.14569455470730074964 3.14569455470730074964 3.14569455470730074964 3.14569455470730074964 4.77603700043692036559 8.03672189189615870930 11.29740678335539527666 8.03672189189615870930 6.40637944616653864927 8.03672189189615870930 6.40637944616653864927 3.14569455470730074964 3.14569455470730074964 1.51535210897768113369 1.51535210897768113369 4.77603700043692036559 8.03672189189615870930 8.03672189189615870930 6.40637944616653864927 4.77603700043692036559 4.77603700043692036559 1.51535210897768113369 1.51535210897768113369 3.14569455470730074964 4.77603700043692036559 4.77603700043692036559 8.03672189189615870930 4.77603700043692036559 3.14569455470730074964 3.14569455470730074964 1.51535210897768113369 3.14569455470730074964 -0.11499033675193787163 4.77603700043692036559 9.66706433762577788116 4.77603700043692036559 6.40637944616653864927 3.14569455470730074964 1.51535210897768113369 -0.11499033675193787163 1.51535210897768113369 -0.11499033675193787163 3.14569455470730074964 3.14569455470730074964 4.77603700043692036559 3.14569455470730074964 1.51535210897768113369 1.51535210897768113369 1.51535210897768113369 -1.74533278248155698797 3.14569455470730074964 1.51535210897768113369 6.40637944616653864927 1.51535210897768113369 3.14569455470730074964 -0.11499033675193787163 -0.11499033675193787163 -0.11499033675193787163 3.14569455470730074964 3.14569455470730074964 3.14569455470730074964 1.51535210897768113369 3.14569455470730074964 4.77603700043692036559 1.51535210897768113369 3.14569455470730074964 3.14569455470730074964 3.14569455470730074964 -0.11499033675193787163 4.77603700043692036559 -0.11499033675193787163 -0.11499033675193787163 1.51535210897768113369 3.14569455470730074964 3.14569455470730074964 3.14569455470730074964 3.14569455470730074964 1.51535210897768113369 1.51535210897768113369 -0.11499033675193787163 -1.74533278248155698797 1.51535210897768113369 1.51535210897768113369 4.77603700043692036559 3.14569455470730074964 -0.11499033675193787163 -0.11499033675193787163 -0.11499033675193787163 -0.11499033675193787163 -0.11499033675193787163 3.14569455470730074964 1.51535210897768113369 4.77603700043692036559 3.14569455470730074964 1.51535210897768113369 1.51535210897768113369 -1.74533278248155698797 -3.37567522821117593779 -1.74533278248155698797 1.51535210897768113369 1.51535210897768113369 1.51535210897768113369 -0.11499033675193787163 -0.11499033675193787163 -0.11499033675193787163 1.51535210897768113369 -0.11499033675193787163 -1.74533278248155698797 -1.74533278248155698797 -0.11499033675193787163 -0.11499033675193787163 -0.11499033675193787163 -1.74533278248155698797 -0.11499033675193787163 -1.74533278248155698797 -0.11499033675193787163 -5.00601767394079555373 -6.63636011967041472559 -5.00601767394079555373 -0.11499033675193787163 -0.11499033675193787163 -0.11499033675193787163 -1.74533278248155698797 -0.11499033675193787163 -1.74533278248155698797 -3.37567522821117593779 -3.37567522821117593779 -1.74533278248155698797 -0.11499033675193787163 -1.74533278248155698797 3.14569455470730074964 1.51535210897768113369 1.51535210897768113369 1.51535210897768113369 -0.11499033675193787163 -0.11499033675193787163 -1.74533278248155698797 4.77603700043692036559 1.51535210897768113369 3.14569455470730074964 -0.11499033675193787163 -0.11499033675193787163 -0.11499033675193787163 -0.11499033675193787163 -0.11499033675193787163 3.14569455470730074964 3.14569455470730074964 3.14569455470730074964 1.51535210897768113369 -0.11499033675193787163 3.14569455470730074964 1.51535210897768113369 3.14569455470730074964 3.14569455470730074964 4.77603700043692036559 1.51535210897768113369 4.77603700043692036559 8.03672189189615870930 4.77603700043692036559 8.03672189189615870930 8.03672189189615870930 6.40637944616653864927 4.77603700043692036559 4.77603700043692036559 4.77603700043692036559 6.40637944616653864927 4.77603700043692036559 3.14569455470730074964 4.77603700043692036559 6.40637944616653864927 3.14569455470730074964 3.14569455470730074964 6.40637944616653864927 6.40637944616653864927 6.40637944616653864927 6.40637944616653864927 8.03672189189615870930 4.77603700043692036559 4.77603700043692036559 4.77603700043692036559 6.40637944616653864927 4.77603700043692036559 8.03672189189615870930 11.29740678335539527666 8.03672189189615870930 6.40637944616653864927 4.77603700043692036559 3.14569455470730074964 4.77603700043692036559 1.51535210897768113369 3.14569455470730074964 3.14569455470730074964 6.40637944616653864927 4.77603700043692036559 4.77603700043692036559 4.77603700043692036559 6.40637944616653864927 3.14569455470730074964 3.14569455470730074964 -0.11499033675193787163 -0.11499033675193787163 -0.11499033675193787163 6.40637944616653864927 3.14569455470730074964 8.03672189189615870930 3.14569455470730074964 4.77603700043692036559 3.14569455470730074964 1.51535210897768113369 1.51535210897768113369 -0.11499033675193787163 -5.00601767394079555373 -0.11499033675193787163 3.14569455470730074964 3.14569455470730074964 3.14569455470730074964 3.14569455470730074964 1.51535210897768113369 1.51535210897768113369 1.51535210897768113369 -1.74533278248155698797 -1.74533278248155698797 3.14569455470730074964 3.14569455470730074964 3.14569455470730074964 3.14569455470730074964 3.14569455470730074964 -0.11499033675193787163 -1.74533278248155698797 -1.74533278248155698797 -1.74533278248155698797 1.51535210897768113369 1.51535210897768113369 3.14569455470730074964 -1.74533278248155698797 3.14569455470730074964 -0.11499033675193787163 -3.37567522821117593779 -1.74533278248155698797 3.14569455470730074964 -0.11499033675193787163 1.51535210897768113369 3.14569455470730074964 1.51535210897768113369 -1.74533278248155698797 3.14569455470730074964 -1.74533278248155698797 -1.74533278248155698797 -0.11499033675193787163 3.14569455470730074964 3.14569455470730074964 -0.11499033675193787163 -0.11499033675193787163 -1.74533278248155698797 -0.11499033675193787163 1.51535210897768113369 3.14569455470730074964 3.14569455470730074964 1.51535210897768113369 -0.11499033675193787163 -1.74533278248155698797 -0.11499033675193787163 1.51535210897768113369 -1.74533278248155698797 -0.11499033675193787163 1.51535210897768113369 4.77603700043692036559 -1.74533278248155698797 1.51535210897768113369 -1.74533278248155698797 -1.74533278248155698797 -0.11499033675193787163 -3.37567522821117593779 -1.74533278248155698797 -0.11499033675193787163 3.14569455470730074964 -0.11499033675193787163 -1.74533278248155698797 -0.11499033675193787163 -1.74533278248155698797 1.51535210897768113369 -1.74533278248155698797 -0.11499033675193787163 -1.74533278248155698797 -0.11499033675193787163 -3.37567522821117593779 -5.00601767394079555373 -1.74533278248155698797 -0.11499033675193787163 -0.11499033675193787163 -0.11499033675193787163 -0.11499033675193787163 -0.11499033675193787163 -1.74533278248155698797 -3.37567522821117593779 -0.11499033675193787163 -1.74533278248155698797 -1.74533278248155698797 -3.37567522821117593779 -3.37567522821117593779 -6.63636011967041472559 -3.37567522821117593779 -6.63636011967041472559 -3.37567522821117593779 -3.37567522821117593779 -3.37567522821117593779 -3.37567522821117593779 -6.63636011967041472559 -6.63636011967041472559 -3.37567522821117593779 -5.00601767394079555373 -3.37567522821117593779 -3.37567522821117593779 -3.37567522821117593779 -0.11499033675193787163 -5.00601767394079555373 -3.37567522821117593779 -8.26670256540003478563 -5.00601767394079555373 -9.89704501112965395748 -8.26670256540003478563 -8.26670256540003478563 -6.63636011967041472559 -8.26670256540003478563 -5.00601767394079555373 -6.63636011967041472559 -8.26670256540003478563 -5.00601767394079555373 -6.63636011967041472559 -6.63636011967041472559 -11.52738745685927312934 -8.26670256540003478563 -6.63636011967041472559 -8.26670256540003478563 -6.63636011967041472559 -5.00601767394079555373 -5.00601767394079555373 -5.00601767394079555373 -8.26670256540003478563 -6.63636011967041472559 -9.89704501112965395748 -11.52738745685927312934 -13.15772990258889052484 -6.63636011967041472559 -6.63636011967041472559 -6.63636011967041472559 -8.26670256540003478563 -6.63636011967041472559 -9.89704501112965395748 -11.52738745685927312934 -11.52738745685927312934 -8.26670256540003478563 -11.52738745685927312934 -8.26670256540003478563 -8.26670256540003478563 -5.00601767394079555373 -6.63636011967041472559 -8.26670256540003478563 -8.26670256540003478563 -8.26670256540003478563 -8.26670256540003478563 -9.89704501112965395748 -9.89704501112965395748 -9.89704501112965395748 -8.26670256540003478563 -6.63636011967041472559 -6.63636011967041472559 -8.26670256540003478563 -8.26670256540003478563 -9.89704501112965395748 -6.63636011967041472559 -11.52738745685927312934 -11.52738745685927312934 -6.63636011967041472559 -6.63636011967041472559 -9.89704501112965395748 -6.63636011967041472559 -8.26670256540003478563 -6.63636011967041472559 -11.52738745685927312934 -6.63636011967041472559 -9.89704501112965395748 -6.63636011967041472559 -6.63636011967041472559 -8.26670256540003478563 -6.63636011967041472559 -8.26670256540003478563 -3.37567522821117593779 -6.63636011967041472559 -3.37567522821117593779 -3.37567522821117593779 -3.37567522821117593779 -0.11499033675193787163 -3.37567522821117593779 -6.63636011967041472559 -1.74533278248155698797 -5.00601767394079555373 -1.74533278248155698797 -3.37567522821117593779 -1.74533278248155698797 -0.11499033675193787163 -1.74533278248155698797 -5.00601767394079555373 -3.37567522821117593779 -5.00601767394079555373 -6.63636011967041472559 -3.37567522821117593779 -5.00601767394079555373 -1.74533278248155698797 -3.37567522821117593779 -5.00601767394079555373 -3.37567522821117593779 -3.37567522821117593779 -3.37567522821117593779 -5.00601767394079555373 -3.37567522821117593779 -3.37567522821117593779 -3.37567522821117593779 -1.74533278248155698797 -1.74533278248155698797 -3.37567522821117593779 -3.37567522821117593779 -1.74533278248155698797 -5.00601767394079555373 -5.00601767394079555373 -6.63636011967041472559 -6.63636011967041472559 -1.74533278248155698797 -0.11499033675193787163 -1.74533278248155698797 -0.11499033675193787163 -0.11499033675193787163 -1.74533278248155698797 -1.74533278248155698797 -1.74533278248155698797 -3.37567522821117593779 -8.26670256540003478563 -5.00601767394079555373 -5.00601767394079555373 -1.74533278248155698797 -3.37567522821117593779 -1.74533278248155698797 -1.74533278248155698797 -3.37567522821117593779 -1.74533278248155698797 -3.37567522821117593779 -3.37567522821117593779 -3.37567522821117593779 -0.11499033675193787163 -1.74533278248155698797 -3.37567522821117593779 -1.74533278248155698797 -1.74533278248155698797 -0.11499033675193787163 -1.74533278248155698797 -1.74533278248155698797 1.51535210897768113369 -1.74533278248155698797 -1.74533278248155698797 -0.11499033675193787163 -1.74533278248155698797 -3.37567522821117593779 -1.74533278248155698797 -3.37567522821117593779 -5.00601767394079555373 -3.37567522821117593779 -1.74533278248155698797 -3.37567522821117593779 -5.00601767394079555373 -1.74533278248155698797 -6.63636011967041472559 -3.37567522821117593779 -1.74533278248155698797 -1.74533278248155698797 -0.11499033675193787163 -5.00601767394079555373 -1.74533278248155698797 -1.74533278248155698797 -0.11499033675193787163 -3.37567522821117593779 -3.37567522821117593779 -3.37567522821117593779 -3.37567522821117593779 -1.74533278248155698797 -0.11499033675193787163 -1.74533278248155698797 1.51535210897768113369 -1.74533278248155698797 -1.74533278248155698797 -1.74533278248155698797 -1.74533278248155698797 1.51535210897768113369 -1.74533278248155698797 -1.74533278248155698797 -3.37567522821117593779 -0.11499033675193787163 -1.74533278248155698797 -5.00601767394079555373 -5.00601767394079555373 -5.00601767394079555373 -0.11499033675193787163 -0.11499033675193787163 -1.74533278248155698797 -3.37567522821117593779 -1.74533278248155698797 -1.74533278248155698797 -0.11499033675193787163 -5.00601767394079555373 -5.00601767394079555373 -0.11499033675193787163 -1.74533278248155698797 -0.11499033675193787163 1.51535210897768113369 -0.11499033675193787163 -0.11499033675193787163 -1.74533278248155698797 -3.37567522821117593779 -3.37567522821117593779 -1.74533278248155698797 -1.74533278248155698797 1.51535210897768113369 -1.74533278248155698797 -1.74533278248155698797 -0.11499033675193787163 -5.00601767394079555373 -1.74533278248155698797 -0.11499033675193787163 -6.63636011967041472559 -3.37567522821117593779 -1.74533278248155698797 -1.74533278248155698797 -1.74533278248155698797 1.51535210897768113369 -5.00601767394079555373 -3.37567522821117593779 -1.74533278248155698797 -5.00601767394079555373 -5.00601767394079555373 -1.74533278248155698797 -1.74533278248155698797 -0.11499033675193787163 -0.11499033675193787163 -0.11499033675193787163 1.51535210897768113369 -0.11499033675193787163 -1.74533278248155698797 -5.00601767394079555373 -3.37567522821117593779 -5.00601767394079555373 1.51535210897768113369 1.51535210897768113369 -0.11499033675193787163 1.51535210897768113369 1.51535210897768113369 -0.11499033675193787163 -0.11499033675193787163 -0.11499033675193787163 1.51535210897768113369 3.14569455470730074964 -0.11499033675193787163 3.14569455470730074964 1.51535210897768113369 1.51535210897768113369 -0.11499033675193787163 3.14569455470730074964 6.40637944616653864927 3.14569455470730074964 3.14569455470730074964 1.51535210897768113369 3.14569455470730074964 1.51535210897768113369 1.51535210897768113369 -0.11499033675193787163 1.51535210897768113369 6.40637944616653864927 1.51535210897768113369 3.14569455470730074964 1.51535210897768113369 1.51535210897768113369 -1.74533278248155698797 -0.11499033675193787163 1.51535210897768113369 6.40637944616653864927 3.14569455470730074964 4.77603700043692036559 1.51535210897768113369 1.51535210897768113369 1.51535210897768113369 3.14569455470730074964 3.14569455470730074964 3.14569455470730074964 3.14569455470730074964 4.77603700043692036559 4.77603700043692036559 -0.11499033675193787163 -0.11499033675193787163 1.51535210897768113369 4.77603700043692036559 6.40637944616653864927 4.77603700043692036559 4.77603700043692036559 4.77603700043692036559 3.14569455470730074964 3.14569455470730074964 1.51535210897768113369 -1.74533278248155698797 -1.74533278248155698797 3.14569455470730074964 3.14569455470730074964 4.77603700043692036559 3.14569455470730074964 3.14569455470730074964 4.77603700043692036559 1.51535210897768113369 1.51535210897768113369 -0.11499033675193787163 3.14569455470730074964 -0.11499033675193787163 1.51535210897768113369 3.14569455470730074964 4.77603700043692036559 3.14569455470730074964 4.77603700043692036559 1.51535210897768113369 1.51535210897768113369 -1.74533278248155698797 3.14569455470730074964 3.14569455470730074964 3.14569455470730074964 1.51535210897768113369 1.51535210897768113369 4.77603700043692036559 3.14569455470730074964 3.14569455470730074964 -0.11499033675193787163 -0.11499033675193787163 3.14569455470730074964 -0.11499033675193787163 1.51535210897768113369 1.51535210897768113369 -0.11499033675193787163 1.51535210897768113369 -3.37567522821117593779 -1.74533278248155698797 1.51535210897768113369 3.14569455470730074964 4.77603700043692036559 3.14569455470730074964 -0.11499033675193787163 1.51535210897768113369 3.14569455470730074964 3.14569455470730074964 3.14569455470730074964 4.77603700043692036559 4.77603700043692036559 4.77603700043692036559 4.77603700043692036559 1.51535210897768113369 6.40637944616653864927 4.77603700043692036559 8.03672189189615870930 4.77603700043692036559 4.77603700043692036559 6.40637944616653864927 6.40637944616653864927 9.66706433762577788116 6.40637944616653864927 6.40637944616653864927 8.03672189189615870930 3.14569455470730074964 1.51535210897768113369 3.14569455470730074964 1.51535210897768113369 1.51535210897768113369 6.40637944616653864927 6.40637944616653864927 8.03672189189615870930 6.40637944616653864927 6.40637944616653864927 1.51535210897768113369 3.14569455470730074964 3.14569455470730074964 3.14569455470730074964 3.14569455470730074964 3.14569455470730074964 6.40637944616653864927 1.51535210897768113369 3.14569455470730074964 3.14569455470730074964 1.51535210897768113369 -0.11499033675193787163 1.51535210897768113369 -0.11499033675193787163 4.77603700043692036559 1.51535210897768113369 3.14569455470730074964 3.14569455470730074964 -1.74533278248155698797 1.51535210897768113369 1.51535210897768113369 -0.11499033675193787163 -1.74533278248155698797 -0.11499033675193787163 -0.11499033675193787163 3.14569455470730074964 3.14569455470730074964 -0.11499033675193787163 1.51535210897768113369 -0.11499033675193787163 -1.74533278248155698797 -3.37567522821117593779 -1.74533278248155698797 -3.37567522821117593779 -0.11499033675193787163 -0.11499033675193787163 1.51535210897768113369 3.14569455470730074964 -1.74533278248155698797 -0.11499033675193787163 -0.11499033675193787163 -1.74533278248155698797 -5.00601767394079555373 -3.37567522821117593779 -3.37567522821117593779 -0.11499033675193787163 -0.11499033675193787163 -0.11499033675193787163 -3.37567522821117593779 -5.00601767394079555373 -6.63636011967041472559 -1.74533278248155698797 -3.37567522821117593779 -1.74533278248155698797 -1.74533278248155698797 1.51535210897768113369 -1.74533278248155698797 -1.74533278248155698797 -1.74533278248155698797 -5.00601767394079555373 -3.37567522821117593779 -3.37567522821117593779 -3.37567522821117593779 -1.74533278248155698797 -3.37567522821117593779 -1.74533278248155698797 -1.74533278248155698797 -3.37567522821117593779 -1.74533278248155698797 -3.37567522821117593779 -3.37567522821117593779 -3.37567522821117593779 -3.37567522821117593779 -1.74533278248155698797 -1.74533278248155698797 -3.37567522821117593779 -0.11499033675193787163 -0.11499033675193787163 -1.74533278248155698797 -1.74533278248155698797 -1.74533278248155698797 -6.63636011967041472559 -5.00601767394079555373 -3.37567522821117593779 -0.11499033675193787163 -3.37567522821117593779 -0.11499033675193787163 -1.74533278248155698797 1.51535210897768113369 -1.74533278248155698797 -3.37567522821117593779 -8.26670256540003478563 -3.37567522821117593779 -5.00601767394079555373 -1.74533278248155698797 -0.11499033675193787163 -0.11499033675193787163 -1.74533278248155698797 -5.00601767394079555373 -1.74533278248155698797 -5.00601767394079555373 -5.00601767394079555373 -5.00601767394079555373 -3.37567522821117593779 -3.37567522821117593779 1.51535210897768113369 -0.11499033675193787163 -1.74533278248155698797 -0.11499033675193787163 -5.00601767394079555373 -5.00601767394079555373 -5.00601767394079555373 -3.37567522821117593779 -1.74533278248155698797 -0.11499033675193787163 -0.11499033675193787163 -0.11499033675193787163 -1.74533278248155698797 -1.74533278248155698797 -1.74533278248155698797 -3.37567522821117593779 -3.37567522821117593779 -0.11499033675193787163 -0.11499033675193787163 -1.74533278248155698797 -3.37567522821117593779 -3.37567522821117593779 -3.37567522821117593779 -1.74533278248155698797 -0.11499033675193787163 -0.11499033675193787163 -0.11499033675193787163 -1.74533278248155698797 -0.11499033675193787163 -1.74533278248155698797 -0.11499033675193787163 -1.74533278248155698797 1.51535210897768113369 4.77603700043692036559 6.40637944616653864927 3.14569455470730074964 1.51535210897768113369 6.40637944616653864927 3.14569455470730074964 3.14569455470730074964 3.14569455470730074964 3.14569455470730074964 -0.11499033675193787163 1.51535210897768113369 3.14569455470730074964 3.14569455470730074964 3.14569455470730074964 -0.11499033675193787163 4.77603700043692036559 4.77603700043692036559 6.40637944616653864927 1.51535210897768113369 3.14569455470730074964 6.40637944616653864927 3.14569455470730074964 6.40637944616653864927 3.14569455470730074964 3.14569455470730074964 6.40637944616653864927 6.40637944616653864927 3.14569455470730074964 3.14569455470730074964 -0.11499033675193787163 1.51535210897768113369 3.14569455470730074964 4.77603700043692036559 4.77603700043692036559 3.14569455470730074964 -0.11499033675193787163 3.14569455470730074964 3.14569455470730074964 -1.74533278248155698797 -5.00601767394079555373 3.14569455470730074964 3.14569455470730074964 1.51535210897768113369 4.77603700043692036559 -0.11499033675193787163 -0.11499033675193787163 -0.11499033675193787163 -0.11499033675193787163 -1.74533278248155698797 -5.00601767394079555373 -0.11499033675193787163 -0.11499033675193787163 3.14569455470730074964 1.51535210897768113369 1.51535210897768113369 1.51535210897768113369 -0.11499033675193787163 -1.74533278248155698797 -3.37567522821117593779 -1.74533278248155698797 -3.37567522821117593779 -5.00601767394079555373 -3.37567522821117593779 -1.74533278248155698797 -0.11499033675193787163 -5.00601767394079555373 -1.74533278248155698797 -5.00601767394079555373 -3.37567522821117593779 -3.37567522821117593779 -5.00601767394079555373 -1.74533278248155698797 -0.11499033675193787163 -0.11499033675193787163 1.51535210897768113369 -1.74533278248155698797 -1.74533278248155698797 -5.00601767394079555373 -5.00601767394079555373 -1.74533278248155698797 -5.00601767394079555373 -0.11499033675193787163 -1.74533278248155698797 -1.74533278248155698797 -1.74533278248155698797 -0.11499033675193787163 -3.37567522821117593779 -5.00601767394079555373 -5.00601767394079555373 -3.37567522821117593779 -3.37567522821117593779 -5.00601767394079555373 -3.37567522821117593779 -1.74533278248155698797 1.51535210897768113369 -1.74533278248155698797 -1.74533278248155698797 -0.11499033675193787163 -0.11499033675193787163 -5.00601767394079555373 -3.37567522821117593779 -3.37567522821117593779 1.51535210897768113369 -1.74533278248155698797 -0.11499033675193787163 -0.11499033675193787163 -3.37567522821117593779 -3.37567522821117593779 -0.11499033675193787163 1.51535210897768113369 -0.11499033675193787163 3.14569455470730074964 -0.11499033675193787163 4.77603700043692036559 3.14569455470730074964 -0.11499033675193787163 1.51535210897768113369 -0.11499033675193787163 -1.74533278248155698797 -1.74533278248155698797 -1.74533278248155698797 3.14569455470730074964 1.51535210897768113369 1.51535210897768113369 -0.11499033675193787163 1.51535210897768113369 -0.11499033675193787163 -0.11499033675193787163 -0.11499033675193787163 3.14569455470730074964 3.14569455470730074964 1.51535210897768113369 3.14569455470730074964 4.77603700043692036559 1.51535210897768113369 3.14569455470730074964 3.14569455470730074964 4.77603700043692036559 1.51535210897768113369 3.14569455470730074964 4.77603700043692036559 3.14569455470730074964 1.51535210897768113369 1.51535210897768113369 3.14569455470730074964 1.51535210897768113369 3.14569455470730074964 -0.11499033675193787163 1.51535210897768113369 1.51535210897768113369 1.51535210897768113369 3.14569455470730074964 1.51535210897768113369 -0.11499033675193787163 1.51535210897768113369 3.14569455470730074964 -1.74533278248155698797 1.51535210897768113369 1.51535210897768113369 4.77603700043692036559 4.77603700043692036559 -0.11499033675193787163 -0.11499033675193787163 -0.11499033675193787163 -0.11499033675193787163 1.51535210897768113369 -0.11499033675193787163 3.14569455470730074964 -1.74533278248155698797 -0.11499033675193787163 3.14569455470730074964 3.14569455470730074964 -0.11499033675193787163 -1.74533278248155698797 -1.74533278248155698797 -1.74533278248155698797 1.51535210897768113369 1.51535210897768113369 1.51535210897768113369 1.51535210897768113369 -0.11499033675193787163 1.51535210897768113369 1.51535210897768113369 3.14569455470730074964 -0.11499033675193787163 -1.74533278248155698797 -0.11499033675193787163 3.14569455470730074964 1.51535210897768113369 1.51535210897768113369 1.51535210897768113369 3.14569455470730074964 1.51535210897768113369 -0.11499033675193787163 -1.74533278248155698797 1.51535210897768113369 1.51535210897768113369 1.51535210897768113369 1.51535210897768113369 1.51535210897768113369 3.14569455470730074964 4.77603700043692036559 -0.11499033675193787163 1.51535210897768113369 -0.11499033675193787163 1.51535210897768113369 3.14569455470730074964 3.14569455470730074964 3.14569455470730074964 1.51535210897768113369 3.14569455470730074964 1.51535210897768113369 -1.74533278248155698797 -3.37567522821117593779 -0.11499033675193787163 1.51535210897768113369 1.51535210897768113369 3.14569455470730074964 1.51535210897768113369 -0.11499033675193787163 1.51535210897768113369 3.14569455470730074964 1.51535210897768113369 6.40637944616653864927 14.55809167481463539673 14.55809167481463539673 12.92774922908501444851 12.92774922908501444851 6.40637944616653864927 9.66706433762577788116 9.66706433762577788116 12.92774922908501444851 12.92774922908501444851 16.18843412054425456859 14.55809167481463539673 12.92774922908501444851 9.66706433762577788116 6.40637944616653864927 6.40637944616653864927 8.03672189189615870930 9.66706433762577788116 6.40637944616653864927 9.66706433762577788116 4.77603700043692036559 1.51535210897768113369 3.14569455470730074964 3.14569455470730074964 1.51535210897768113369 1.51535210897768113369 4.77603700043692036559 1.51535210897768113369 1.51535210897768113369 1.51535210897768113369 -1.74533278248155698797 1.51535210897768113369 -1.74533278248155698797 -0.11499033675193787163 3.14569455470730074964 6.40637944616653864927 9.66706433762577788116 3.14569455470730074964 4.77603700043692036559 3.14569455470730074964 4.77603700043692036559 -0.11499033675193787163 1.51535210897768113369 4.77603700043692036559 1.51535210897768113369 4.77603700043692036559 3.14569455470730074964 3.14569455470730074964 3.14569455470730074964 1.51535210897768113369 3.14569455470730074964 3.14569455470730074964 -0.11499033675193787163 4.77603700043692036559 4.77603700043692036559 1.51535210897768113369 1.51535210897768113369 1.51535210897768113369 -0.11499033675193787163 3.14569455470730074964 -1.74533278248155698797 -0.11499033675193787163 1.51535210897768113369 6.40637944616653864927 -0.11499033675193787163 1.51535210897768113369 1.51535210897768113369 -0.11499033675193787163 1.51535210897768113369 -1.74533278248155698797 -1.74533278248155698797 -1.74533278248155698797 1.51535210897768113369 1.51535210897768113369 3.14569455470730074964 1.51535210897768113369 -0.11499033675193787163 -3.37567522821117593779 -0.11499033675193787163 -0.11499033675193787163 -6.63636011967041472559 -0.11499033675193787163 -0.11499033675193787163 -1.74533278248155698797 1.51535210897768113369 3.14569455470730074964 3.14569455470730074964 -0.11499033675193787163 -0.11499033675193787163 -0.11499033675193787163 3.14569455470730074964 -3.37567522821117593779 -0.11499033675193787163 -0.11499033675193787163 -1.74533278248155698797 -0.11499033675193787163 -3.37567522821117593779 -3.37567522821117593779 -3.37567522821117593779 -6.63636011967041472559 -6.63636011967041472559 -5.00601767394079555373 -3.37567522821117593779 -9.89704501112965395748 -6.63636011967041472559 -6.63636011967041472559 -6.63636011967041472559 -1.74533278248155698797 -3.37567522821117593779 -3.37567522821117593779 -3.37567522821117593779 -1.74533278248155698797 -1.74533278248155698797 -0.11499033675193787163 1.51535210897768113369 1.51535210897768113369 -0.11499033675193787163 -0.11499033675193787163 -0.11499033675193787163 -0.11499033675193787163 -5.00601767394079555373 -5.00601767394079555373 -3.37567522821117593779 -3.37567522821117593779 -3.37567522821117593779 -3.37567522821117593779 -3.37567522821117593779 -0.11499033675193787163 -5.00601767394079555373 -5.00601767394079555373 -1.74533278248155698797 -1.74533278248155698797 -1.74533278248155698797 -3.37567522821117593779 -0.11499033675193787163 -5.00601767394079555373 -3.37567522821117593779 -1.74533278248155698797 1.51535210897768113369 -0.11499033675193787163 3.14569455470730074964 1.51535210897768113369 -1.74533278248155698797 -1.74533278248155698797 -0.11499033675193787163 1.51535210897768113369 -0.11499033675193787163 -0.11499033675193787163 -1.74533278248155698797 -3.37567522821117593779 -0.11499033675193787163 -0.11499033675193787163 -5.00601767394079555373 -1.74533278248155698797 -6.63636011967041472559 -3.37567522821117593779 -5.00601767394079555373 -3.37567522821117593779 -5.00601767394079555373 -6.63636011967041472559 -5.00601767394079555373 -6.63636011967041472559 -6.63636011967041472559 -5.00601767394079555373 -5.00601767394079555373 -6.63636011967041472559 -5.00601767394079555373 -6.63636011967041472559 -8.26670256540003478563 -6.63636011967041472559 -6.63636011967041472559 -6.63636011967041472559 -6.63636011967041472559 -8.26670256540003478563 -8.26670256540003478563 -6.63636011967041472559 -9.89704501112965395748 -9.89704501112965395748 -9.89704501112965395748 -13.15772990258889052484 -13.15772990258889052484 -11.52738745685927312934 -9.89704501112965395748 -9.89704501112965395748 -9.89704501112965395748 -9.89704501112965395748 -11.52738745685927312934 -16.41841479404813242127 -11.52738745685927312934 -11.52738745685927312934 -13.15772990258889052484 -13.15772990258889052484 -14.78807234831851147305 -13.15772990258889052484 -14.78807234831851147305 -11.52738745685927312934 -14.78807234831851147305 -13.15772990258889052484 -16.41841479404813242127 -14.78807234831851147305 -14.78807234831851147305 -14.78807234831851147305 -14.78807234831851147305 -13.15772990258889052484 -16.41841479404813242127 -14.78807234831851147305 -14.78807234831851147305 -16.41841479404813242127 -14.78807234831851147305 -14.78807234831851147305 -13.15772990258889052484 -13.15772990258889052484 -13.15772990258889052484 -11.52738745685927312934 -13.15772990258889052484 -13.15772990258889052484 -11.52738745685927312934 -11.52738745685927312934 -9.89704501112965395748 -9.89704501112965395748 -9.89704501112965395748 -11.52738745685927312934 -9.89704501112965395748 -9.89704501112965395748 -11.52738745685927312934 -9.89704501112965395748 -8.26670256540003478563 -9.89704501112965395748 -11.52738745685927312934 -8.26670256540003478563 -9.89704501112965395748 -8.26670256540003478563 -8.26670256540003478563 -9.89704501112965395748 -8.26670256540003478563 -6.63636011967041472559 -6.63636011967041472559 -6.63636011967041472559 -6.63636011967041472559 -8.26670256540003478563 -5.00601767394079555373 -6.63636011967041472559 -6.63636011967041472559 -6.63636011967041472559 -8.26670256540003478563 -5.00601767394079555373 -8.26670256540003478563 -5.00601767394079555373 -3.37567522821117593779 -8.26670256540003478563 -5.00601767394079555373 -5.00601767394079555373 -6.63636011967041472559 -5.00601767394079555373 -8.26670256540003478563 -8.26670256540003478563 -6.63636011967041472559 -6.63636011967041472559 -6.63636011967041472559 -6.63636011967041472559 -6.63636011967041472559 -5.00601767394079555373 -5.00601767394079555373 -8.26670256540003478563 -6.63636011967041472559 -5.00601767394079555373 -8.26670256540003478563 -5.00601767394079555373 -5.00601767394079555373 -8.26670256540003478563 -6.63636011967041472559 -3.37567522821117593779 -9.89704501112965395748 -9.89704501112965395748 -6.63636011967041472559 -8.26670256540003478563 -8.26670256540003478563 -8.26670256540003478563 -8.26670256540003478563 -9.89704501112965395748 -9.89704501112965395748 -11.52738745685927312934 -6.63636011967041472559 -8.26670256540003478563 -6.63636011967041472559 -6.63636011967041472559 -8.26670256540003478563 -6.63636011967041472559 -9.89704501112965395748 -13.15772990258889052484 -6.63636011967041472559 -6.63636011967041472559 -9.89704501112965395748 -8.26670256540003478563 -5.00601767394079555373 -5.00601767394079555373 -9.89704501112965395748 -8.26670256540003478563 -6.63636011967041472559 -8.26670256540003478563 -6.63636011967041472559 -8.26670256540003478563 -8.26670256540003478563 -8.26670256540003478563 -8.26670256540003478563 -8.26670256540003478563 -5.00601767394079555373 -3.37567522821117593779 -9.89704501112965395748 -6.63636011967041472559 -6.63636011967041472559 -8.26670256540003478563 -3.37567522821117593779 -6.63636011967041472559 -3.37567522821117593779 -6.63636011967041472559 -5.00601767394079555373 -5.00601767394079555373 -6.63636011967041472559 -5.00601767394079555373 -3.37567522821117593779 -3.37567522821117593779 -1.74533278248155698797 -0.11499033675193787163 -5.00601767394079555373 -5.00601767394079555373 -5.00601767394079555373 -3.37567522821117593779 -0.11499033675193787163 -1.74533278248155698797 -1.74533278248155698797 -3.37567522821117593779 -1.74533278248155698797 -0.11499033675193787163 -1.74533278248155698797 -0.11499033675193787163 -3.37567522821117593779 -0.11499033675193787163 1.51535210897768113369 -0.11499033675193787163 -1.74533278248155698797 1.51535210897768113369 6.40637944616653864927 3.14569455470730074964 3.14569455470730074964 4.77603700043692036559 1.51535210897768113369 4.77603700043692036559 4.77603700043692036559 4.77603700043692036559 4.77603700043692036559 4.77603700043692036559 3.14569455470730074964 4.77603700043692036559 8.03672189189615870930 8.03672189189615870930 8.03672189189615870930 6.40637944616653864927 4.77603700043692036559 4.77603700043692036559 4.77603700043692036559 8.03672189189615870930 9.66706433762577788116 8.03672189189615870930 6.40637944616653864927 6.40637944616653864927 8.03672189189615870930 4.77603700043692036559 8.03672189189615870930 6.40637944616653864927 11.29740678335539527666 8.03672189189615870930 8.03672189189615870930 8.03672189189615870930 6.40637944616653864927 8.03672189189615870930 3.14569455470730074964 8.03672189189615870930 4.77603700043692036559 8.03672189189615870930 4.77603700043692036559 6.40637944616653864927 4.77603700043692036559 4.77603700043692036559 3.14569455470730074964 3.14569455470730074964 6.40637944616653864927 6.40637944616653864927 4.77603700043692036559 4.77603700043692036559 1.51535210897768113369 -0.11499033675193787163 1.51535210897768113369 -0.11499033675193787163 1.51535210897768113369 3.14569455470730074964 6.40637944616653864927 4.77603700043692036559 3.14569455470730074964 3.14569455470730074964 1.51535210897768113369 1.51535210897768113369 -0.11499033675193787163 -0.11499033675193787163 3.14569455470730074964 3.14569455470730074964 4.77603700043692036559 1.51535210897768113369 1.51535210897768113369 3.14569455470730074964 1.51535210897768113369 1.51535210897768113369 -0.11499033675193787163 1.51535210897768113369 1.51535210897768113369 1.51535210897768113369 -0.11499033675193787163 1.51535210897768113369 1.51535210897768113369 1.51535210897768113369 1.51535210897768113369 -0.11499033675193787163 -0.11499033675193787163 1.51535210897768113369 1.51535210897768113369 3.14569455470730074964 -0.11499033675193787163 -0.11499033675193787163 -0.11499033675193787163 -1.74533278248155698797 -1.74533278248155698797 1.51535210897768113369 -0.11499033675193787163 3.14569455470730074964 -0.11499033675193787163 1.51535210897768113369 -0.11499033675193787163 -0.11499033675193787163 -0.11499033675193787163 -3.37567522821117593779 -0.11499033675193787163 1.51535210897768113369 1.51535210897768113369 1.51535210897768113369 -0.11499033675193787163 1.51535210897768113369 -5.00601767394079555373 -3.37567522821117593779 -1.74533278248155698797 -1.74533278248155698797 -0.11499033675193787163 -0.11499033675193787163 3.14569455470730074964 -0.11499033675193787163 -0.11499033675193787163 -1.74533278248155698797 1.51535210897768113369 -3.37567522821117593779 -3.37567522821117593779 -0.11499033675193787163 -0.11499033675193787163 -0.11499033675193787163 -1.74533278248155698797 -3.37567522821117593779 -1.74533278248155698797 -5.00601767394079555373 -3.37567522821117593779 -3.37567522821117593779 -3.37567522821117593779 -0.11499033675193787163 1.51535210897768113369 -1.74533278248155698797 -0.11499033675193787163 -1.74533278248155698797 -3.37567522821117593779 -6.63636011967041472559 -5.00601767394079555373 -1.74533278248155698797 -1.74533278248155698797 1.51535210897768113369 -1.74533278248155698797 -1.74533278248155698797 -0.11499033675193787163 -1.74533278248155698797 -1.74533278248155698797 -0.11499033675193787163 -5.00601767394079555373 -1.74533278248155698797 -0.11499033675193787163 -1.74533278248155698797 -0.11499033675193787163 1.51535210897768113369 -3.37567522821117593779 -0.11499033675193787163 -1.74533278248155698797 -3.37567522821117593779 3.14569455470730074964 3.14569455470730074964 3.14569455470730074964 -0.11499033675193787163 -0.11499033675193787163 1.51535210897768113369 -0.11499033675193787163 -3.37567522821117593779 -0.11499033675193787163 1.51535210897768113369 4.77603700043692036559 -0.11499033675193787163 -0.11499033675193787163 1.51535210897768113369 -0.11499033675193787163 -1.74533278248155698797 -1.74533278248155698797 -3.37567522821117593779 -0.11499033675193787163 3.14569455470730074964 1.51535210897768113369 1.51535210897768113369 -0.11499033675193787163 1.51535210897768113369 -0.11499033675193787163 -1.74533278248155698797 -1.74533278248155698797 1.51535210897768113369 3.14569455470730074964 3.14569455470730074964 4.77603700043692036559 -0.11499033675193787163 3.14569455470730074964 -0.11499033675193787163 -0.11499033675193787163 3.14569455470730074964 3.14569455470730074964 3.14569455470730074964 6.40637944616653864927 1.51535210897768113369 3.14569455470730074964 3.14569455470730074964 4.77603700043692036559 3.14569455470730074964 4.77603700043692036559 3.14569455470730074964 3.14569455470730074964 6.40637944616653864927 4.77603700043692036559 8.03672189189615870930 6.40637944616653864927 4.77603700043692036559 1.51535210897768113369 4.77603700043692036559 3.14569455470730074964 8.03672189189615870930 6.40637944616653864927 8.03672189189615870930 3.14569455470730074964 4.77603700043692036559 4.77603700043692036559 8.03672189189615870930 3.14569455470730074964 1.51535210897768113369 4.77603700043692036559 4.77603700043692036559 6.40637944616653864927 8.03672189189615870930 6.40637944616653864927 4.77603700043692036559 4.77603700043692036559 4.77603700043692036559 1.51535210897768113369 4.77603700043692036559 6.40637944616653864927 4.77603700043692036559 4.77603700043692036559 3.14569455470730074964 -0.11499033675193787163 1.51535210897768113369 1.51535210897768113369 -0.11499033675193787163 1.51535210897768113369 1.51535210897768113369 3.14569455470730074964 4.77603700043692036559 1.51535210897768113369 -0.11499033675193787163 3.14569455470730074964 -3.37567522821117593779 -0.11499033675193787163 -3.37567522821117593779 -0.11499033675193787163 1.51535210897768113369 -0.11499033675193787163 -0.11499033675193787163 -1.74533278248155698797 -3.37567522821117593779 -3.37567522821117593779 -3.37567522821117593779 -5.00601767394079555373 -3.37567522821117593779 -5.00601767394079555373 -1.74533278248155698797 -5.00601767394079555373 1.51535210897768113369 -1.74533278248155698797 -5.00601767394079555373 -5.00601767394079555373 -8.26670256540003478563 -8.26670256540003478563 -6.63636011967041472559 -3.37567522821117593779 -5.00601767394079555373 -3.37567522821117593779 -6.63636011967041472559 -6.63636011967041472559 -6.63636011967041472559 -6.63636011967041472559 -6.63636011967041472559 -5.00601767394079555373 -6.63636011967041472559 -3.37567522821117593779 -6.63636011967041472559 -5.00601767394079555373 -5.00601767394079555373 -8.26670256540003478563 -5.00601767394079555373 -3.37567522821117593779 -1.74533278248155698797 -5.00601767394079555373 -5.00601767394079555373 -6.63636011967041472559 -6.63636011967041472559 -5.00601767394079555373 -1.74533278248155698797 -0.11499033675193787163 -5.00601767394079555373 -3.37567522821117593779 -6.63636011967041472559 -1.74533278248155698797 -6.63636011967041472559 -6.63636011967041472559 -3.37567522821117593779 -1.74533278248155698797 -1.74533278248155698797 -3.37567522821117593779 -5.00601767394079555373 -5.00601767394079555373 -6.63636011967041472559 -3.37567522821117593779 -0.11499033675193787163 -1.74533278248155698797 -1.74533278248155698797 -0.11499033675193787163 -5.00601767394079555373 -3.37567522821117593779 -5.00601767394079555373 -3.37567522821117593779 -5.00601767394079555373 -5.00601767394079555373 -5.00601767394079555373 -0.11499033675193787163 -3.37567522821117593779 -5.00601767394079555373 -0.11499033675193787163 -5.00601767394079555373 -3.37567522821117593779 -5.00601767394079555373 -8.26670256540003478563 -6.63636011967041472559 -3.37567522821117593779 -3.37567522821117593779 -3.37567522821117593779 -3.37567522821117593779 -3.37567522821117593779 -3.37567522821117593779 -5.00601767394079555373 -6.63636011967041472559 -5.00601767394079555373 -1.74533278248155698797 -1.74533278248155698797 -1.74533278248155698797 -3.37567522821117593779 -5.00601767394079555373 -3.37567522821117593779 -5.00601767394079555373 -5.00601767394079555373 -5.00601767394079555373 -3.37567522821117593779 -1.74533278248155698797 -1.74533278248155698797 -5.00601767394079555373 -3.37567522821117593779 -3.37567522821117593779 -5.00601767394079555373 -6.63636011967041472559 -3.37567522821117593779 -5.00601767394079555373 -3.37567522821117593779 -5.00601767394079555373 -6.63636011967041472559 -5.00601767394079555373 -8.26670256540003478563 -5.00601767394079555373 -5.00601767394079555373 -3.37567522821117593779 -1.74533278248155698797 -3.37567522821117593779 -6.63636011967041472559 -3.37567522821117593779 -3.37567522821117593779 -5.00601767394079555373 -5.00601767394079555373 -8.26670256540003478563 -5.00601767394079555373 -3.37567522821117593779 -3.37567522821117593779 -1.74533278248155698797 -3.37567522821117593779 -6.63636011967041472559 -5.00601767394079555373 -6.63636011967041472559 -5.00601767394079555373 -3.37567522821117593779 -0.11499033675193787163 -3.37567522821117593779 -1.74533278248155698797 -5.00601767394079555373 -5.00601767394079555373 -8.26670256540003478563 -6.63636011967041472559 -6.63636011967041472559 -3.37567522821117593779 -3.37567522821117593779 -3.37567522821117593779 -6.63636011967041472559 -5.00601767394079555373 -3.37567522821117593779 -6.63636011967041472559 -8.26670256540003478563 -8.26670256540003478563 -8.26670256540003478563 -5.00601767394079555373 -3.37567522821117593779 -3.37567522821117593779 -1.74533278248155698797 -3.37567522821117593779 -6.63636011967041472559 -5.00601767394079555373 -5.00601767394079555373 -8.26670256540003478563 -6.63636011967041472559 -5.00601767394079555373 -3.37567522821117593779 -3.37567522821117593779 -3.37567522821117593779 -6.63636011967041472559 -6.63636011967041472559 -8.26670256540003478563 -6.63636011967041472559 -8.26670256540003478563 -1.74533278248155698797 -6.63636011967041472559 -5.00601767394079555373 -5.00601767394079555373 -3.37567522821117593779 -8.26670256540003478563 -8.26670256540003478563 -6.63636011967041472559 -8.26670256540003478563 -6.63636011967041472559 -6.63636011967041472559 -5.00601767394079555373 -6.63636011967041472559 -3.37567522821117593779 -5.00601767394079555373 -8.26670256540003478563 -6.63636011967041472559 -9.89704501112965395748 -5.00601767394079555373 -5.00601767394079555373 -3.37567522821117593779 -1.74533278248155698797 -3.37567522821117593779 -6.63636011967041472559 -6.63636011967041472559 -8.26670256540003478563 -9.89704501112965395748 -5.00601767394079555373 -6.63636011967041472559 -5.00601767394079555373 -5.00601767394079555373 -5.00601767394079555373 -6.63636011967041472559 -6.63636011967041472559 -8.26670256540003478563 -8.26670256540003478563 -8.26670256540003478563 -5.00601767394079555373 -3.37567522821117593779 -5.00601767394079555373 -3.37567522821117593779 -6.63636011967041472559 -8.26670256540003478563 -8.26670256540003478563 -6.63636011967041472559 -3.37567522821117593779 -5.00601767394079555373 -5.00601767394079555373 -6.63636011967041472559 -5.00601767394079555373 -8.26670256540003478563 -6.63636011967041472559 -6.63636011967041472559 -5.00601767394079555373 -3.37567522821117593779 -1.74533278248155698797 -3.37567522821117593779 -1.74533278248155698797 -1.74533278248155698797 -5.00601767394079555373 -5.00601767394079555373 -6.63636011967041472559 -8.26670256540003478563 -1.74533278248155698797 -3.37567522821117593779 -5.00601767394079555373 -3.37567522821117593779 -5.00601767394079555373 -6.63636011967041472559 -5.00601767394079555373 -3.37567522821117593779 -8.26670256540003478563 -1.74533278248155698797 -0.11499033675193787163 1.51535210897768113369 -1.74533278248155698797 -5.00601767394079555373 -3.37567522821117593779 -3.37567522821117593779 -6.63636011967041472559 -6.63636011967041472559 -3.37567522821117593779 -1.74533278248155698797 -5.00601767394079555373 -1.74533278248155698797 -3.37567522821117593779 -1.74533278248155698797 -5.00601767394079555373 -6.63636011967041472559 -3.37567522821117593779 -3.37567522821117593779 -0.11499033675193787163 -0.11499033675193787163 -1.74533278248155698797 -1.74533278248155698797 -3.37567522821117593779 -5.00601767394079555373 -0.11499033675193787163 -1.74533278248155698797 -1.74533278248155698797 -0.11499033675193787163 -1.74533278248155698797 -1.74533278248155698797 -1.74533278248155698797 -3.37567522821117593779 -5.00601767394079555373 -5.00601767394079555373 -1.74533278248155698797 -1.74533278248155698797 -0.11499033675193787163 -1.74533278248155698797 -1.74533278248155698797 -5.00601767394079555373 -1.74533278248155698797 -1.74533278248155698797 -1.74533278248155698797 -3.37567522821117593779 -0.11499033675193787163 -3.37567522821117593779 -3.37567522821117593779 -5.00601767394079555373 -5.00601767394079555373 -0.11499033675193787163 -3.37567522821117593779 -0.11499033675193787163 -0.11499033675193787163 -1.74533278248155698797 -1.74533278248155698797 -3.37567522821117593779 -6.63636011967041472559 -5.00601767394079555373 -6.63636011967041472559 -6.63636011967041472559 -0.11499033675193787163 -3.37567522821117593779 -1.74533278248155698797 -3.37567522821117593779 -6.63636011967041472559 -3.37567522821117593779 -5.00601767394079555373 -6.63636011967041472559 -6.63636011967041472559 -3.37567522821117593779 -3.37567522821117593779 -3.37567522821117593779 -5.00601767394079555373 -3.37567522821117593779 -5.00601767394079555373 -6.63636011967041472559 -6.63636011967041472559 -5.00601767394079555373 -5.00601767394079555373 -5.00601767394079555373 -5.00601767394079555373 -6.63636011967041472559 -3.37567522821117593779 -8.26670256540003478563 -8.26670256540003478563 -6.63636011967041472559 -9.89704501112965395748 -9.89704501112965395748 -6.63636011967041472559 -5.00601767394079555373 -5.00601767394079555373 -6.63636011967041472559 -6.63636011967041472559 -8.26670256540003478563 -6.63636011967041472559 -8.26670256540003478563 -9.89704501112965395748 -6.63636011967041472559 -6.63636011967041472559 -6.63636011967041472559 -5.00601767394079555373 -8.26670256540003478563 -6.63636011967041472559 -8.26670256540003478563 -8.26670256540003478563 -9.89704501112965395748 -6.63636011967041472559 -6.63636011967041472559 -6.63636011967041472559 -5.00601767394079555373 -6.63636011967041472559 -8.26670256540003478563 -9.89704501112965395748 -9.89704501112965395748 -8.26670256540003478563 -5.00601767394079555373 -6.63636011967041472559 -5.00601767394079555373 -9.89704501112965395748 -8.26670256540003478563 -9.89704501112965395748 -11.52738745685927312934 -9.89704501112965395748 -3.37567522821117593779 -6.63636011967041472559 -3.37567522821117593779 -6.63636011967041472559 -5.00601767394079555373 -8.26670256540003478563 -8.26670256540003478563 -9.89704501112965395748 -9.89704501112965395748 -6.63636011967041472559 -6.63636011967041472559 -5.00601767394079555373 -5.00601767394079555373 -5.00601767394079555373 -6.63636011967041472559 -8.26670256540003478563 -6.63636011967041472559 -8.26670256540003478563 -6.63636011967041472559 -5.00601767394079555373 -3.37567522821117593779 -5.00601767394079555373 -8.26670256540003478563 -6.63636011967041472559 -5.00601767394079555373 -9.89704501112965395748 -5.00601767394079555373 -6.63636011967041472559 -3.37567522821117593779 -3.37567522821117593779 -5.00601767394079555373 -5.00601767394079555373 -6.63636011967041472559 -6.63636011967041472559 -8.26670256540003478563 -8.26670256540003478563 -6.63636011967041472559 -6.63636011967041472559 -5.00601767394079555373 -5.00601767394079555373 -3.37567522821117593779 -8.26670256540003478563 -5.00601767394079555373 -6.63636011967041472559 -5.00601767394079555373 -3.37567522821117593779 -5.00601767394079555373 -5.00601767394079555373 -3.37567522821117593779 -6.63636011967041472559 -8.26670256540003478563 -8.26670256540003478563 -3.37567522821117593779 -3.37567522821117593779 -6.63636011967041472559 -5.00601767394079555373 -5.00601767394079555373 -8.26670256540003478563 -8.26670256540003478563 -8.26670256540003478563 -5.00601767394079555373 -5.00601767394079555373 -5.00601767394079555373 -5.00601767394079555373 -5.00601767394079555373 -6.63636011967041472559 -6.63636011967041472559 -9.89704501112965395748 -6.63636011967041472559 -3.37567522821117593779 -6.63636011967041472559 -6.63636011967041472559 -6.63636011967041472559 -6.63636011967041472559 -8.26670256540003478563 -8.26670256540003478563 -3.37567522821117593779 -3.37567522821117593779 -6.63636011967041472559 -5.00601767394079555373 -8.26670256540003478563 -6.63636011967041472559 -6.63636011967041472559 -9.89704501112965395748 -8.26670256540003478563 -5.00601767394079555373 -6.63636011967041472559 -5.00601767394079555373 -8.26670256540003478563 -6.63636011967041472559 -5.00601767394079555373 -8.26670256540003478563 -8.26670256540003478563 -6.63636011967041472559 -6.63636011967041472559 -6.63636011967041472559 -5.00601767394079555373 -5.00601767394079555373 -6.63636011967041472559 -8.26670256540003478563 -6.63636011967041472559 -5.00601767394079555373 -3.37567522821117593779 -6.63636011967041472559 -3.37567522821117593779 -8.26670256540003478563 -8.26670256540003478563 -6.63636011967041472559 -6.63636011967041472559 -11.52738745685927312934 -8.26670256540003478563 -8.26670256540003478563 -5.00601767394079555373 -5.00601767394079555373 -5.00601767394079555373 -6.63636011967041472559 -6.63636011967041472559 -6.63636011967041472559 -11.52738745685927312934 -8.26670256540003478563 -8.26670256540003478563 -8.26670256540003478563 -5.00601767394079555373 -5.00601767394079555373 -9.89704501112965395748 -5.00601767394079555373 -9.89704501112965395748 -9.89704501112965395748 -6.63636011967041472559 -5.00601767394079555373 -6.63636011967041472559 -5.00601767394079555373 -6.63636011967041472559 -5.00601767394079555373 -9.89704501112965395748 -11.52738745685927312934 -8.26670256540003478563 -5.00601767394079555373 -5.00601767394079555373 -6.63636011967041472559 -6.63636011967041472559 -6.63636011967041472559 -5.00601767394079555373 -6.63636011967041472559 -9.89704501112965395748 -6.63636011967041472559 -6.63636011967041472559 -8.26670256540003478563 -6.63636011967041472559 -6.63636011967041472559 -6.63636011967041472559 -6.63636011967041472559 -8.26670256540003478563 -8.26670256540003478563 -6.63636011967041472559 -5.00601767394079555373 -5.00601767394079555373 -0.11499033675193787163 -1.74533278248155698797 -0.11499033675193787163 -3.37567522821117593779 -1.74533278248155698797 -3.37567522821117593779 