0.000000 0.000000 -0.000000 0.000000 0.000000 0.000000 0.000000 0.000000 0.000000 0.000000 0.000000 0.000000 0.000000 0.000000 0.000000 0.000000 0.000000 0.000000 -0.000000 -0.000000 -0.000000 0.000000 0.000000 -0.000000 0.000000 0.000000 -0.000000 0.000000 0.000000 0.000000 -0.000000 -0.000000 -0.000000 0.000000 -0.000000 0.000000 0.000000 0.000000 0.000000 0.000000 0.000000 0.000000 0.000000 0.000000 -0.000000 0.000000 -0.000000 -0.000000 0.000000 0.000000 0.000000 0.000000 0.000000 0.000000 0.000000 0.000000 -0.000000 -0.000000 0.000000 -0.000000 0.000000 0.000000 0.000000 0.000000 -0.000000 0.000000 -0.000000 0.000000 -0.000000 0.000000 0.000000 0.000000 -0.000000 0.000000 -0.000000 0.000000 -0.000000 0.000000 0.000000 0.000000 0.000000 -0.000000 0.000000 0.000000 -0.000000 0.000000 0.000000 0.000000 -0.000000 0.000000 -0.000000 0.000000 0.000000 0.000000 -0.000000 -0.000000 0.000000 -0.000000 0.000000 0.000000 -0.000000 0.000000 -0.000000 0.000000 -0.000000 -0.000000 -0.000000 -0.000002 -0.000009 -0.000027 -0.000069 -0.000149 -0.000291 -0.000521 -0.000874 -0.001387 -0.002103 -0.003070 -0.004337 -0.005955 -0.007977 -0.010453 -0.013433 -0.016967 -0.021100 -0.025871 -0.031319 -0.037474 -0.044364 -0.052010 -0.060427 -0.069625 -0.079606 -0.090370 -0.101908 -0.114208 -0.127252 -0.141018 -0.155479 -0.170604 -0.186360 -0.202710 -0.219614 -0.237030 -0.254916 -0.273226 -0.291915 -0.310937 -0.330245 -0.349794 -0.369536 -0.389428 -0.409424 -0.429482 -0.449559 -0.469617 -0.489615 -0.509517 -0.529289 -0.548897 -0.568310 -0.587500 -0.606439 -0.625103 -0.643468 -0.661515 -0.679224 -0.696577 -0.713557 -0.730144 -0.746318 -0.762052 -0.777319 -0.792086 -0.806315 -0.819965 -0.832991 -0.845347 -0.856983 -0.867850 -0.877897 -0.887075 -0.895338 -0.902642 -0.908948 -0.914225 -0.918449 -0.921608 -0.923698 -0.924729 -0.924723 -0.923712 -0.921741 -0.918862 -0.915139 -0.910642 -0.905448 -0.899639 -0.893300 -0.886520 -0.879387 -0.871990 -0.864415 -0.856746 -0.849066 -0.841449 -0.833970 -0.826694 -0.819682 -0.812990 -0.806667 -0.800755 -0.795292 -0.790307 -0.785825 -0.781865 -0.778441 -0.775560 -0.773226 -0.771438 -0.770190 -0.769474 -0.769277 -0.769584 -0.770377 -0.771635 -0.773337 -0.775458 -0.777975 -0.780860 -0.784088 -0.787632 -0.791464 -0.795558 -0.799886 -0.804423 -0.809142 -0.814019 -0.819028 -0.824148 -0.829355 -0.834627 -0.839946 -0.845291 -0.850643 -0.855981 -0.861282 -0.866520 -0.871665 -0.876680 -0.881527 -0.886162 -0.890535 -0.894597 -0.898292 -0.901564 -0.904358 -0.906617 -0.908287 -0.909315 -0.909652 -0.909257 -0.908093 -0.906135 -0.903367 -0.899786 -0.895399 -0.890226 -0.884297 -0.877654 -0.870349 -0.862442 -0.854000 -0.845096 -0.835809 -0.826219 -0.816410 -0.806464 -0.796464 -0.786491 -0.776622 -0.766934 -0.757494 -0.748370 -0.739619 -0.731298 -0.723453 -0.716127 -0.709356 -0.703169 -0.697591 -0.692639 -0.688326 -0.684660 -0.681642 -0.679271 -0.677539 -0.676436 -0.675948 -0.676058 -0.676745 -0.677988 -0.679761 -0.682040 -0.684796 -0.688000 -0.691624 -0.695638 -0.700011 -0.704713 -0.709715 -0.714987 -0.720500 -0.726226 -0.732138 -0.738208 -0.744412 -0.750724 -0.757123 -0.763584 -0.770088 -0.776612 -0.783131 -0.789621 -0.796051 -0.802386 -0.808588 -0.814614 -0.820416 -0.825943 -0.831139 -0.835950 -0.840317 -0.844183 -0.847490 -0.850184 -0.852211 -0.853525 -0.854086 -0.853862 -0.852830 -0.850980 -0.848313 -0.844842 -0.840591 -0.835595 -0.829900 -0.823563 -0.816644 -0.809214 -0.801348 -0.793124 -0.784624 -0.775929 -0.767122 -0.758283 -0.749491 -0.740822 -0.732347 -0.724133 -0.716241 -0.708729 -0.701646 -0.695037 -0.688940 -0.683389 -0.678409 -0.674022 -0.670243 -0.667081 -0.664540 -0.662622 -0.661321 -0.660630 -0.660535 -0.661022 -0.662073 -0.663666 -0.665778 -0.668385 -0.671461 -0.674977 -0.678906 -0.683218 -0.687884 -0.692875 -0.698161 -0.703713 -0.709502 -0.715501 -0.721682 -0.728018 -0.734485 -0.741058 -0.747714 -0.754431 -0.761187 -0.767960 -0.774730 -0.781470 -0.788154 -0.794748 -0.801216 -0.807517 -0.813605 -0.819431 -0.824942 -0.830083 -0.834795 -0.839023 -0.842708 -0.845795 -0.848231 -0.849964 -0.850948 -0.851142 -0.850507 -0.849014 -0.846636 -0.843353 -0.839153 -0.834028 -0.827978 -0.821006 -0.813125 -0.804348 -0.794699 -0.784202 -0.772887 -0.760789 -0.747945 -0.734395 -0.720183 -0.705352 -0.689951 -0.674025 -0.657626 -0.640801 -0.623600 -0.606071 -0.588265 -0.570227 -0.552006 -0.533646 -0.515193 -0.496691 -0.478182 -0.459708 -0.441312 -0.423035 -0.404917 -0.386996 -0.369312 -0.351902 -0.334802 -0.318046 -0.301666 -0.285691 -0.270151 -0.255070 -0.240472 -0.226377 -0.212804 -0.199768 -0.187280 -0.175353 -0.163992 -0.153202 -0.142985 -0.133342 -0.124270 -0.115765 -0.107819 -0.100425 -0.093572 -0.087249 -0.081444 -0.076141 -0.071326 -0.066983 -0.063095 -0.059646 -0.056616 -0.053989 -0.051745 -0.049867 -0.048337 -0.047135 -0.046245 -0.045648 -0.045327 -0.045265 -0.045446 -0.045854 -0.046472 -0.047287 -0.048283 -0.049448 -0.050767 -0.052229 -0.053821 -0.055532 -0.057352 -0.059270 -0.061276 -0.063360 -0.065511 -0.067718 -0.069970 -0.072253 -0.074554 -0.076858 -0.079151 -0.081416 -0.083637 -0.085798 -0.087883 -0.089876 -0.091763 -0.093528 -0.095158 -0.096641 -0.097967 -0.099127 -0.100117 -0.100933 -0.101575 -0.102047 -0.102354 -0.102503 -0.102507 -0.102378 -0.102130 -0.101779 -0.101341 -0.100834 -0.100277 -0.099688 -0.099085 -0.098486 -0.097908 -0.097368 -0.096881 -0.096461 -0.096122 -0.095875 -0.095731 -0.095698 -0.095784 -0.095995 -0.096336 -0.096810 -0.097419 -0.098165 -0.099046 -0.100062 -0.101210 -0.102487 -0.103889 -0.105412 -0.107049 -0.108796 -0.110645 -0.112591 -0.114626 -0.116743 -0.118934 -0.121193 -0.123512 -0.125884 -0.128301 -0.130756 -0.133243 -0.135753 -0.138282 -0.140822 -0.143368 -0.145913 -0.148453 -0.150982 -0.153495 -0.155988 -0.158454 -0.160889 -0.163286 -0.165637 -0.167933 -0.170166 -0.172324 -0.174396 -0.176369 -0.178231 -0.179969 -0.181570 -0.183021 -0.184310 -0.185424 -0.186353 -0.187087 -0.187618 -0.187941 -0.188052 -0.187952 -0.187642 -0.187128 -0.186417 -0.185520 -0.184450 -0.183221 -0.181850 -0.180353 -0.178750 -0.177060 -0.175303 -0.173499 -0.171667 -0.169826 -0.167997 -0.166195 -0.164438 -0.162743 -0.161122 -0.159588 -0.158155 -0.156831 -0.155625 -0.154544 -0.153595 -0.152782 -0.152108 -0.151575 -0.151183 -0.150933 -0.150823 -0.150851 -0.151013 -0.151306 -0.151726 -0.152267 -0.152924 -0.153691 -0.154561 -0.155529 -0.156587 -0.157729 -0.158947 -0.160236 -0.161588 -0.162997 -0.164455 -0.165957 -0.167497 -0.169067 -0.170663 -0.172279 -0.173909 -0.175549 -0.177194 -0.178838 -0.180476 -0.182103 -0.183712 -0.185294 -0.186841 -0.188342 -0.189787 -0.191165 -0.192461 -0.193663 -0.194757 -0.195732 -0.196573 -0.197267 -0.197804 -0.198171 -0.198358 -0.198359 -0.198168 -0.197782 -0.197200 -0.196425 -0.195462 -0.194320 -0.193009 -0.191542 -0.189933 -0.188199 -0.186355 -0.184422 -0.182419 -0.180364 -0.178277 -0.176178 -0.174086 -0.172018 -0.169993 -0.168025 -0.166131 -0.164323 -0.162615 -0.161017 -0.159539 -0.158188 -0.156973 -0.155897 -0.154964 -0.154179 -0.153541 -0.153051 -0.152708 -0.152511 -0.152457 -0.152543 -0.152763 -0.153114 -0.153591 -0.154186 -0.154895 -0.155710 -0.156625 -0.157633 -0.158727 -0.159900 -0.161146 -0.162456 -0.163825 -0.165245 -0.166710 -0.168214 -0.169751 -0.171314 -0.172898 -0.174498 -0.176109 -0.177725 -0.179342 -0.180954 -0.182555 -0.184137 -0.185693 -0.187212 -0.188686 -0.190103 -0.191450 -0.192714 -0.193883 -0.194943 -0.195882 -0.196685 -0.197340 -0.197835 -0.198159 -0.198301 -0.198253 -0.198007 -0.197555 -0.196894 -0.196019 -0.194927 -0.193619 -0.192095 -0.190357 -0.188408 -0.186252 -0.183896 -0.181345 -0.178608 -0.175692 -0.172607 -0.169363 -0.165971 -0.162440 -0.158782 -0.155008 -0.151130 -0.147159 -0.143107 -0.138985 -0.134804 -0.130576 -0.126311 -0.122024 -0.117730 -0.113451 -0.109213 -0.105050 -0.101003 -0.097122 -0.093461 -0.090081 -0.087051 -0.084440 -0.082322 -0.080772 -0.079865 -0.079674 -0.080269 -0.081718 -0.084082 -0.087416 -0.091771 -0.097187 -0.103700 -0.111336 -0.120112 -0.130039 -0.141120 -0.153347 -0.166707 -0.181181 -0.196740 -0.213352 -0.230976 -0.249569 -0.269082 -0.289461 -0.310651 -0.332593 -0.355225 -0.378486 -0.402310 -0.426634 -0.451393 -0.476523 -0.501960 -0.527641 -0.553507 -0.579496 -0.605552 -0.631619 -0.657645 -0.683578 -0.709371 -0.734978 -0.760357 -0.785468 -0.810275 -0.834743 -0.858841 -0.882541 -0.905816 -0.928642 -0.950991 -0.972836 -0.994145 -1.014881 -1.035001 -1.054457 -1.073195 -1.091157 -1.108279 -1.124495 -1.139737 -1.153937 -1.167025 -1.178937 -1.189608 -1.198982 -1.207009 -1.213651 -1.218882 -1.222691 -1.225081 -1.226073 -1.225702 -1.224019 -1.221089 -1.216991 -1.211814 -1.205656 -1.198624 -1.190831 -1.182393 -1.173427 -1.164053 -1.154388 -1.144546 -1.134637 -1.124769 -1.115039 -1.105541 -1.096360 -1.087573 -1.079251 -1.071453 -1.064232 -1.057634 -1.051695 -1.046442 -1.041898 -1.038076 -1.034983 -1.032621 -1.030984 -1.030063 -1.029843 -1.030305 -1.031426 -1.033181 -1.035540 -1.038473 -1.041946 -1.045926 -1.050378 -1.055265 -1.060550 -1.066198 -1.072173 -1.078438 -1.084958 -1.091699 -1.098629 -1.105714 -1.112925 -1.120232 -1.127607 -1.135024 -1.142457 -1.149879 -1.157259 -1.164565 -1.171757 -1.178791 -1.185615 -1.192172 -1.198399 -1.204228 -1.209587 -1.214400 -1.218592 -1.222087 -1.224810 -1.226688 -1.227653 -1.227644 -1.226610 -1.224509 -1.221315 -1.217016 -1.211616 -1.205137 -1.197612 -1.189094 -1.179646 -1.169347 -1.158283 -1.146550 -1.134253 -1.121498 -1.108399 -1.095067 -1.081615 -1.068153 -1.054790 -1.041628 -1.028764 -1.016289 -1.004288 -0.992837 -0.982005 -0.971852 -0.962430 -0.953782 -0.945945 -0.938946 -0.932804 -0.927534 -0.923140 -0.919622 -0.916972 -0.915180 -0.914227 -0.914093 -0.914751 -0.916172 -0.918325 -0.921174 -0.924685 -0.928817 -0.933533 -0.938791 -0.944552 -0.950775 -0.957419 -0.964443 -0.971809 -0.979478 -0.987412 -0.995574 -1.003931 -1.012447 -1.021091 -1.029833 -1.038642 -1.047490 -1.056345 -1.065175 -1.073939 -1.082594 -1.091091 -1.099372 -1.107376 -1.115036 -1.122278 -1.129028 -1.135207 -1.140739 -1.145544 -1.149547 -1.152676 -1.154862 -1.156048 -1.156182 -1.155230 -1.153168 -1.149991 -1.145707 -1.140341 -1.133935 -1.126545 -1.118238 -1.109095 -1.099208 -1.088674 -1.077598 -1.066090 -1.054262 -1.042224 -1.030090 -1.017967 -1.005962 -0.994175 -0.982700 -0.971626 -0.961034 -0.950996 -0.941579 -0.932838 -0.924823 -0.917574 -0.911123 -0.905496 -0.900708 -0.896771 -0.893687 -0.891453 -0.890061 -0.889497 -0.889741 -0.890770 -0.892559 -0.895076 -0.898290 -0.902164 -0.906663 -0.911747 -0.917378 -0.923515 -0.930119 -0.937148 -0.944563 -0.952324 -0.960393 -0.968730 -0.977301 -0.986068 -0.994999 -1.004060 -1.013220 -1.022450 -1.031720 -1.041002 -1.050263 -1.059469 -1.068580 -1.077548 -1.086322 -1.094845 -1.103051 -1.110871 -1.118233 -1.125060 -1.131274 -1.136798 -1.141555 -1.145470 -1.148472 -1.150495 -1.151478 -1.151368 -1.150116 -1.147683 -1.144039 -1.139160 -1.133031 -1.125646 -1.117007 -1.107124 -1.096014 -1.083701 -1.070218 -1.055600 -1.039891 -1.023139 -1.005397 -0.986720 -0.967168 -0.946803 -0.925688 -0.903890 -0.881474 -0.858507 -0.835056 -0.811188 -0.786967 -0.762458 -0.737724 -0.712826 -0.687824 -0.662776 -0.637740 -0.612772 -0.587926 -0.563255 -0.538810 -0.514642 -0.490799 -0.467325 -0.444267 -0.421664 -0.399553 -0.377971 -0.356950 -0.336519 -0.316705 -0.297530 -0.279015 -0.261175 -0.244025 -0.227574 -0.211829 -0.196794 -0.182471 -0.168858 -0.155951 -0.143745 -0.132229 -0.121394 -0.111228 -0.101716 -0.092844 -0.084594 -0.076949 -0.069889 -0.063397 -0.057451 -0.052032 -0.047118 -0.042688 -0.038723 -0.035200 -0.032100 -0.029400 -0.027083 -0.025126 -0.023512 -0.022222 -0.021236 -0.020538 -0.020110 -0.019935 -0.019999 -0.020285 -0.020779 -0.021468 -0.022338 -0.023377 -0.024571 -0.025910 -0.027381 -0.028970 -0.030664 -0.032449 -0.034310 -0.036231 -0.038194 -0.040184 -0.042181 -0.044168 -0.046127 -0.048041 -0.049893 -0.051667 -0.053347 -0.054919 -0.056371 -0.057694 -0.058880 -0.059923 -0.060823 -0.061581 -0.062199 -0.062686 -0.063048 -0.063300 -0.063452 -0.063518 -0.063514 -0.063457 -0.063363 -0.063248 -0.063131 -0.063028 -0.062955 -0.062927 -0.062959 -0.063064 -0.063254 -0.063541 -0.063933 -0.064440 -0.065067 -0.065820 -0.066704 -0.067722 -0.068874 -0.070161 -0.071583 -0.073138 -0.074822 -0.076634 -0.078567 -0.080617 -0.082779 -0.085046 -0.087412 -0.089870 -0.092412 -0.095032 -0.097721 -0.100473 -0.103279 -0.106132 -0.109025 -0.111950 -0.114900 -0.117868 -0.120848 -0.123833 -0.126817 -0.129794 -0.132759 -0.135706 -0.138630 -0.141527 -0.144391 -0.147216 -0.149996 -0.152722 -0.155388 -0.157982 -0.160494 -0.162914 -0.165227 -0.167423 -0.169486 -0.171405 -0.173167 -0.174759 -0.176171 -0.177390 -0.178407 -0.179216 -0.179811 -0.180190 -0.180352 -0.180302 -0.180043 -0.179586 -0.178940 -0.178118 -0.177138 -0.176014 -0.174763 -0.173405 -0.171958 -0.170443 -0.168879 -0.167286 -0.165682 -0.164086 -0.162516 -0.160987 -0.159515 -0.158113 -0.156795 -0.155571 -0.154452 -0.153444 -0.152556 -0.151793 -0.151159 -0.150658 -0.150290 -0.150056 -0.149956 -0.149989 -0.150152 -0.150442 -0.150855 -0.151388 -0.152034 -0.152789 -0.153647 -0.154602 -0.155647 -0.156776 -0.157983 -0.159260 -0.160601 -0.162001 -0.163451 -0.164946 -0.166480 -0.168046 -0.169640 -0.171255 -0.172886 -0.174528 -0.176176 -0.177826 -0.179472 -0.181109 -0.182731 -0.184331 -0.185900 -0.187429 -0.188908 -0.190326 -0.191670 -0.192929 -0.194086 -0.195130 -0.196049 -0.196829 -0.197457 -0.197923 -0.198215 -0.198324 -0.198245 -0.197973 -0.197507 -0.196847 -0.195997 -0.194964 -0.193758 -0.192389 -0.190873 -0.189224 -0.187459 -0.185595 -0.183651 -0.181646 -0.179601 -0.177533 -0.175463 -0.173408 -0.171386 -0.169414 -0.167507 -0.165679 -0.163943 -0.162312 -0.160794 -0.159399 -0.158134 -0.157005 -0.156016 -0.155171 -0.154472 -0.153919 -0.153512 -0.153250 -0.153131 -0.153152 -0.153308 -0.153596 -0.154010 -0.154545 -0.155195 -0.155953 -0.156813 -0.157769 -0.158813 -0.159938 -0.161138 -0.162406 -0.163734 -0.165117 -0.166547 -0.168019 -0.169525 -0.171061 -0.172620 -0.174197 -0.175788 -0.177386 -0.178987 -0.180585 -0.182175 -0.183751 -0.185303 -0.186824 -0.188303 -0.189730 -0.191093 -0.192380 -0.193577 -0.194669 -0.195645 -0.196492 -0.197197 -0.197746 -0.198129 -0.198335 -0.198355 -0.198179 -0.197801 -0.197216 -0.196418 -0.195405 -0.194177 -0.192732 -0.191072 -0.189200 -0.187120 -0.184837 -0.182357 -0.179688 -0.176838 -0.173815 -0.170629 -0.167290 -0.163809 -0.160196 -0.156463 -0.152622 -0.148684 -0.144660 -0.140561 -0.136400 -0.132187 -0.127933 -0.123651 -0.119355 -0.115061 -0.110793 -0.106576 -0.102441 -0.098426 -0.094572 -0.090926 -0.087539 -0.084464 -0.081756 -0.079472 -0.077669 -0.076402 -0.075724 -0.075687 -0.076338 -0.077719 -0.079869 -0.082819 -0.086598 -0.091225 -0.096716 -0.103080 -0.110318 -0.118429 -0.127403 -0.137226 -0.147879 -0.159337 -0.171572 -0.184552 -0.198241 -0.212601 -0.227589 -0.243163 -0.259277 -0.275884 -0.292938 -0.310390 -0.328193 -0.346297 -0.364656 -0.383223 -0.401952 -0.420798 -0.439719 -0.458672 -0.477617 -0.496517 -0.515335 -0.534037 -0.552591 -0.570966 -0.589134 -0.607071 -0.624750 -0.642152 -0.659255 -0.676041 -0.692490 -0.708582 -0.724293 -0.739596 -0.754461 -0.768852 -0.782730 -0.796052 -0.808772 -0.820841 -0.832208 -0.842823 -0.852635 -0.861594 -0.869652 -0.876766 -0.882897 -0.888011 -0.892086 -0.895106 -0.897070 -0.897986 -0.897873 -0.896765 -0.894705 -0.891745 -0.887949 -0.883386 -0.878135 -0.872277 -0.865898 -0.859086 -0.851930 -0.844520 -0.836943 -0.829284 -0.821626 -0.814044 -0.806613 -0.799400 -0.792466 -0.785868 -0.779654 -0.773868 -0.768546 -0.763721 -0.759415 -0.755648 -0.752434 -0.749780 -0.747690 -0.746161 -0.745188 -0.744763 -0.744871 -0.745496 -0.746621 -0.748224 -0.750282 -0.752771 -0.755666 -0.758938 -0.762562 -0.766509 -0.770751 -0.775260 -0.780010 -0.784971 -0.790119 -0.795427 -0.800869 -0.806422 -0.812063 -0.817770 -0.823521 -0.829297 -0.835079 -0.840845 -0.846572 -0.852236 -0.857805 -0.863246 -0.868520 -0.873583 -0.878387 -0.882883 -0.887015 -0.890728 -0.893966 -0.896673 -0.898794 -0.900276 -0.901069 -0.901130 -0.900424 -0.898922 -0.896610 -0.893480 -0.889541 -0.884811 -0.879319 -0.873106 -0.866222 -0.858727 -0.850687 -0.842174 -0.833265 -0.824041 -0.814585 -0.804977 -0.795302 -0.785639 -0.776066 -0.766657 -0.757483 -0.748608 -0.740092 -0.731990 -0.724350 -0.717215 -0.710620 -0.704595 -0.699166 -0.694350 -0.690160 -0.686604 -0.683686 -0.681402 -0.679747 -0.678711 -0.678280 -0.678438 -0.679165 -0.680439 -0.682236 -0.684531 -0.687297 -0.690505 -0.694127 -0.698133 -0.702494 -0.707180 -0.712161 -0.717409 -0.722895 -0.728590 -0.734468 -0.740503 -0.746668 -0.752941 -0.759298 -0.765717 -0.772176 -0.778655 -0.785128 -0.791571 -0.797954 -0.804242 -0.810396 -0.816374 -0.822128 -0.827606 -0.832755 -0.837518 -0.841838 -0.845656 -0.848916 -0.851563 -0.853545 -0.854813 -0.855327 -0.855054 -0.853972 -0.852068 -0.849342 -0.845806 -0.841484 -0.836409 -0.830627 -0.824192 -0.817168 -0.809623 -0.801631 -0.793273 -0.784629 -0.775782 -0.766815 -0.757810 -0.748846 -0.739999 -0.731343 -0.722946 -0.714869 -0.707171 -0.699904 -0.693113 -0.686837 -0.681111 -0.675961 -0.671410 -0.667472 -0.664160 -0.661477 -0.659425 -0.658000 -0.657192 -0.656992 -0.657383 -0.658347 -0.659863 -0.661909 -0.664460 -0.667488 -0.670967 -0.674867 -0.679160 -0.683816 -0.688805 -0.694096 -0.699662 -0.705472 -0.711498 -0.717713 -0.724090 -0.730603 -0.737227 -0.743938 -0.750715 -0.757534 -0.764376 -0.771218 -0.778035 -0.784800 -0.791482 -0.798045 -0.804449 -0.810648 -0.816594 -0.822235 -0.827515 -0.832378 -0.836766 -0.840622 -0.843889 -0.846514 -0.848445 -0.849636 -0.850042 -0.849626 -0.848355 -0.846203 -0.843150 -0.839179 -0.834284 -0.828461 -0.821715 -0.814055 -0.805496 -0.796058 -0.785765 -0.774648 -0.762739 -0.750076 -0.736697 -0.722646 -0.707967 -0.692706 -0.676911 -0.660631 -0.643915 -0.626812 -0.609371 -0.591642 -0.573671 -0.555507 -0.537196 -0.518786 -0.500329 -0.481879 -0.463497 -0.445247 -0.427201 -0.409435 -0.392032 -0.375078 -0.358661 -0.342875 -0.327809 -0.313554 -0.300200 -0.287831 -0.276527 -0.266365 -0.257410 -0.249726 -0.243363 -0.238366 -0.234770 -0.232601 -0.231875 -0.232601 -0.234778 -0.238396 -0.243438 -0.249878 -0.257685 -0.266819 -0.277235 -0.288884 -0.301711 -0.315658 -0.330661 -0.346656 -0.363577 -0.381353 -0.399917 -0.419197 -0.439123 -0.459626 -0.480636 -0.502086 -0.523909 -0.546041 -0.568419 -0.590984 -0.613677 -0.636444 -0.659231 -0.681990 -0.704674 -0.727239 -0.749645 -0.771852 -0.793827 -0.815536 -0.836950 -0.858039 -0.878772 -0.899113 -0.919026 -0.938467 -0.957387 -0.975732 -0.993442 -1.010452 -1.026695 -1.042098 -1.056591 -1.070101 -1.082558 -1.093893 -1.104041 -1.112943 -1.120545 -1.126807 -1.131696 -1.135197 -1.137306 -1.138039 -1.137426 -1.135513 -1.132361 -1.128044 -1.122650 -1.116277 -1.109029 -1.101021 -1.092369 -1.083193 -1.073616 -1.063758 -1.053738 -1.043670 -1.033665 -1.023827 -1.014253 -1.005033 -0.996249 -0.987974 -0.980274 -0.973205 -0.966814 -0.961141 -0.956216 -0.952062 -0.948694 -0.946121 -0.944344 -0.943358 -0.943152 -0.943711 -0.945015 -0.947040 -0.949756 -0.953135 -0.957141 -0.961740 -0.966895 -0.972566 -0.978716 -0.985303 -0.992289 -0.999635 -1.007299 -1.015245 -1.023435 -1.031833 -1.040402 -1.049109 -1.057922 -1.066810 -1.075744 -1.084696 -1.093639 -1.102544 -1.111379 -1.120109 -1.128693 -1.137084 -1.145229 -1.153069 -1.160539 -1.167571 -1.174090 -1.180022 -1.185290 -1.189818 -1.193533 -1.196362 -1.198238 -1.199102 -1.198905 -1.197608 -1.195189 -1.191639 -1.186965 -1.181192 -1.174358 -1.166518 -1.157740 -1.148103 -1.137697 -1.126619 -1.114976 -1.102875 -1.090430 -1.077754 -1.064960 -1.052157 -1.039454 -1.026951 -1.014747 -1.002931 -0.991586 -0.980787 -0.970602 -0.961090 -0.952301 -0.944279 -0.937057 -0.930662 -0.925112 -0.920420 -0.916591 -0.913621 -0.911505 -0.910229 -0.909776 -0.910122 -0.911243 -0.913109 -0.915688 -0.918945 -0.922843 -0.927345 -0.932411 -0.938002 -0.944076 -0.950594 -0.957515 -0.964800 -0.972409 -0.980305 -0.988450 -0.996808 -1.005344 -1.014026 -1.022823 -1.031703 -1.040638 -1.049599 -1.058555 -1.067470 -1.076306 -1.085017 -1.093554 -1.101857 -1.109865 -1.117508 -1.124715 -1.131408 -1.137511 -1.142945 -1.147635 -1.151503 -1.154479 -1.156495 -1.157491 -1.157417 -1.156235 -1.153920 -1.150463 -1.145869 -1.140162 -1.133380 -1.125576 -1.116819 -1.107188 -1.096773 -1.085675 -1.073999 -1.061856 -1.049362 -1.036632 -1.023782 -1.010924 -0.998169 -0.985622 -0.973383 -0.961544 -0.950193 -0.939405 -0.929252 -0.919794 -0.911085 -0.903168 -0.896079 -0.889846 -0.884490 -0.880021 -0.876446 -0.873762 -0.871964 -0.871036 -0.870961 -0.871717 -0.873276 -0.875607 -0.878679 -0.882453 -0.886894 -0.891960 -0.897612 -0.903808 -0.910505 -0.917662 -0.925237 -0.933188 -0.941474 -0.950056 -0.958896 -0.967954 -0.977196 -0.986587 -0.996093 -1.005684 -1.015330 -1.025000 -1.034665 -1.044291 -1.053839 -1.063268 -1.072529 -1.081566 -1.090318 -1.098720 -1.106699 -1.114181 -1.121090 -1.127347 -1.132875 -1.137598 -1.141443 -1.144339 -1.146224 -1.147038 -1.146732 -1.145260 -1.142586 -1.138684 -1.133532 -1.127120 -1.119446 -1.110513 -1.100336 -1.088934 -1.076335 -1.062573 -1.047688 -1.031724 -1.014732 -0.996766 -0.977883 -0.958145 -0.937613 -0.916353 -0.894431 -0.871913 -0.848866 -0.825357 -0.801452 -0.777217 -0.752714 -0.728007 -0.703156 -0.678225 -0.653277 -0.628376 -0.603591 -0.578993 -0.554655 -0.530654 -0.507070 -0.483983 -0.461473 -0.439620 -0.418504 -0.398203 -0.378789 -0.360334 -0.342902 -0.326552 -0.311339 -0.297308 -0.284500 -0.272947 -0.262673 -0.253697 -0.246029 -0.239670 -0.234619 -0.230863 -0.228386 -0.227164 -0.227170 -0.228369 -0.230725 -0.234195 -0.238733 -0.244291 -0.250819 -0.258263 -0.266570 -0.275683 -0.285546 -0.296103 -0.307298 -0.319074 -0.331377 -0.344152 -0.357346 -0.370907 -0.384786 -0.398934 -0.413305 -0.427855 -0.442542 -0.457326 -0.472169 -0.487036 -0.501893 -0.516711 -0.531459 -0.546111 -0.560641 -0.575024 -0.589232 -0.603236 -0.617003 -0.630497 -0.643675 -0.656494 -0.668905 -0.680854 -0.692291 -0.703158 -0.713400 -0.722962 -0.731788 -0.739828 -0.747033 -0.753360 -0.758775 -0.763253 -0.766778 -0.769347 -0.770968 -0.771660 -0.771456 -0.770398 -0.768538 -0.765937 -0.762662 -0.758787 -0.754391 -0.749555 -0.744365 -0.738903 -0.733254 -0.727499 -0.721718 -0.715987 -0.710377 -0.704955 -0.699782 -0.694914 -0.690401 -0.686287 -0.682609 -0.679399 -0.676683 -0.674481 -0.672807 -0.671671 -0.671077 -0.671025 -0.671510 -0.672524 -0.674055 -0.676088 -0.678605 -0.681585 -0.685008 -0.688848 -0.693080 -0.697679 -0.702617 -0.707866 -0.713398 -0.719187 -0.725203 -0.731421 -0.737812 -0.744350 -0.751011 -0.757771 -0.764604 -0.771490 -0.778407 -0.785335 -0.792254 -0.799144 -0.805984 -0.812749 -0.819410 -0.825936 -0.832290 -0.838430 -0.844309 -0.849880 -0.855087 -0.859876 -0.864193 -0.867980 -0.871183 -0.873748 -0.875623 -0.876763 -0.877128 -0.876686 -0.875416 -0.873308 -0.870361 -0.866590 -0.862018 -0.856681 -0.850626 -0.843909 -0.836592 -0.828745 -0.820445 -0.811771 -0.802804 -0.793630 -0.784331 -0.774990 -0.765686 -0.756498 -0.747499 -0.738756 -0.730334 -0.722290 -0.714678 -0.707542 -0.700923 -0.694855 -0.689366 -0.684477 -0.680206 -0.676562 -0.673552 -0.671176 -0.669430 -0.668307 -0.667795 -0.667879 -0.668541 -0.669760 -0.671514 -0.673777 -0.676524 -0.679727 -0.683356 -0.687384 -0.691779 -0.696514 -0.701557 -0.706879 -0.712452 -0.718247 -0.724235 -0.730392 -0.736689 -0.743104 -0.749611 -0.756189 -0.762816 -0.769470 -0.776129 -0.782769 -0.789362 -0.795877 -0.802278 -0.808524 -0.814571 -0.820370 -0.825868 -0.831008 -0.835735 -0.839992 -0.843721 -0.846866 -0.849372 -0.851191 -0.852276 -0.852591 -0.852108 -0.850809 -0.848689 -0.845753 -0.842019 -0.837515 -0.832283 -0.826370 -0.819838 -0.812750 -0.805179 -0.797201 -0.788896 -0.780346 -0.771632 -0.762837 -0.754040 -0.745321 -0.736751 -0.728401 -0.720337 -0.712617 -0.705296 -0.698422 -0.692037 -0.686177 -0.680873 -0.676149 -0.672023 -0.668509 -0.665613 -0.663339 -0.661685 -0.660645 -0.660210 -0.660364 -0.661093 -0.662377 -0.664193 -0.666519 -0.669329 -0.672595 -0.676291 -0.680387 -0.684854 -0.689663 -0.694784 -0.700189 -0.705847 -0.711732 -0.717814 -0.724068 -0.730467 -0.736986 -0.743601 -0.750290 -0.757031 -0.763802 -0.770583 -0.777349 -0.784075 -0.790732 -0.797284 -0.803695 -0.809921 -0.815915 -0.821625 -0.826998 -0.831977 -0.836504 -0.840523 -0.843978 -0.846812 -0.848974 -0.850414 -0.851088 -0.850956 -0.849983 -0.848139 -0.845403 -0.841756 -0.837187 -0.831693 -0.825274 -0.817938 -0.809697 -0.800570 -0.790579 -0.779752 -0.768121 -0.755720 -0.742590 -0.728770 -0.714306 -0.699242 -0.683626 -0.667505 -0.650930 -0.633949 -0.616612 -0.598967 -0.581063 -0.562947 -0.544666 -0.526265 -0.507793 -0.489299 -0.470837 -0.452465 -0.434248 -0.416255 -0.398563 -0.381251 -0.364406 -0.348113 -0.332465 -0.317552 -0.303461 -0.290282 -0.278097 -0.266986 -0.257024 -0.248277 -0.240805 -0.234659 -0.229883 -0.226510 -0.224567 -0.224069 -0.225023 -0.227428 -0.231274 -0.236542 -0.243208 -0.251238 -0.260593 -0.271229 -0.283094 -0.296134 -0.310290 -0.325499 -0.341697 -0.358815 -0.376786 -0.395540 -0.415006 -0.435114 -0.455794 -0.476978 -0.498597 -0.520584 -0.542877 -0.565411 -0.588127 -0.610968 -0.633878 -0.656805 -0.679700 -0.702515 -0.725208 -0.747737 -0.770064 -0.792155 -0.813978 -0.835501 -0.856696 -0.877531 -0.897972 -0.917981 -0.937515 -0.956525 -0.974956 -0.992750 -1.009841 -1.026162 -1.041641 -1.056206 -1.069787 -1.082311 -1.093711 -1.103923 -1.112888 -1.120560 -1.126900 -1.131887 -1.135512 -1.137783 -1.138722 -1.138370 -1.136781 -1.134023 -1.130176 -1.125331 -1.119589 -1.113055 -1.105841 -1.098063 -1.089837 -1.081279 -1.072503 -1.063621 -1.054739 -1.045958 -1.037375 -1.029076 -1.021142 -1.013646 -1.006653 -1.000218 -0.994389 -0.989206 -0.984700 -0.980897 -0.977812 -0.975457 -0.973833 -0.972939 -0.972766 -0.973302 -0.974529 -0.976425 -0.978965 -0.982122 -0.985864 -0.990160 -0.994974 -1.000272 -1.006016 -1.012171 -1.018699 -1.025564 -1.032727 -1.040154 -1.047810 -1.055659 -1.063669 -1.071808 -1.080046 -1.088353 -1.096702 -1.105067 -1.113421 -1.121736 -1.129980 -1.138119 -1.146110 -1.153906 -1.161454 -1.168693 -1.175559 -1.181981 -1.187886 -1.193198 -1.197841 -1.201741 -1.204822 -1.207015 -1.208252 -1.208477 -1.207639 -1.205704 -1.202649 -1.198467 -1.193168 -1.186776 -1.179333 -1.170894 -1.161527 -1.151315 -1.140349 -1.128727 -1.116555 -1.103944 -1.091007 -1.077857 -1.064609 -1.051373 -1.038256 -1.025361 -1.012785 -1.000618 -0.988943 -0.977835 -0.967361 -0.957580 -0.948542 -0.940290 -0.932856 -0.926268 -0.920544 -0.915694 -0.911722 -0.908627 -0.906400 -0.905028 -0.904492 -0.904770 -0.905834 -0.907654 -0.910199 -0.913432 -0.917316 -0.921813 -0.926883 -0.932486 -0.938579 -0.945123 -0.952077 -0.959400 -0.967053 -0.974998 -0.983196 -0.991611 -1.000209 -1.008956 -1.017820 -1.026771 -1.035779 -1.044815 -1.053848 -1.062842 -1.071758 -1.080551 -1.089170 -1.097557 -1.105649 -1.113378 -1.120670 -1.127449 -1.133638 -1.139158 -1.143933 -1.147887 -1.150949 -1.153050 -1.154134 -1.154151 -1.153064 -1.150853 -1.147510 -1.143044 -1.137483 -1.130866 -1.123249 -1.114704 -1.105311 -1.095161 -1.084354 -1.072997 -1.061200 -1.049076 -1.036741 -1.024305 -1.011882 -0.999579 -0.987496 -0.975732 -0.964377 -0.953512 -0.943212 -0.933545 -0.924568 -0.916332 -0.908878 -0.902238 -0.896440 -0.891499 -0.887428 -0.884228 -0.881898 -0.880429 -0.879806 -0.880011 -0.881020 -0.882806 -0.885338 -0.888584 -0.892507 -0.897070 -0.902234 -0.907958 -0.914202 -0.920925 -0.928086 -0.935643 -0.943556 -0.951785 -0.960292 -0.969039 -0.977990 -0.987109 -0.996364 -1.005722 -1.015153 -1.024628 -1.034118 -1.043590 -1.053011 -1.062341 -1.071535 -1.080542 -1.089305 -1.097760 -1.105840 -1.113472 -1.120578 -1.127084 -1.132910 -1.137980 -1.142218 -1.145553 -1.147917 -1.149249 -1.149493 -1.148600 -1.146530 -1.143250 -1.138735 -1.132968 -1.125943 -1.117659 -1.108124 -1.097355 -1.085375 -1.072213 -1.057906 -1.042495 -1.026029 -1.008559 -0.990139 -0.970829 -0.950691 -0.929788 -0.908185 -0.885949 -0.863146 -0.839843 -0.816107 -0.792004 -0.767597 -0.742951 -0.718126 -0.693182 -0.668179 -0.643173 -0.618220 -0.593373 -0.568687 -0.544212 -0.519998 -0.496094 -0.472545 -0.449395 -0.426686 -0.404457 -0.382742 -0.361576 -0.340989 -0.321008 -0.301657 -0.282958 -0.264927 -0.247580 -0.230927 -0.214977 -0.199734 -0.185203 -0.171381 -0.158266 -0.145853 -0.134134 -0.123100 -0.112738 -0.103036 -0.093979 -0.085551 -0.077734 -0.070510 -0.063860 -0.057764 -0.052203 -0.047155 -0.042599 -0.038515 -0.034882 -0.031679 -0.028885 -0.026479 -0.024443 -0.022756 -0.021399 -0.020354 -0.019603 -0.019128 -0.018912 -0.018940 -0.019196 -0.019664 -0.020332 -0.021185 -0.022211 -0.023397 -0.024731 -0.026201 -0.027795 -0.029499 -0.031299 -0.033182 -0.035131 -0.037131 -0.039164 -0.041213 -0.043260 -0.045287 -0.047278 -0.049214 -0.051080 -0.052860 -0.054538 -0.056101 -0.057539 -0.058842 -0.060005 -0.061025 -0.061901 -0.062635 -0.063233 -0.063703 -0.064055 -0.064301 -0.064454 -0.064527 -0.064539 -0.064504 -0.064439 -0.064363 -0.064291 -0.064239 -0.064224 -0.064261 -0.064362 -0.064541 -0.064809 -0.065176 -0.065651 -0.066242 -0.066954 -0.067793 -0.068761 -0.069861 -0.071094 -0.072460 -0.073957 -0.075584 -0.077336 -0.079211 -0.081203 -0.083307 -0.085518 -0.087828 -0.090232 -0.092723 -0.095293 -0.097934 -0.100640 -0.103402 -0.106215 -0.109069 -0.111957 -0.114874 -0.117811 -0.120761 -0.123720 -0.126679 -0.129634 -0.132579 -0.135508 -0.138417 -0.141300 -0.144152 -0.146969 -0.149743 -0.152467 -0.155134 -0.157734 -0.160257 -0.162691 -0.165026 -0.167246 -0.169341 -0.171298 -0.173103 -0.174744 -0.176208 -0.177485 -0.178565 -0.179438 -0.180101 -0.180547 -0.180778 -0.180794 -0.180601 -0.180205 -0.179616 -0.178848 -0.177914 -0.176830 -0.175613 -0.174280 -0.172853 -0.171349 -0.169788 -0.168191 -0.166577 -0.164963 -0.163368 -0.161809 -0.160301 -0.158859 -0.157495 -0.156222 -0.155050 -0.153987 -0.153041 -0.152218 -0.151523 -0.150960 -0.150530 -0.150234 -0.150073 -0.150046 -0.150150 -0.150383 -0.150741 -0.151220 -0.151815 -0.152522 -0.153333 -0.154245 -0.155249 -0.156340 -0.157512 -0.158757 -0.160069 -0.161442 -0.162869 -0.164343 -0.165858 -0.167409 -0.168989 -0.170593 -0.172215 -0.173851 -0.175495 -0.177142 -0.178788 -0.180427 -0.182054 -0.183662 -0.185243 -0.186788 -0.188287 -0.189729 -0.191103 -0.192396 -0.193594 -0.194684 -0.195654 -0.196490 -0.197180 -0.197712 -0.198074 -0.198257 -0.198254 -0.198059 -0.197671 -0.197087 -0.196313 -0.195353 -0.194215 -0.192910 -0.191451 -0.189854 -0.188133 -0.186307 -0.184393 -0.182411 -0.180380 -0.178319 -0.176248 -0.174186 -0.172149 -0.170156 -0.168221 -0.166361 -0.164588 -0.162914 -0.161350 -0.159906 -0.158589 -0.157405 -0.156361 -0.155458 -0.154701 -0.154091 -0.153626 -0.153307 -0.153132 -0.153098 -0.153201 -0.153438 -0.153803 -0.154291 -0.154896 -0.155612 -0.156433 -0.157352 -0.158362 -0.159456 -0.160628 -0.161870 -0.163176 -0.164538 -0.165951 -0.167407 -0.168901 -0.170426 -0.171977 -0.173549 -0.175135 -0.176731 -0.178332 -0.179932 -0.181527 -0.183109 -0.184672 -0.186207 -0.187705 -0.189155 -0.190545 -0.191864 -0.193099 -0.194235 -0.195260 -0.196160 -0.196924 -0.197537 -0.197988 -0.198267 -0.198362 -0.198266 -0.197970 -0.197468 -0.196756 -0.195830 -0.194688 -0.193330 -0.191756 -0.189968 -0.187971 -0.185769 -0.183368 -0.180774 -0.177995 -0.175040 -0.171918 -0.168639 -0.165214 -0.161653 -0.157967 -0.154168 -0.150267 -0.146276 -0.142206 -0.138068 -0.133875 -0.129636 -0.125364 -0.121071 -0.116775 -0.112494 -0.108253 -0.104081 -0.100013 -0.096089 -0.092355 -0.088858 -0.085652 -0.082790 -0.080330 -0.078328 -0.076840 -0.075920 -0.075621 -0.075991 -0.077075 -0.078913 -0.081540 -0.084985 -0.089270 -0.094414 -0.100428 -0.107317 -0.115080 -0.123710 -0.133196 -0.143519 -0.154658 -0.166586 -0.179272 -0.192682 -0.206779 -0.221521 -0.236866 -0.252769 -0.269185 -0.286066 -0.303365 -0.321033 -0.339022 -0.357285 -0.375774 -0.394444 -0.413248 -0.432144 -0.451089 -0.470042 -0.488965 -0.507820 -0.526572 -0.545189 -0.563639 -0.581893 -0.599925 -0.617710 -0.635226 -0.652451 -0.669366 -0.685952 -0.702190 -0.718056 -0.733526 -0.748570 -0.763155 -0.777243 -0.790793 -0.803759 -0.816095 -0.827749 -0.838671 -0.848810 -0.858116 -0.866540 -0.874037 -0.880566 -0.886094 -0.890593 -0.894048 -0.896454 -0.897817 -0.898154 -0.897496 -0.895883 -0.893367 -0.890007 -0.885872 -0.881038 -0.875584 -0.869594 -0.863157 -0.856358 -0.849287 -0.842030 -0.834671 -0.827292 -0.819969 -0.812775 -0.805778 -0.799038 -0.792613 -0.786551 -0.780897 -0.775687 -0.770953 -0.766721 -0.763009 -0.759832 -0.757198 -0.755112 -0.753572 -0.752574 -0.752110 -0.752167 -0.752730 -0.753782 -0.755301 -0.757267 -0.759655 -0.762441 -0.765599 -0.769102 -0.772923 -0.777034 -0.781409 -0.786020 -0.790841 -0.795845 -0.801008 -0.806305 -0.811711 -0.817205 -0.822764 -0.828369 -0.833999 -0.839635 -0.845256 -0.850841 -0.856363 -0.861793 -0.867097 -0.872235 -0.877164 -0.881838 -0.886205 -0.890211 -0.893800 -0.896918 -0.899506 -0.901511 -0.902879 -0.903561 -0.903513 -0.902699 -0.901089 -0.898668 -0.895428 -0.891375 -0.886526 -0.880910 -0.874567 -0.867546 -0.859905 -0.851712 -0.843038 -0.833960 -0.824559 -0.814918 -0.805120 -0.795247 -0.785382 -0.775602 -0.765984 -0.756598 -0.747510 -0.738782 -0.730469 -0.722621 -0.715280 -0.708484 -0.702264 -0.696645 -0.691647 -0.687283 -0.683562 -0.680487 -0.678056 -0.676264 -0.675100 -0.674553 -0.674605 -0.675236 -0.676425 -0.678148 -0.680380 -0.683092 -0.686257 -0.689845 -0.693827 -0.698173 -0.702853 -0.707836 -0.713094 -0.718598 -0.724318 -0.730228 -0.736300 -0.742510 -0.748832 -0.755243 -0.761721 -0.768244 -0.774790 -0.781337 -0.787858 -0.794324 -0.800702 -0.806954 -0.813038 -0.818907 -0.824510 -0.829794 -0.834703 -0.839178 -0.843163 -0.846600 -0.849434 -0.851611 -0.853082 -0.853803 -0.853740 -0.852864 -0.851160 -0.848622 -0.845259 -0.841087 -0.836139 -0.830455 -0.824087 -0.817094 -0.809545 -0.801512 -0.793075 -0.784315 -0.775315 -0.766160 -0.756934 -0.747718 -0.738592 -0.729630 -0.720906 -0.712483 -0.704425 -0.696786 -0.689614 -0.682954 -0.676841 -0.671307 -0.666376 -0.662067 -0.658392 -0.655360 -0.652973 -0.651229 -0.650121 -0.649639 -0.649770 -0.650495 -0.651794 -0.653646 -0.656024 -0.658904 -0.662257 -0.666055 -0.670267 -0.674864 -0.679815 -0.685089 -0.690657 -0.696489 -0.702555 -0.708826 -0.715275 -0.721876 -0.728601 -0.735427 -0.742330 -0.749287 -0.756277 -0.763278 -0.770268 -0.777219 -0.784104 -0.790889 -0.797536 -0.804004 -0.810244 -0.816208 -0.821842 -0.827088 -0.831892 -0.836193 -0.839937 -0.843067 -0.845530 -0.847277 -0.848262 -0.848444 -0.847787 -0.846260 -0.843841 -0.840509 -0.836255 -0.831070 -0.824957 -0.817920 -0.809972 -0.801130 -0.791415 -0.780856 -0.769481 -0.757328 -0.744432 -0.730836 -0.716583 -0.701718 -0.686289 -0.670343 -0.653929 -0.637097 -0.619896 -0.602375 -0.584583 -0.566567 -0.548374 -0.530050 -0.511642 -0.493200 -0.474776 -0.456429 -0.438221 -0.420221 -0.402503 -0.385148 -0.368239 -0.351865 -0.336115 -0.321079 -0.306846 -0.293506 -0.281142 -0.269835 -0.259661 -0.250687 -0.242976 -0.236579 -0.231543 -0.227903 -0.225686 -0.224911 -0.225586 -0.227712 -0.231279 -0.236273 -0.242668 -0.250434 -0.259532 -0.269919 -0.281545 -0.294356 -0.308293 -0.323297 -0.339300 -0.356238 -0.374041 -0.392640 -0.411965 -0.431945 -0.452510 -0.473592 -0.495122 -0.517033 -0.539262 -0.561744 -0.584419 -0.607230 -0.630121 -0.653038 -0.675932 -0.698756 -0.721465 -0.744018 -0.766377 -0.788505 -0.810372 -0.831945 -0.853195 -0.874092 -0.894601 -0.914687 -0.934307 -0.953412 -0.971951 -0.989864 -1.007088 -1.023555 -1.039194 -1.053935 -1.067705 -1.080434 -1.092051 -1.102492 -1.111697 -1.119614 -1.126202 -1.131432 -1.135290 -1.137778 -1.138913 -1.138728 -1.137271 -1.134606 -1.130811 -1.125971 -1.120185 -1.113557 -1.106200 -1.098228 -1.089760 -1.080914 -1.071806 -1.062552 -1.053261 -1.044039 -1.034986 -1.026194 -1.017749 -1.009727 -1.002198 -0.995223 -0.988853 -0.983133 -0.978099 -0.973778 -0.970191 -0.967350 -0.965262 -0.963927 -0.963339 -0.963487 -0.964353 -0.965919 -0.968159 -0.971047 -0.974553 -0.978642 -0.983282 -0.988437 -0.994069 -1.000140 -1.006614 -1.013452 -1.020617 -1.028070 -1.035776 -1.043699 -1.051805 -1.060060 -1.068433 -1.076893 -1.085411 -1.093960 -1.102513 -1.111043 -1.119520 -1.127911 -1.136178 -1.144277 -1.152157 -1.159763 -1.167032 -1.173897 -1.180286 -1.186124 -1.191336 -1.195847 -1.199579 -1.202462 -1.204425 -1.205406 -1.205351 -1.204217 -1.201976 -1.198611 -1.194126 -1.188536 -1.181875 -1.174190 -1.165546 -1.156016 -1.145686 -1.134650 -1.123012 -1.110879 -1.098363 -1.085575 -1.072630 -1.059638 -1.046709 -1.033945 -1.021448 -1.009308 -0.997611 -0.986438 -0.975856 -0.965930 -0.956712 -0.948250 -0.940579 -0.933730 -0.927724 -0.922577 -0.918294 -0.914878 -0.912322 -0.910617 -0.909745 -0.909687 -0.910417 -0.911909 -0.914130 -0.917046 -0.920623 -0.924822 -0.929604 -0.934930 -0.940759 -0.947051 -0.953766 -0.960863 -0.968303 -0.976047 -0.984058 -0.992299 -1.000735 -1.009333 -1.018059 -1.026884 -1.035777 -1.044711 -1.053654 -1.062573 -1.071432 -1.080187 -1.088789 -1.097185 -1.105312 -1.113105 -1.120492 -1.127398 -1.133747 -1.139460 -1.144459 -1.148669 -1.152016 -1.154431 -1.155852 -1.156225 -1.155509 -1.153677 -1.150715 -1.146628 -1.141432 -1.135165 -1.127876 -1.119630 -1.110504 -1.100585 -1.089970 -1.078762 -1.067071 -1.055010 -1.042692 -1.030231 -1.017739 -1.005326 -0.993095 -0.981146 -0.969571 -0.958456 -0.947879 -0.937909 -0.928609 -0.920032 -0.912222 -0.905216 -0.899043 -0.893723 -0.889269 -0.885688 -0.882979 -0.881137 -0.880148 -0.879996 -0.880659 -0.882112 -0.884324 -0.887264 -0.890898 -0.895187 -0.900094 -0.905578 -0.911600 -0.918117 -0.925090 -0.932476 -0.940236 -0.948328 -0.956714 -0.965356 -0.974216 -0.983260 -0.992453 -1.001763 -1.011159 -1.020611 -1.030089 -1.039565 -1.049004 -1.058368 -1.067617 -1.076699 -1.085562 -1.094144 -1.102379 -1.110195 -1.117518 -1.124271 -1.130376 -1.135756 -1.140334 -1.144038 -1.146798 -1.148550 -1.149236 -1.148804 -1.147210 -1.144419 -1.140402 -1.135139 -1.128620 -1.120841 -1.111808 -1.101533 -1.090036 -1.077346 -1.063496 -1.048525 -1.032479 -1.015407 -0.997364 -0.978407 -0.958597 -0.937996 -0.916669 -0.894682 -0.872103 -0.848996 -0.825430 -0.801470 -0.777181 -0.752628 -0.727871 -0.702973 -0.677991 -0.652984 -0.628007 -0.603116 -0.578364 -0.553803 -0.529483 -0.505453 -0.481761 -0.458451 -0.435565 -0.413143 -0.391222 -0.369837 -0.349019 -0.328796 -0.309195 -0.290236 -0.271940 -0.254321 -0.237393 -0.221164 -0.205642 -0.190829 -0.176726 -0.163333 -0.150643 -0.138650 -0.127346 -0.116720 -0.106759 -0.097448 -0.088773 -0.080716 -0.073260 -0.066385 -0.060072 -0.054302 -0.049053 -0.044305 -0.040038 -0.036229 -0.032858 -0.029905 -0.027348 -0.025168 -0.023346 -0.021861 -0.020695 -0.019830 -0.019248 -0.018932 -0.018866 -0.019033 -0.019420 -0.020011 -0.020793 -0.021752 -0.022877 -0.024154 -0.025573 -0.027119 -0.028782 -0.030546 -0.032399 -0.034324 -0.036306 -0.038329 -0.040375 -0.042425 -0.044463 -0.046471 -0.048432 -0.050329 -0.052146 -0.053866 -0.055478 -0.056967 -0.058326 -0.059546 -0.060624 -0.061557 -0.062348 -0.063001 -0.063521 -0.063919 -0.064207 -0.064395 -0.064499 -0.064533 -0.064515 -0.064461 -0.064388 -0.064312 -0.064251 -0.064220 -0.064234 -0.064308 -0.064455 -0.064686 -0.065013 -0.065444 -0.065988 -0.066651 -0.067439 -0.068355 -0.069402 -0.070582 -0.071895 -0.073340 -0.074915 -0.076618 -0.078444 -0.080390 -0.082450 -0.084619 -0.086891 -0.089258 -0.091715 -0.094254 -0.096868 -0.099549 -0.102290 -0.105083 -0.107921 -0.110797 -0.113703 -0.116633 -0.119579 -0.122535 -0.125495 -0.128452 -0.131402 -0.134338 -0.137255 -0.140149 -0.143015 -0.145846 -0.148638 -0.151383 -0.154074 -0.156702 -0.159257 -0.161728 -0.164104 -0.166373 -0.168519 -0.170533 -0.172400 -0.174108 -0.175644 -0.176997 -0.178157 -0.179113 -0.179860 -0.180391 -0.180706 -0.180803 -0.180688 -0.180365 -0.179843 -0.179133 -0.178250 -0.177209 -0.176024 -0.174715 -0.173300 -0.171799 -0.170231 -0.168617 -0.166976 -0.165327 -0.163688 -0.162078 -0.160512 -0.159005 -0.157572 -0.156225 -0.154975 -0.153831 -0.152803 -0.151896 -0.151117 -0.150469 -0.149956 -0.149579 -0.149338 -0.149233 -0.149262 -0.149424 -0.149714 -0.150129 -0.150665 -0.151316 -0.152076 -0.152941 -0.153904 -0.154958 -0.156097 -0.157314 -0.158603 -0.159956 -0.161368 -0.162831 -0.164339 -0.165887 -0.167468 -0.169075 -0.170705 -0.172350 -0.174007 -0.175670 -0.177334 -0.178995 -0.180647 -0.182283 -0.183897 -0.185481 -0.187024 -0.188517 -0.189949 -0.191306 -0.192577 -0.193747 -0.194804 -0.195736 -0.196528 -0.197169 -0.197646 -0.197950 -0.198071 -0.198003 -0.197742 -0.197286 -0.196636 -0.195797 -0.194774 -0.193577 -0.192218 -0.190712 -0.189072 -0.187315 -0.185459 -0.183524 -0.181527 -0.179489 -0.177429 -0.175366 -0.173318 -0.171303 -0.169338 -0.167437 -0.165616 -0.163886 -0.162261 -0.160749 -0.159359 -0.158099 -0.156975 -0.155992 -0.155152 -0.154457 -0.153908 -0.153506 -0.153248 -0.153133 -0.153158 -0.153318 -0.153609 -0.154027 -0.154565 -0.155217 -0.155979 -0.156842 -0.157800 -0.158846 -0.159974 -0.161177 -0.162447 -0.163777 -0.165162 -0.166594 -0.168067 -0.169575 -0.171112 -0.172672 -0.174251 -0.175842 -0.177441 -0.179043 -0.180642 -0.182233 -0.183809 -0.185362 -0.186883 -0.188363 -0.189790 -0.191153 -0.192440 -0.193636 -0.194729 -0.195705 -0.196552 -0.197256 -0.197805 -0.198188 -0.198394 -0.198413 -0.198237 -0.197859 -0.197272 -0.196474 -0.195461 -0.194232 -0.192786 -0.191126 -0.189253 -0.187172 -0.184889 -0.182408 -0.179738 -0.176887 -0.173863 -0.170676 -0.167337 -0.163855 -0.160241 