0.000000 0.000000 0.000000 0.000000 0.000000 0.000000 0.000000 0.000000 0.000000 1.508631 2.109230 1.985903 1.324630 0.790533 1.329147 4.114669 3.478172 3.022012 0.603531 0.906246 0.329656 1.983874 1.666853 2.025446 1.227584 1.285129 2.913778 2.943500 3.811862 3.006309 3.467246 3.421249 4.684580 4.083160 4.949687 3.903532 3.561698 4.621701 4.332400 3.190701 3.110648 2.971028 2.890142 2.373464 2.531107 0.771006 1.724317 1.099084 0.606118 1.135572 0.939703 0.239585 1.620920 0.932444 0.497144 -0.607209 -0.651936 -0.075690 -0.144651 -1.210889 -2.244329 -2.786763 -2.901433 -1.448336 -0.697781 -0.492611 -0.943107 -2.352934 -2.311053 -1.360514 -0.410058 -0.194716 1.500592 -0.801021 -3.138235 -2.716941 -1.962065 -0.752403 -0.932678 -0.585854 -2.491009 -3.825836 -4.080320 -2.077934 -2.356604 -2.368704 -3.715425 -3.816925 -4.935206 -4.829673 -6.300517 -5.797625 -4.982688 -5.661746 -5.336559 -4.887964 -5.496855 -5.716362 -7.303640 -5.801404 -5.772921 -4.860115 -5.033788 -5.730794 -4.743384 -5.573972 -5.375506 -6.004409 -5.578435 -6.843598 -6.203944 -4.928225 -4.909379 -5.681953 -6.051459 -6.289066 -7.312058 -7.911387 -7.101081 -5.602526 -4.816546 -6.300398 -6.391456 -6.420772 -6.463246 -8.731029 -6.680852 -5.316069 -4.029360 -5.074928 -5.237710 -6.406206 -4.640436 -4.996875 -4.395331 -3.521420 -2.921695 -3.534128 -5.637237 -3.072881 -1.178771 -0.935073 -1.796895 -1.825596 -2.471452 -1.989093 -1.237445 -0.376969 0.045466 0.707008 -0.570039 -0.487754 -0.256983 0.515346 0.222356 0.751868 1.489317 1.659371 0.351261 -0.540352 0.074893 1.160975 1.890777 1.263201 1.660059 0.842400 1.985869 0.401772 -0.496114 -1.044826 0.984335 0.964547 2.628278 1.329756 0.264353 0.227019 0.812049 -0.330692 -0.302679 0.379384 0.466175 1.042146 0.138481 0.304701 0.306939 -0.492538 0.020918 0.114862 0.473951 0.723921 0.697739 -0.105376 -0.269239 1.013395 2.781721 1.136080 1.567658 1.346322 0.408247 0.096351 0.728231 2.089507 1.024556 2.144135 2.202736 1.853154 0.022273 0.138234 1.135619 2.020440 2.612005 2.853427 1.106616 0.532634 1.365862 1.555407 0.740098 0.707747 1.889751 1.203759 0.505208 1.014088 1.065754 0.913314 -0.114017 0.674927 0.259416 1.529620 1.446206 0.843624 0.237199 -0.352078 -0.235835 -0.876238 0.091316 1.584857 1.639449 0.655363 -1.288043 -0.890035 -1.256868 -0.574448 -0.653413 0.652332 0.483101 0.195465 -0.542636 -0.423401 -0.981315 -0.972795 -0.586251 1.158882 1.024642 1.390139 1.203958 -0.182016 -0.704506 0.543668 1.434710 2.257434 2.649317 2.129953 0.665947 0.517501 1.715886 2.375193 3.180515 3.579051 3.423314 1.747860 2.567263 2.076050 3.996267 4.132987 4.460194 3.253746 3.107712 2.731466 2.500592 3.064643 1.985775 1.795232 1.764684 2.785030 1.346731 2.125101 1.613534 1.500518 0.174158 0.497710 1.094752 1.628109 1.619879 2.094131 2.019486 0.630107 0.285352 0.613396 0.608790 -0.439978 0.194855 1.023864 0.775790 0.706534 1.105579 -0.081020 0.112551 -0.252988 -0.366316 -0.271767 1.153072 1.708183 0.255843 0.191231 -0.647758 -0.797878 -0.447666 -0.288342 -1.326255 0.356656 1.066125 0.775692 -0.033253 0.035313 -0.130512 -0.862554 -1.561237 0.436075 0.434220 0.961800 -0.571866 0.173735 -0.288321 -0.131844 -0.490705 -0.820380 -1.335547 -0.756178 -0.239886 1.416641 1.156862 -0.529756 -0.902573 -0.238642 -0.694290 -1.493409 -0.501113 0.671836 1.060769 0.335881 0.122303 -0.073839 -0.495167 -1.056764 -0.917371 0.372336 -0.249946 -0.469347 0.390330 -0.301211 -1.273210 -1.575530 0.028003 -0.288990 -0.955756 -1.116924 0.012267 0.424122 0.089115 0.534686 0.578869 0.084893 -1.035925 -1.096658 -0.689399 1.304741 0.508100 0.530884 -0.709645 -0.126470 -0.404896 0.187035 -0.069891 0.644889 0.567226 0.979517 0.615669 0.997109 1.692946 0.756407 0.555584 -0.048359 1.257053 1.113670 1.695375 2.506437 1.951844 0.709624 1.293908 1.317997 1.403762 1.915077 2.898253 3.081356 2.202269 1.926185 1.901341 3.048688 1.804525 1.544701 2.277026 2.659395 2.716361 4.094080 4.131038 4.080290 3.461965 3.601760 1.980641 3.492063 4.945047 5.897796 4.598878 4.428850 4.135428 3.285642 3.213004 3.882066 4.113004 4.989439 4.297069 4.527475 3.914858 3.945768 3.066707 2.361882 3.061952 4.365998 4.135111 3.642557 3.560704 3.119653 2.324082 1.763506 3.135280 4.027005 3.805702 3.639408 3.855126 3.419038 2.183331 1.268709 2.298561 4.074726 3.695319 3.669690 2.823961 3.001672 0.925821 1.701762 2.442495 3.307574 3.304750 3.444443 2.619846 1.880381 1.525043 1.643280 1.668252 1.544658 2.517479 2.433535 2.110571 1.915718 2.200567 1.161416 1.647857 1.414577 2.195312 2.564712 3.533976 2.044679 1.619397 1.452614 2.196931 1.315428 2.250206 2.630554 2.510931 1.603439 1.009780 1.617155 1.455503 1.101794 1.662967 2.541987 3.732877 3.204424 3.363903 1.503529 1.277932 2.652221 3.682546 4.627366 4.522733 3.525172 2.580647 3.046190 3.410616 3.476981 3.847629 3.768805 5.042702 5.878773 6.077096 4.152185 5.033416 5.073942 4.536704 4.662037 6.317455 6.649338 5.291866 5.474682 5.022190 3.928520 4.063757 5.146498 6.471312 6.687940 5.699019 6.365514 7.185200 6.514805 5.795921 6.232429 6.269601 6.859541 7.380560 6.520413 5.415576 5.915279 4.755833 4.736479 6.311584 7.030056 5.079442 4.458371 5.879112 5.285161 4.707740 6.255348 6.142678 4.776244 4.506075 5.773705 6.039628 5.129473 5.304651 5.386316 4.334046 4.676411 6.221664 7.362883 5.758762 5.922265 5.636885 5.547669 6.002176 6.670503 6.364324 7.109647 7.082858 7.151670 6.580625 5.759804 5.511747 3.868343 4.950454 5.351351 5.794770 4.930705 5.545372 5.793792 4.364951 3.482196 3.908975 4.449715 5.181711 6.331210 6.115992 5.845720 4.361273 4.018431 5.018787 6.249941 6.227722 6.028787 5.609106 5.630724 5.786420 4.705857 5.780142 5.498934 7.428912 6.331374 6.515727 5.082952 4.742535 4.210917 4.811555 5.668334 5.869727 5.878617 4.484601 3.691330 4.627634 5.618737 6.673826 5.543035 5.106830 5.250499 5.511652 5.217439 6.288809 6.849523 6.259086 4.596164 4.936957 5.159012 5.273616 3.860930 4.229900 4.813457 4.279450 4.598551 4.189729 4.232357 2.028797 3.051616 3.988694 4.866467 4.712020 4.042698 3.197889 3.435503 2.445524 2.425368 2.329697 3.067515 1.731753 2.073749 1.863186 1.128274 0.127783 -0.179181 0.723282 0.569843 -0.755604 -0.466569 0.306220 0.543610 0.850429 0.457639 -0.867294 -0.788501 -0.610338 -0.092649 0.837759 1.490544 0.783331 -0.769406 -0.593404 0.393241 0.412852 -0.510813 -0.496448 -1.697227 -1.464852 -1.725052 0.798537 1.091896 0.510135 -0.776518 -0.736113 -0.364630 -0.117421 1.619656 1.930061 1.068531 -0.461535 0.824083 -0.036437 -0.455588 0.517373 0.986680 0.326603 -0.284669 0.476515 1.027853 0.825279 0.011146 0.193461 0.351841 1.557455 0.856486 1.192560 1.188063 1.853477 0.846510 -0.150401 -1.186479 0.787600 3.142649 2.134828 1.602391 1.968893 1.289114 -0.437541 0.467265 1.345463 0.748631 -0.132492 1.158728 2.021931 1.024060 -0.207575 0.914259 0.915720 1.194033 0.514875 0.904553 0.508569 2.562577 2.446603 2.508346 2.607494 2.110508 0.337075 -0.119601 1.635758 3.500773 3.829670 4.000998 3.566420 2.903754 2.106320 3.223748 2.967807 2.459859 3.818479 3.762425 3.698847 3.194933 3.360546 3.075309 2.401464 2.376456 1.354137 1.890575 3.451577 3.663040 3.193935 3.069977 2.578125 2.246740 2.502390 2.447082 4.947234 5.875355 4.102422 3.278367 3.160821 2.661609 2.961612 2.937780 4.221636 4.509987 4.126128 2.750948 4.010359 2.618247 1.588511 1.691181 3.814891 4.013916 2.940131 2.253673 2.683816 2.596658 1.739518 1.944671 2.224250 3.368714 2.207173 3.122355 2.305586 3.404867 2.528357 2.542802 1.773852 2.614166 2.729282 3.805114 2.636175 2.154021 1.855112 1.370617 0.289178 0.987933 2.610988 2.249815 0.762657 0.415929 0.534259 -0.416340 0.723892 0.377606 0.645653 0.239070 3.110803 1.010552 0.396120 1.268146 0.410445 -0.200333 0.950525 0.433273 -0.248942 1.192653 1.007496 0.332499 -1.246450 -1.826520 -1.831112 -0.725875 -0.346044 -0.405108 -0.092626 -0.108581 -0.412106 -0.307293 -0.362190 0.254568 0.650022 -0.977942 -0.493897 -0.546102 1.316302 0.663281 0.923553 0.259281 0.065103 -1.220114 -1.516970 -0.252182 2.404807 2.921209 2.510616 0.394293 0.483613 1.348112 1.171174 2.825329 4.041089 2.806969 1.388623 1.633604 1.926468 1.862042 1.263334 0.571093 1.304178 2.820954 2.629734 2.041249 1.384824 3.333243 1.267044 0.889539 0.122154 2.276268 2.360993 2.283978 2.067327 2.487206 2.662133 1.469781 1.470220 2.330965 3.132941 4.137621 4.793620 4.931438 4.675250 4.180457 3.464967 3.670215 3.989138 3.582292 4.505705 6.783124 3.995353 3.705362 4.467736 5.761260 5.627740 5.170926 4.327511 4.110182 6.039623 6.288084 5.629079 5.586782 6.961394 6.054955 5.107913 5.141105 5.664846 6.852269 7.941063 7.050512 7.761987 7.432078 6.838009 4.128126 5.645545 6.882755 7.438243 7.992326 8.015646 8.160220 5.679865 5.418910 6.953528 7.637459 5.687274 5.188085 7.303599 7.127596 7.161871 4.982356 3.424206 2.875906 4.282895 7.492499 8.397313 6.025923 5.327178 4.072456 3.311357 3.112762 3.954135 3.279541 3.979384 3.030313 2.817578 3.373190 4.113649 3.317485 2.923317 1.683276 2.352566 3.812144 4.047015 2.958001 3.852136 3.637968 4.970175 3.469724 2.361634 2.209628 2.831118 3.582604 3.657391 4.415588 4.443223 3.563428 2.349374 1.745092 2.430686 3.537610 3.871676 3.658707 4.195337 2.851199 3.058914 2.447737 2.176845 3.032060 3.101146 3.563100 2.642343 2.589280 2.248490 2.507048 2.331746 3.334355 4.207186 4.609012 3.718032 5.716034 6.708891 7.261384 8.414803 6.790472 5.993450 4.971752 4.178281 3.346239 3.391202 3.910950 3.723583 2.296997 1.576690 1.378332 2.726675 1.031320 1.137569 0.961361 2.424775 1.230538 2.070708 3.465080 3.122218 2.119516 -0.803210 -0.659199 -0.094369 0.879798 2.370238 1.039861 -0.117897 0.604433 1.696923 0.221127 1.249837 1.111593 2.278530 0.217032 2.478056 1.532060 1.656812 0.572322 0.093879 -0.229817 -0.672432 -1.593241 -0.759654 0.416647 -0.052876 -1.514537 -0.559417 -1.902770 -2.581542 -3.184525 -3.737142 -3.361480 -2.334210 -1.894890 -2.383976 -3.360059 -2.900005 -3.267272 -2.561400 -5.221680 -5.220980 -7.129589 -6.953137 -6.630299 -5.640389 -6.257947 -5.978697 -6.692143 -7.513840 -9.445558 -9.684564 -9.632323 -9.462484 -9.187386 -7.651439 -8.794930 -9.585238 -9.399845 -9.857633 -10.462115 -12.678274 -11.022544 -10.610929 -10.154564 -10.446756 -11.265073 -11.553452 -12.139602 -12.746870 -13.207869 -13.005458 -12.460466 -12.290274 -12.500601 -13.432271 -14.509774 -14.267849 -13.106663 -13.361169 -11.643081 -11.644836 -11.587031 -12.162735 -11.582777 -10.760006 -10.136801 -8.614245 -8.562471 -8.657989 -9.596293 -9.426360 -8.758269 -7.375528 -7.040459 -7.043029 -5.833615 -5.032044 -4.090010 -4.458766 -4.250242 -3.501885 -4.107527 -3.901509 -3.636834 -3.233133 -2.160489 -1.514690 0.013000 -0.175573 1.194199 0.518936 1.261623 1.443175 2.290527 1.484149 2.747827 3.328730 2.330329 1.855839 2.995947 4.446639 5.287087 4.933804 4.122078 4.427521 5.706480 3.750752 3.678661 4.094694 2.782427 1.607001 0.281183 0.662333 0.971387 -0.238296 -1.192252 -0.956123 -1.954326 -0.714254 0.518712 0.102340 -1.688311 -2.191846 0.991082 -1.553065 -0.220144 -1.887055 -3.952621 -6.468352 -3.467605 -2.559802 -4.558598 -7.191823 -6.481145 -6.350674 -6.589094 -6.777373 -7.265701 -6.503409 -6.044603 -5.826512 -6.028455 -5.840021 -7.031661 -7.669917 -8.432952 -7.746993 -7.772729 -7.177239 -6.485739 -7.538702 -8.433928 -7.825343 -5.707502 -4.216339 -4.572022 -6.176685 -5.354677 -4.406178 -2.560553 -4.091304 -3.459356 -3.628106 -3.471220 -2.527756 -1.495931 -2.607018 -3.622770 -2.228123 -1.000097 0.198015 -0.641641 -0.201057 0.602091 1.458814 2.207855 1.415942 1.080634 3.029643 3.773892 3.585243 2.576621 2.708840 2.733811 3.374793 4.494328 4.322436 4.437294 4.055012 2.717566 2.530080 1.780013 3.256350 3.826375 4.010741 4.096900 3.775802 3.604341 2.925209 2.309721 2.763726 3.757735 4.776296 4.176196 2.388179 1.594334 1.034294 1.549708 4.320977 3.228656 1.616253 1.432783 0.542850 0.595210 -0.210296 1.750032 0.710346 0.101645 -0.486696 -0.867339 -0.773393 -2.440230 -2.016596 -1.093665 -0.502481 0.264419 -0.378860 -0.886821 -2.511081 -2.678059 -3.275860 -2.735155 -3.271279 -3.163940 -2.797976 -3.830183 -3.599012 -4.324519 -4.003610 -4.012662 -3.601896 -3.075101 -2.773698 -2.725518 -2.788931 -3.328349 -3.520934 -2.837950 -2.297114 -2.289963 -2.410547 -1.146852 -2.425042 -2.074984 -2.708767 -2.900107 -3.272311 -2.980913 -2.472274 -0.415868 -2.026148 -2.214648 -1.267672 -1.498169 -1.699048 -0.425675 -0.272908 1.016327 0.156147 -1.082408 -0.605011 0.525165 -0.592856 -0.126618 1.270973 1.572563 1.155418 1.418084 1.588364 0.920613 0.252503 2.714344 3.499465 2.708114 3.195146 3.438851 2.551854 2.752572 3.698524 3.862778 3.619761 4.421503 3.441469 2.681901 2.615460 2.268716 1.809820 3.573855 3.922868 3.969929 3.253130 3.828653 2.753953 3.751206 2.820440 2.866053 4.014859 4.253270 4.365814 4.949287 4.257718 4.607403 4.125932 4.184224 2.733520 3.661086 3.570555 3.758697 3.789305 4.233859 4.811158 4.401927 3.103284 3.770026 3.376335 3.691258 4.546102 4.534900 3.812247 2.811295 3.268387 3.359767 2.330196 1.772105 2.719998 2.616311 3.407651 2.656653 2.794151 1.919183 1.964582 1.501519 0.790427 2.303886 4.219793 2.320428 0.862346 0.537568 1.408281 0.951498 0.555204 1.545940 1.566552 2.562088 1.140011 0.560284 0.224132 -0.689039 -0.507980 -0.087686 1.307164 1.188769 0.298830 -0.928740 -0.710699 -1.482459 0.168121 1.131577 2.055775 1.134707 0.203045 -0.108850 0.104592 1.177641 2.971453 2.966815 1.234970 0.897608 0.682370 1.405294 2.429136 2.490497 1.272341 1.116682 0.196738 0.404942 -0.036553 0.606674 2.871578 2.721392 0.302209 -0.593322 0.534980 0.769314 1.995628 1.645598 2.135205 1.173355 0.679598 -0.278695 0.204265 -0.014496 -1.471544 -1.091425 -0.782543 -0.958786 -1.491883 -0.984058 -2.139039 -4.099886 -4.704382 -3.852672 -4.078336 -4.481460 -4.895628 -4.804162 -4.540036 -5.531880 -5.481327 -5.412374 -6.985627 -6.650178 -7.813949 -7.675513 -6.902753 -6.732938 -6.773194 -6.617533 -8.144274 -8.588533 -7.804997 -7.851693 -7.217653 -7.969191 -6.415105 -6.897324 -6.768028 -6.474620 -8.418669 -8.226878 -7.248040 -5.481960 -5.980940 -5.853997 -5.892389 -7.179405 -7.091783 -5.751807 -6.117566 -6.208682 -4.375054 -4.436999 -5.211779 -4.362656 -3.855155 -4.047626 -3.374339 -2.351460 -1.109799 -2.899589 -3.028379 -3.645201 -2.729835 -1.889278 -0.671703 -0.584425 -2.273592 -3.191798 -3.660220 -4.005894 -2.825470 -0.858564 0.246247 -1.851262 -2.617494 -3.797744 -3.277205 -3.228052 -3.178640 -2.488245 -1.812606 -2.324843 -1.905667 -2.163254 -2.887347 -2.844080 -3.159189 -3.705828 -2.962910 -2.710102 -1.762480 -1.860187 -3.038979 -3.590687 -4.192622 -3.342421 -4.064472 -2.605194 -2.485727 -2.795780 -3.353741 -2.666201 -3.556009 -3.421089 -2.539910 -1.191614 -1.060681 -1.091450 -1.120127 -2.896319 -2.424991 -3.239786 -0.460888 -0.526678 -0.785680 -1.148906 -1.177967 -1.764594 -1.955487 -1.547337 -1.122348 -0.723983 -1.490756 -0.249317 0.730871 0.064776 -1.849418 -3.096707 -1.385896 -1.444899 -0.260120 -0.545473 -1.710822 -1.786940 -2.574629 -0.824920 -0.052632 0.254928 0.068099 -0.653907 -1.275264 -1.297049 0.248715 0.155548 1.364110 0.498309 -0.017182 -0.108591 -0.778089 -0.352944 1.073658 1.292237 2.362627 0.557947 1.750720 1.677791 0.835602 0.473562 0.115221 0.614572 1.448684 1.025850 1.313893 0.135290 0.160084 -0.911325 -1.793902 -1.992599 -1.258104 -0.407610 0.392988 -0.334609 -1.026561 -1.063785 -1.244139 -1.626706 -0.395182 -0.176425 0.961537 1.730033 0.377280 0.015605 -0.744393 -0.458411 -0.120139 1.313554 2.009396 0.499850 -0.110123 0.588742 -0.181444 0.157060 1.101919 1.681424 1.438715 1.195625 0.108867 0.195244 0.321972 2.131644 2.124228 1.790656 1.934602 0.779805 0.892607 0.218489 0.130571 1.409253 1.236570 1.601230 0.813622 0.799412 1.477488 -0.135440 -0.593414 -1.173884 -0.694365 -0.280470 -0.215003 0.806662 1.383011 0.447657 1.382395 0.504496 -0.124489 -0.119464 1.112014 1.937145 2.180330 2.532011 1.250643 0.944870 0.404715 1.786288 1.169102 1.482360 2.098229 1.675371 0.623902 0.470230 -0.261322 0.405771 1.202320 1.661399 1.447677 0.271756 0.341265 -0.058617 0.625969 2.449850 3.113952 2.395370 3.215330 2.196082 0.911036 1.949635 2.263362 3.222674 3.349920 3.124206 3.433090 2.495128 0.254879 1.178552 0.864639 1.747063 2.011451 2.522601 2.916382 1.352234 1.228014 1.726109 1.864817 2.301279 3.220459 2.857197 1.334298 0.608649 2.062457 1.988084 1.997974 1.797338 0.740271 0.706530 2.148020 2.225657 2.256765 1.867937 1.711649 1.180784 0.613389 0.789024 -0.305656 0.415193 2.763790 1.996135 1.905663 0.722246 0.019349 0.159917 -0.079899 -0.198222 0.598643 0.418564 0.516697 0.902552 1.517315 1.435747 0.554470 -0.399118 -1.066526 -1.715118 -0.207489 0.666316 2.064225 2.706768 -1.009166 -1.371842 -1.186180 -2.069974 -1.555944 -1.347700 -0.245465 -0.034081 -0.845750 -1.505628 -1.486023 -1.641588 -1.225336 -0.864959 -0.491781 -0.648007 -0.650168 -0.031259 -0.941735 -2.064710 -2.325936 -1.676624 -1.376121 -1.240755 -0.171022 1.211613 -0.946076 -1.661777 -2.902365 -3.117666 -1.892693 -0.349989 0.150836 0.545065 -0.309692 -2.042950 -3.396633 -2.596619 -0.557974 -0.331503 0.223033 0.193383 -1.086837 -2.325775 -2.974884 -2.077842 -0.708677 0.842547 -0.068593 -1.014737 -1.625972 -2.508542 -2.408951 -1.048479 -1.993766 -0.971406 -0.323285 -0.994508 -0.599358 -1.269518 -1.619158 -0.597159 0.376926 0.423621 0.371891 0.109357 0.187047 -0.404869 -0.311776 -0.103697 2.014455 1.148842 1.337643 -0.683399 -0.238434 0.971821 2.365786 1.479699 3.329648 1.887232 -0.465283 -0.442863 1.141260 2.315609 3.018638 2.476631 2.847169 0.400736 0.156142 0.361868 -0.205000 -0.033061 -0.682996 -0.580173 -0.397201 -1.140551 -1.247620 -1.703173 -2.051367 -2.670163 -2.957504 -3.397854 -3.631735 -3.555522 -2.205765 -1.172100 -0.497876 -0.708060 -2.335297 -2.976126 -3.156763 -2.821865 -0.548550 -0.452693 -0.242720 -0.314259 -1.083770 -1.110661 -2.390171 -1.313355 -1.640336 -1.635945 -0.962071 -0.550585 -1.878867 -1.837812 -1.930353 -1.756725 -3.951096 -3.070100 -1.166698 -0.821250 -1.064046 -1.726526 -1.768557 -2.199193 -3.248145 -2.546380 -1.472355 0.049516 0.479517 0.747555 -0.471259 -2.144248 -2.850867 -1.241648 1.399625 2.308758 0.655750 0.533522 -0.562890 -0.226009 0.652112 0.556314 0.617432 1.091856 1.542016 1.359433 -0.414186 -0.085199 0.115308 0.695235 -0.650260 -2.071386 -1.561226 -0.482920 0.479046 0.239015 0.223264 -0.542815 -0.946816 -1.557896 -2.216766 -1.596180 -0.105105 0.327893 1.746305 2.541154 -0.457702 -1.380265 -2.851147 -0.780129 -0.230080 0.080929 0.639912 0.731806 -0.195103 0.144410 0.101086 0.037937 -1.340727 -0.253657 1.347804 1.760091 1.266632 1.363830 0.859902 0.139618 1.378398 3.809412 3.898497 2.657506 2.287909 2.774305 2.751398 2.785447 3.562200 4.333328 4.999067 4.358681 3.315290 1.816582 1.644668 2.413629 3.957027 4.299985 3.554938 3.656070 3.977147 4.001023 2.522884 2.407587 1.980226 1.162621 1.969702 2.087139 2.773597 3.977848 4.788083 3.896219 1.860876 2.324344 2.111564 1.176886 1.620971 1.540659 1.452883 2.407599 3.933783 4.261938 2.818832 0.982130 0.532885 -0.584884 -0.411797 1.379339 2.698886 2.765257 3.477133 2.045390 0.320314 -0.183809 -0.592402 0.482887 0.177013 1.392920 4.661891 2.445909 1.714404 0.730475 -1.200068 -1.138751 -0.579443 0.275910 1.710370 1.382933 1.516958 0.397183 -1.127947 -1.540689 -1.033848 -2.221874 -0.098464 0.327806 1.570418 0.426324 -0.808253 -1.529163 -2.460257 -2.089688 0.151225 0.670176 0.932746 -0.736854 -0.577748 -0.014992 -0.782443 -0.422857 0.607337 0.242293 -0.781801 0.353289 -0.270553 -1.412546 -0.661158 0.166704 0.437901 0.414024 -0.284603 -0.476742 -1.488953 -1.707925 -2.239180 -0.745813 -0.076270 0.896693 0.795153 -1.674473 -2.340394 -2.407084 -2.293745 -1.255115 0.127854 0.301621 0.433675 -0.044661 -1.348070 -1.338888 -2.380710 -3.369453 -2.000395 -0.528156 0.476775 -0.220850 -1.544805 -2.392646 -2.820233 -2.038333 -1.629506 -2.101016 -2.433778 -1.918965 -1.800868 -1.730005 -2.395022 -2.118018 -2.712926 -2.710267 -3.905364 -5.510613 -4.857126 -2.735233 -1.892153 -1.917087 -3.246319 -3.391441 -4.327375 -5.148596 -4.530365 -2.980348 -2.054062 -2.420760 -1.322619 -0.883228 -2.029690 -1.871494 -2.532083 -2.338068 -2.239970 -0.208196 0.935644 0.084305 -0.613771 -1.950579 -1.898938 -1.635909 -1.604906 0.838552 0.579946 0.490821 -0.769684 -1.900408 -0.784910 -0.409832 0.013531 1.204923 1.351947 0.288887 0.576557 2.491199 2.241146 2.793813 3.921309 2.786261 2.549074 1.950916 2.701586 4.097114 3.410642 2.847178 2.995001 3.412434 2.110241 1.644133 2.971144 3.514736 3.246266 3.257864 3.876660 3.078087 2.031604 2.532921 3.683309 3.573112 4.541248 6.385774 5.574704 3.739851 3.037961 1.951756 3.094062 2.477920 3.052439 3.865134 3.788133 3.454239 2.540612 2.261547 2.885960 1.612799 1.608386 0.697588 0.458296 0.491170 2.928415 2.949562 3.956361 2.385321 1.157067 0.914661 0.025843 0.579480 1.329607 -1.446001 0.414950 1.529140 1.965318 1.883827 1.034603 -0.226482 -0.676829 -0.892764 -0.808983 -0.586987 1.288927 1.955074 1.923709 1.655752 1.047928 -0.270204 -1.653999 -1.411997 -0.429633 0.953356 1.583238 1.732437 -0.073900 -0.250410 -0.538803 -2.412226 -1.489747 0.955230 0.570999 1.032665 1.087243 0.818176 -1.101169 -0.038800 -0.517445 -0.561554 0.123703 1.384853 2.357049 0.855465 -0.477600 -0.518623 -1.076921 0.568607 1.959741 2.749315 1.804732 0.066748 -0.791051 -0.481276 1.202602 0.772559 1.053491 1.728134 2.462562 0.557147 0.401700 0.175992 -0.567277 0.282271 -0.157874 0.054636 1.575816 1.497406 1.544801 -0.327238 -0.012624 -0.251661 0.459387 0.857178 0.994347 1.281422 0.621904 -0.296499 -1.154523 -0.355954 1.360650 1.094254 1.626144 1.048983 0.951294 -0.091316 -0.844466 0.995189 1.405160 1.091001 0.757412 0.111202 -1.221694 -0.839600 -1.417678 -0.432678 0.110622 -0.342501 -0.618238 -1.994753 -3.231594 -1.231015 -1.591325 -0.503757 -0.042326 -0.495275 0.607005 -0.991110 -1.168898 -1.838988 -2.010101 -2.498814 -2.820727 -2.222407 -1.590242 -2.855162 -1.903692 -2.827233 -3.593414 -3.278010 -2.900785 -3.197735 -4.361531 -4.482255 -2.693688 -3.310633 -2.871648 -1.579990 -2.106722 -2.134334 -3.888238 -3.347538 -3.855052 -5.206100 -5.429985 -3.177207 -1.982928 -2.166093 -3.405901 -3.580099 -5.368936 -6.472866 -6.362053 -4.007408 -4.567425 -3.982153 -3.757410 -2.933895 -3.433690 -4.497205 -4.775693 -4.275558 -4.527842 -4.097823 -4.276534 -3.956478 -3.867419 -3.198824 -2.877574 -3.618598 -4.142006 -5.118811 -4.128180 -4.873005 -5.475696 -3.333456 -2.708911 -4.251131 -3.531059 -4.071804 -3.721866 -5.568433 -4.468558 -3.844171 -3.528545 -3.113930 -3.317778 -3.537327 -3.630587 -3.002646 -2.164874 -2.136188 -0.797617 -1.109060 -0.065246 -0.124920 -2.159115 -0.049004 -0.725880 0.482563 0.986266 1.011036 2.172247 1.130166 -0.779858 0.043794 -0.793559 -1.084679 -0.142535 0.160037 0.935599 0.522850 -1.285365 -0.831612 -0.918966 -1.072505 -0.800765 -0.802891 -0.088224 -0.523471 -0.061037 0.513986 -0.228363 -0.566305 -0.252022 -0.797255 -1.276150 -1.728006 -1.951928 -0.227216 1.016850 0.685588 1.040587 0.375916 -0.444256 -0.666805 -0.131886 0.331417 -1.463604 -1.394333 -0.630228 0.349832 0.198728 0.210883 0.076345 -1.299886 -1.604498 -1.077282 -1.183578 -0.496028 0.404393 0.679733 -0.303762 -0.257201 0.043930 0.365367 0.322697 0.152921 1.779313 0.674633 -0.035001 1.008852 0.587476 -0.034727 0.096472 -0.159947 -0.712798 -0.979954 -0.122988 -0.364825 -1.666318 -1.091279 -2.313608 -2.394749 -1.287127 -0.746235 0.066096 -1.889234 -1.899489 -0.925491 -1.064800 -0.994503 -1.240221 -1.320401 -1.419496 -1.498027 0.111612 -0.262711 0.634446 -0.733398 -1.365065 -1.201342 -1.074419 0.592614 0.260171 -0.522509 -0.771342 -0.664488 -0.685933 -2.074714 -2.401429 -2.148774 -1.171972 -0.352899 -1.105543 -1.614696 -2.038389 -2.465764 -1.613731 -2.645574 -2.572678 -0.929825 -1.271039 -1.125362 0.253901 -0.262273 -0.601178 -2.044596 -2.539804 -1.773422 -1.298060 -0.632556 0.783070 -0.381519 -1.154598 -0.990910 -2.957173 -2.266278 -0.581325 -2.766934 -2.059104 -1.569447 -1.504936 -1.386639 -0.781796 -2.234478 -2.761087 -2.795668 -3.015217 -3.163228 -1.695799 -1.224493 -0.519217 -1.380690 -1.006123 -0.301391 -1.196247 -1.701032 -2.411279 -2.083401 -2.128671 0.168704 1.245390 0.592365 0.364956 0.081886 -1.074849 -0.825857 -0.435507 1.470748 2.235562 1.027870 2.042196 1.790943 1.188482 0.663418 1.920812 4.064736 3.371670 2.468506 2.340730 2.383775 2.017217 1.905490 2.079808 2.712630 4.113724 2.837129 2.376819 2.196692 1.590652 0.259192 0.386581 1.901892 4.475755 3.002502 3.188666 1.800863 1.112361 0.764105 2.102841 3.005506 3.608550 2.952390 3.572741 3.196662 1.376561 0.812462 1.805053 3.327607 4.416054 4.098521 3.987911 3.536065 2.091512 2.197180 2.305696 1.503289 1.153024 2.725641 3.252600 3.639290 2.835428 2.372153 2.382750 0.960404 1.030438 1.431656 2.634912 1.844330 1.814953 2.643156 3.560667 2.326569 2.796675 1.633907 1.612781 -0.085877 2.074720 3.085219 3.293234 2.227714 2.090328 2.585348 2.288062 1.957013 1.569010 1.143031 2.231908 1.247869 1.614672 2.271564 1.232559 1.169825 -0.966241 -0.812693 0.999320 1.715243 2.698192 2.214529 0.376098 0.444257 0.770102 1.746127 2.550276 3.667779 3.913475 3.300013 2.926408 2.155387 3.949561 4.100075 5.369325 4.734233 4.388808 4.793865 5.060506 6.106321 6.230914 5.631888 6.567180 4.352720 2.985711 3.987336 3.768350 3.625288 5.143166 5.828524 6.075476 4.663256 4.334806 2.403569 2.345789 3.127396 4.162366 4.159464 4.391305 5.126598 3.119348 2.307668 2.926874 2.284784 1.245322 1.961386 1.633242 3.481396 2.186932 2.596550 2.590449 0.229436 0.547204 1.506502 0.896218 0.515109 0.684324 0.889821 1.795195 1.874395 1.051102 0.958314 0.145082 -0.923259 -1.373818 -0.485788 -0.581696 0.210984 0.258269 0.961829 1.293113 -0.833118 -1.091199 -0.553259 -1.153215 -2.082687 -1.564180 -1.262531 -0.126843 -0.246871 -0.023833 -1.759341 -3.522812 -4.901465 -2.697518 -2.288230 -1.221685 -1.102381 -0.277842 -1.957406 -2.583346 -2.398769 -3.080496 -3.009900 -2.310177 -2.145595 -1.260261 -2.223660 -2.013154 -2.021812 -3.073537 -2.354349 -2.677660 -2.865743 -2.669618 -2.770102 -1.935713 -1.719836 -2.558653 -1.346141 -1.134523 -1.759163 -1.850125 -1.707147 -3.617459 -3.673753 -2.739732 -0.684553 -1.563921 -0.888728 -1.402265 -0.754975 -2.113949 -2.572274 -4.491493 -2.911218 -3.215517 -1.441930 -0.282614 0.191388 -1.523426 -3.604645 -3.232942 -3.274211 -3.613874 -2.872744 -2.008850 -2.134820 -0.419034 -0.697538 -1.336515 -1.452296 -3.185722 -3.834222 -3.284870 -2.225604 -0.742938 -0.051082 -0.147437 -0.351468 -1.834741 -1.998566 -1.740242 -1.916438 -1.753376 -0.118750 0.289304 -0.565511 -1.728727 -2.120201 -2.398177 -1.794087 -0.457351 0.227793 -0.033797 -1.130022 -0.981134 -1.332965 -0.660067 -0.657125 0.702691 2.499726 3.718832 2.444158 1.528851 3.122850 2.717308 2.431214 3.487315 3.893866 2.199050 2.013831 2.962645 3.562941 3.102939 1.775373 3.073841 3.577188 4.015400 2.725711 2.913462 4.268719 3.306430 4.220244 4.291415 3.553619 4.703677 4.969581 3.882673 3.784213 1.980381 2.106548 2.763173 4.099379 4.595814 3.673746 1.289798 1.915306 2.184880 0.511428 -1.320721 1.854941 2.585898 1.498466 2.804786 1.467212 -0.327575 -0.719214 -0.340412 -0.237307 -1.767070 -0.436246 0.273519 1.008666 0.934810 0.707413 0.240423 -0.640411 -1.677788 -1.770044 -1.170577 -1.454471 -2.703310 -2.341386 -1.615177 -1.181693 -3.270303 -2.673840 -3.704691 -3.895692 -3.603171 -3.698988 -2.615956 -1.257416 -1.536864 -0.536249 -1.838899 -2.360782 -3.832004 -4.164935 -2.228149 -2.841706 -1.169288 -1.157194 -2.011703 -2.418468 -1.764447 -2.973616 -3.793270 -4.058975 -3.013920 -3.064268 -3.539062 -3.043554 -2.353297 -1.237130 -2.191342 -2.307590 -1.563374 -1.468411 -3.670782 -2.950345 -2.491638 -0.416140 -1.337088 -0.606265 -0.532582 -2.459100 -3.554285 -1.477334 -0.016669 -0.063495 1.160143 0.181292 1.477670 1.398348 0.224110 0.760558 0.587956 -0.739551 -0.596302 -0.551083 1.700560 1.443878 1.033580 0.226074 0.372699 -0.538163 -0.351404 -0.007359 1.919627 2.076166 1.462416 1.850663 2.897988 1.369010 1.935227 2.532432 3.474325 2.137660 2.647486 3.609600 3.140273 1.895191 2.061101 2.549822 1.977008 2.473874 1.409469 1.636117 1.375346 1.389337 2.102065 1.894556 0.541940 1.121744 1.804568 -0.113897 0.943886 1.325763 2.838072 3.124237 1.139505 0.233654 0.165679 -0.270402 1.079400 0.924779 2.213090 -0.075971 -0.487828 1.186439 1.907919 0.276313 -0.504607 -1.224052 -1.294313 0.128208 1.137995 1.285704 0.925216 -0.291761 -0.017694 0.500842 1.586258 0.585191 -0.644014 -0.395607 1.456894 1.069561 1.296849 1.158767 1.730554 0.798807 0.059153 -0.801002 0.710550 0.977278 1.235794 1.223800 1.173746 1.446654 2.604474 0.585420 0.923592 0.293393 0.793309 1.943724 2.697598 2.445266 1.693251 1.667289 1.271320 -0.466098 -1.613726 -0.155169 0.931412 1.342408 2.094338 1.306363 -0.360693 0.042231 1.354945 1.245392 3.815770 8.716311 10.081251 9.391731 9.371767 6.123197 7.085701 8.521770 11.249073 12.326069 14.021840 12.938907 11.813413 9.528552 7.903300 7.464738 8.813089 9.941260 8.633387 9.194768 6.528067 3.623162 3.612792 4.058888 3.178073 3.179819 4.191910 2.765483 1.834522 1.535909 -0.094479 0.842581 -0.130971 0.134552 1.965772 3.951063 5.862402 3.512612 2.938272 2.366432 3.142533 1.588337 2.506389 4.021464 3.078156 3.641548 3.426622 2.827106 2.706765 1.897949 2.507045 3.069221 1.376130 3.356932 3.881767 2.406927 1.915151 1.720803 0.776962 2.313494 0.398211 0.815322 1.294308 3.771988 1.324695 1.594091 1.006681 0.587014 0.838058 0.115909 -0.399185 -0.447350 0.645043 1.188671 2.250482 1.342627 0.401231 -1.855655 -0.578863 -0.093145 -2.490945 -0.560199 -0.025089 -0.841282 0.401544 1.380022 1.670162 0.498154 -0.374956 -0.031853 1.777413 -0.655888 0.406022 0.349251 -0.313605 -0.097362 -1.316382 -2.094848 -2.034699 -4.109997 -4.421960 -3.892640 -3.202860 -5.832436 -5.753480 -6.004292 -5.790197 -3.738186 -3.497327 -3.744473 -3.805811 -3.494759 -2.739325 -1.438788 -0.291036 0.497920 -0.285142 -0.455584 -0.421342 -0.024192 -2.033925 -2.743801 -2.351810 -2.060681 -2.086570 -2.291523 -2.768798 -1.519571 -3.375918 -3.985880 -2.789676 -2.045907 -1.710788 -2.309515 -1.478063 -3.053558 -3.088516 -2.281918 -0.035029 -0.081209 1.342769 0.713571 -0.575012 -1.469406 -0.422190 0.958262 1.121656 0.737090 -0.209958 -1.505073 -0.584909 0.146744 -1.641682 -1.147198 -3.410569 -2.642208 -3.180466 -2.502028 -3.084610 -4.160521 -4.398990 -4.730647 -5.181166 -4.311897 -4.184437 -4.784798 -4.590679 -5.283792 -6.037884 -5.794200 -5.504578 -5.216314 -5.301386 -6.244548 -6.528907 -6.062654 -7.202356 -7.525537 -7.831660 -9.302768 -9.992597 -9.635010 -8.628852 -8.306976 -8.660250 -8.932702 -9.836697 -12.382017 -11.014506 -10.146445 -10.188317 -10.687163 -11.848774 -11.676776 -12.422473 -11.192500 -11.894846 -11.640322 -13.355872 -13.067750 -13.105292 -12.730585 -12.879312 -12.089054 -13.605946 -13.292399 -13.533687 -13.834807 -13.441090 -13.239708 -12.470130 -12.142504 -12.305634 -11.538371 -11.921829 -12.091869 -11.247764 -10.783918 -9.755913 -9.432710 -9.302076 -9.945181 -9.557864 -9.173662 -9.437929 -8.961363 -7.938014 -8.269128 -9.210418 -8.346797 -8.377635 -7.689615 -7.595645 -7.965734 -7.595126 -6.756969 -6.330278 -5.931913 -6.049236 -6.585979 -5.432555 -5.558655 -5.294949 -5.356242 -5.965230 -4.942714 -5.733593 -4.759308 -3.598346 -5.186413 -4.786260 -4.437661 -4.812643 -4.219310 -5.476550 -5.674648 -5.231790 -5.136562 -4.831742 -4.981625 -5.252485 -4.579157 -4.510643 -5.636389 -5.394779 -4.598831 -5.409145 -4.507577 -4.172490 -5.175662 -5.333830 -4.047174 -5.822873 -6.702941 -6.037765 -5.704167 -5.965283 -6.397786 -6.338716 -7.104537 -7.946252 -8.573238 -6.584813 -6.753706 -6.057546 -6.265512 -6.825364 -6.719669 -7.610220 -9.217144 -6.858895 -5.924620 -6.694394 -7.024203 -5.936124 -5.301248 -7.292118 -7.532733 -6.258117 -6.395713 -6.073475 -6.298483 -6.359476 -6.757411 -7.033777 -6.838145 -5.393970 -4.387065 -6.474517 -6.449386 -6.286383 -6.327558 -4.597971 -4.944057 -3.714963 -4.977821 -4.990313 -4.642162 -4.854677 -4.541412 -3.221954 -3.090843 -2.202743 -1.611172 -2.991040 -3.714449 -3.941664 -2.613412 -0.762726 -0.718757 -0.915915 -1.992461 -1.975341 -0.882266 -0.737496 -0.023414 -0.977416 -0.318724 0.676113 0.702169 -0.094562 0.914889 3.253513 3.264712 2.731054 3.474648 2.844119 3.623261 4.362910 5.323161 5.409188 5.139006 4.504087 5.018482 6.383258 7.539326 7.584534 6.786668 5.908112 5.619572 5.821607 7.658394 9.151985 8.762221 7.460338 6.740835 7.342942 6.718259 7.818242 7.914759 9.742852 8.737249 8.317068 7.976478 7.656715 7.911806 6.723242 7.918765 7.521705 8.119278 6.922907 7.091840 6.182943 6.112973 4.988597 5.248968 6.102164 6.886568 5.960452 5.499180 3.936125 2.740454 2.927805 3.017416 3.688278 4.077429 5.244501 4.665909 3.269095 2.734285 2.498346 2.447785 2.352126 2.572941 3.792108 3.974986 4.307824 2.934692 2.201588 2.508748 2.471693 2.567357 2.294510 2.731198 2.756754 2.519873 1.835709 2.201983 2.125924 2.169462 2.018883 1.645680 1.292896 1.732007 2.086209 2.959354 1.875647 1.303835 0.902688 0.372515 0.274110 1.676172 1.727537 2.461459 1.065290 1.293129 0.485821 0.452201 0.682965 -0.074914 0.568335 1.656407 1.890985 1.646582 0.694807 0.947018 -1.479529 -1.759742 -0.511366 0.354683 0.653877 0.515914 1.431304 0.095246 -0.930197 -1.253341 0.271090 -0.760664 -1.166541 -0.007240 0.803144 0.247257 -0.784193 -1.598051 -1.565185 -2.954381 -2.338444 -1.844941 -1.797322 -1.074085 -0.391645 -1.353907 -1.628386 -2.244160 -2.586372 -4.016064 -3.384889 -1.276194 -0.848228 -0.067334 -1.083714 -2.154352 -2.337995 -2.520772 -1.867966 -0.793831 -1.848665 -1.428054 -0.942156 -0.772974 -0.545719 -0.097804 -1.282307 -1.336080 -1.680667 -1.460364 0.505771 1.678923 2.320585 0.301901 -0.417300 0.473229 0.148247 -0.380274 1.031810 2.038660 3.198477 1.344885 0.649285 0.971250 0.374466 -0.195144 0.175062 0.239727 0.917034 1.868552 2.151041 1.656335 0.262925 0.547645 0.245020 -0.028931 0.582998 1.968569 2.943348 2.984943 3.302342 1.662017 1.695894 0.924097 1.426685 3.195788 4.052845 4.322530 4.641856 3.170528 3.092311 2.785234 4.287222 4.516878 4.795556 4.805837 4.375772 5.015072 5.325250 6.565288 6.277757 5.577839 4.150158 4.641329 5.314580 7.187927 7.365670 7.784563 5.598123 4.674063 5.117072 6.869662 6.201551 5.123860 5.694910 5.957520 6.271382 7.017347 7.050408 5.897467 4.606505 5.164087 4.784515 5.619853 7.122358 6.945635 5.840295 4.761373 3.502187 3.094807 3.529465 3.899791 3.899027 3.676758 3.980903 3.882176 2.753976 1.827063 2.401623 0.996220 1.594291 0.912824 2.360499 2.853553 1.809171 1.478688 0.130828 -1.025865 -1.155450 -0.973648 -0.715010 -0.556431 -1.342941 -0.729983 -2.068441 -0.466311 -0.795595 -2.461616 -3.307696 -4.309184 -4.078134 -3.516054 -1.564774 -1.374117 -2.484129 -4.317509 -5.200473 -5.596336 -4.976170 -4.103783 -3.369980 -3.864130 -3.294886 -4.583661 -4.404125 -4.281581 -5.214365 -4.297901 -3.269827 -1.910787 -2.928642 -4.003425 -4.439379 -4.855270 -4.066857 -1.769775 -0.207176 -2.147619 -3.148281 -4.493126 -2.947815 -3.485384 -3.219240 -1.696515 -1.137812 -1.207495 -2.351937 -3.153535 -3.333065 -4.440738 -2.671086 -0.204351 -0.032975 -0.798163 -1.173212 -2.792130 -2.818958 -2.817238 -1.088456 -1.068409 -1.729457 -1.672791 -0.574562 -1.498361 -2.506930 -1.386174 -2.293568 -2.260595 -2.728546 -3.244281 -2.742322 -2.233773 -1.055196 -1.116016 -2.161646 -2.309156 -2.952403 -3.585383 -3.397822 -2.479139 -1.029212 -0.399389 -0.516426 -1.461520 -2.605640 -2.588990 -2.639640 -1.787268 -1.357224 -0.938737 -0.386332 -0.775528 -2.029535 -2.089693 -2.057862 -2.248573 -2.642544 -1.425761 -1.175626 -1.319906 -2.129002 -2.864968 -2.770036 -4.198298 -3.068802 -2.367639 -1.891189 -1.122331 -2.304051 -3.616207 -3.340483 -2.635995 -2.172602 -2.179361 -3.059039 -2.324777 -2.105050 -1.750722 -0.709829 -1.758678 -3.327774 -3.743513 -3.925787 -2.296579 -1.250599 0.145362 -0.500370 -1.593900 -2.890978 -3.115576 -3.855032 -3.130188 -1.850885 -0.790568 -0.712331 -1.339102 -3.252451 -3.893126 -3.162043 -3.302542 -3.633383 -3.669717 -3.645978 -2.789246 -2.123359 -1.452297 -1.447125 -2.874779 -4.328616 -4.067052 -3.056904 -2.810086 -2.411178 -1.674770 -0.786070 -1.362899 -2.006040 -3.001513 -3.976388 -4.652771 -3.425995 -2.941583 -0.792907 -1.698709 -2.566055 -3.246054 -3.079109 -3.941438 -4.637420 -3.444643 -3.138569 -3.151687 -2.945762 -2.333852 -3.182831 -3.426650 -3.245032 -4.388093 -4.338156 -5.001925 -3.102641 -2.321437 -1.582056 -0.681730 -2.315018 -3.860609 -4.587561 -4.747791 -4.069394 -2.278954 -1.750911 -1.373135 -2.543668 -3.517590 -4.167150 -4.976541 -4.874118 -4.298604 -4.284747 -2.914354 -1.915033 -2.607834 -2.891191 -4.390192 -5.433341 -5.466925 -4.236862 -1.637907 -1.773082 -2.368601 -3.680821 -4.302718 -5.090656 -4.492556 -3.486969 -2.606019 -2.051497 -1.828188 -2.245138 -2.319951 -2.474984 -2.951426 -2.868360 -2.938534 -2.827462 -0.698087 -0.525076 -0.857436 -1.699373 -3.179643 -3.625274 -3.822436 -2.263220 -2.402661 -1.608866 -0.645297 0.487189 -0.911785 -3.056761 -2.310821 -2.249304 -2.364165 -1.170969 -0.000913 0.728210 -1.178516 -1.291067 -1.505622 -1.512863 -2.771896 -3.207549 -1.321215 -1.128369 0.367458 0.886947 -0.003194 -0.675547 -2.246711 -2.231141 0.035681 0.913183 1.525064 1.292440 0.335301 0.153112 -0.563237 -0.315342 -0.271117 -0.921514 0.512168 1.098565 1.326593 0.625327 -0.163361 -1.834297 -1.360512 0.036221 0.928591 0.649367 1.007845 0.176610 -0.780057 -1.342417 -1.002506 0.898130 0.113612 1.237511 1.079340 -0.097093 -0.456821 -1.503891 -1.324459 -1.005544 -1.168095 -0.547704 1.042820 0.378422 0.179487 -1.779196 -3.386006 -2.442772 -2.820747 -1.509833 -1.480945 -1.027999 -0.384971 -1.379269 -2.029647 -1.781246 -2.592047 -3.403221 -2.792400 -1.799526 -1.313238 -1.682261 -1.821713 -2.597709 -2.442480 -3.793781 -3.873774 -3.268496 -4.044781 -4.092833 -3.866364 -2.364808 -2.495483 -4.226302 -4.361378 -5.374262 -5.377337 -4.642198 -4.268342 -3.256740 -3.393268 -3.396067 -3.451930 -4.442172 -4.313378 -5.429916 -4.883779 -4.638446 -3.971817 -3.009342 -3.506372 -3.260527 -3.994309 -4.813830 -6.035637 -5.652444 -4.284625 -2.911493 -2.527092 -2.555786 -5.007709 -5.905238 -6.310409 -6.397482 -4.622516 -2.565881 -2.279438 -2.738347 -4.369836 -4.581079 -5.663296 -5.973641 -4.084665 -4.126271 -2.611277 -2.572717 -2.101627 -2.776793 -3.603326 -4.401666 -5.461218 -4.158590 -3.720530 -2.740295 -1.835686 -1.204366 -1.788926 -4.041293 -3.993883 -3.370164 -3.939140 -2.267751 -1.911728 -0.944448 -1.550437 -2.653242 -1.875489 -3.771823 -3.187558 -3.081522 -2.709698 -1.597203 -1.850992 -1.557881 -1.986282 -1.887013 -3.539076 -3.589213 -3.193051 -2.331630 -0.840735 -1.226165 -0.782088 -1.716916 -2.306804 -2.837998 -3.158253 -0.935917 0.086520 -1.142835 -1.083696 -2.025412 -3.478363 -3.963813 -2.992054 -0.884766 -1.086179 -1.329311 -1.251301 -2.481776 -3.249309 -3.436763 -3.469468 -2.315988 -0.791370 -1.165120 -1.475351 -2.749716 -2.905401 -3.817123 -3.853592 -0.839338 -0.482154 -1.735072 -2.062611 -3.336414 -3.201702 -3.097025 -2.762026 -1.579521 -1.882659 -1.647485 -1.740656 -3.225040 -2.924047 -2.919701 -3.798074 -2.542468 -2.612400 -2.008598 -2.157077 -2.158873 -1.270160 -2.206700 -3.604473 -3.069294 -1.826593 -0.765489 -1.007162 -0.572162 -2.191999 -3.431115 -2.619070 -1.956742 -1.733271 -2.807900 -2.246100 -1.641709 -1.748494 -1.921649 -1.886630 -3.944368 -3.533038 -4.293457 -2.938078 -2.192403 -1.834394 -1.060081 -1.671712 -2.647078 -3.573850 -4.634339 -4.069093 -3.019056 -1.793482 -0.349879 -2.237702 -2.250423 -2.298494 -4.175391 -4.700078 -2.779687 -1.665982 -0.143175 -1.310468 -1.989835 -3.163239 -3.610857 -3.005955 -2.865974 -1.970766 -2.167943 -2.401593 -2.194041 -2.204443 -1.964075 -3.226077 -3.675952 -3.288979 -3.467664 -2.532727 -1.941158 -0.811202 -0.977924 -1.304504 -2.705316 -2.980606 