0.863861 -1.356353 -1.244579 0.033108 0.144578 0.255869 1.533021 -0.688210 0.588498 2.261642 -0.739970 -1.386874 0.273295 0.864265 -0.434227 0.846883 -0.317445 0.894547 -2.704369 -0.557852 0.268073 0.786279 1.075027 -0.777022 -0.380247 -0.575059 -2.728233 1.713606 -0.183545 1.134800 -0.991834 -1.089001 0.405413 0.803681 -1.342084 -2.625657 0.567018 0.060331 -0.981002 1.273878 -1.657665 -0.075129 -2.166747 -0.529622 0.134717 -0.209989 -2.300967 -1.288505 -0.902779 0.475471 -1.515476 -0.136827 -0.277288 -0.144090 0.856700 0.803458 -0.350572 -0.777170 0.539807 1.247657 1.560436 0.999973 0.842991 0.908674 1.080897 1.004985 -0.932349 1.029634 -0.306285 0.510272 1.155496 -0.808444 -0.467591 -0.754535 0.308747 -0.739639 0.159571 0.732173 0.511665 1.311252 -0.344747 0.878988 0.876293 -1.087882 0.027252 -0.060525 -0.383892 1.413780 -0.723607 -1.222593 -0.526241 -0.263645 0.490083 1.004928 0.438385 0.399887 0.595403 -0.036568 -0.635013 0.452897 -1.626566 1.151228 -0.303044 1.398571 -0.682369 -0.882906 0.446432 -0.294576 0.310185 -0.709364 -0.801235 0.286795 0.266897 1.911797 -1.118881 -1.481752 -0.746656 0.341813 -1.022199 -0.938515 -0.976021 -0.676877 1.254095 -1.528407 0.714600 -0.280591 0.700653 -2.992494 -0.175458 2.097002 -1.324265 -1.994583 1.577892 0.018074 0.990905 -0.883879 -1.409892 -1.871338 0.513557 -0.075927 0.452451 0.872483 -0.885734 0.633798 -0.833186 -1.370533 -0.239293 -1.425134 0.253052 -0.060119 -0.150550 -0.767189 -0.156770 0.030715 0.051572 -0.226006 -0.320059 -0.399088 0.620375 0.421682 1.219900 0.031432 0.211243 1.149109 -0.027730 0.784115 -0.384838 -1.210622 -0.831422 1.133964 0.480885 0.205866 -0.737081 -0.224408 -0.880300 -0.509420 1.147670 -0.447453 0.340362 0.315211 -0.468643 0.771985 1.533113 0.928230 -0.257826 0.774619 -0.239103 -0.102569 1.634391 0.098973 1.677717 -0.515002 -1.855575 1.569054 0.148172 2.429007 2.313095 -0.139328 1.215843 -0.337986 0.067166 0.867059 -0.710748 0.003052 0.664441 -0.448600 -0.089782 -1.588911 0.815778 -0.453619 -1.392460 1.445107 0.838866 0.509640 0.626879 -0.111050 0.203526 -0.661093 -0.564817 1.058455 -1.377955 0.679520 2.225973 -0.062125 1.082308 -1.484398 0.942008 -0.312258 -0.476017 1.069488 -0.304649 -0.267671 0.976944 -1.745322 -0.158029 1.494787 -0.875400 -1.669302 -0.289971 -0.177711 -1.938716 1.134849 0.702350 -0.518488 -0.274850 0.979495 0.730966 -1.201277 0.069360 -0.817149 0.909296 -0.396576 -0.300029 -1.060397 -0.601635 0.423310 0.228293 -0.054936 -0.039937 -0.001928 0.138871 -0.681463 0.389088 -1.516121 -1.142290 0.746626 1.156136 0.601343 -0.293546 0.115923 -0.451457 0.595453 0.291349 -0.071497 -0.271449 1.497231 0.243805 -0.491659 0.679549 0.588878 -0.538733 -0.422792 -1.196178 -0.091628 1.402372 1.661352 0.293849 0.483857 -0.078766 0.254088 0.143088 -1.741117 -2.313152 0.618264 0.906182 -0.413759 0.603747 0.769697 0.845836 0.790124 -0.128371 -0.105365 -0.241205 -0.317166 -0.338165 3.629182 -0.007391 -0.560338 0.046894 -0.401478 -1.976821 0.815629 0.862119 -0.573272 1.085083 1.171838 1.157790 0.307890 -1.121087 -0.683268 0.053552 -0.364747 1.020376 -0.299119 -0.819367 -0.231749 0.899366 1.392457 0.789670 -1.089010 0.209861 0.231911 0.184888 -0.765132 0.968345 -1.009506 2.465568 -0.662815 -0.243759 0.742410 1.409586 -2.267457 -0.715436 0.965034 1.306041 -0.995460 1.079873 0.140586 0.310252 1.109932 0.881419 -0.287368 1.374247 -1.388373 0.766812 -0.345466 0.540710 -0.540741 -1.167608 1.610075 -0.494423 -0.412640 -0.927547 -0.616939 0.341133 0.042059 1.478077 0.223716 0.273188 0.555437 -0.973992 0.214529 -0.775726 0.771507 1.840428 -1.215832 0.214820 0.482852 2.848039 -1.190930 -0.780885 -1.951522 -0.587394 1.559941 -0.073731 -0.280031 0.065153 -0.414079 0.888921 -0.973650 0.829421 0.345673 -0.733808 0.358623 1.123400 -0.731100 1.212330 0.849241 0.682416 0.463757 -0.330945 -0.080080 -0.046099 -0.161714 0.583425 -0.551498 -0.333935 -0.892561 0.250810 0.914709 -0.284865 0.570142 -1.045512 -0.564322 -0.281430 -1.095480 0.620272 0.954507 -0.244695 1.578006 -0.229530 0.211475 0.319762 0.185830 0.781668 0.313415 0.917352 -1.511534 -0.874324 -0.395597 -0.420399 -0.592940 -2.181737 -0.829297 -0.581662 -2.078122 2.435859 0.739818 1.292660 -1.115888 0.443281 -0.889975 -1.501034 0.923352 -0.487979 -1.564031 -0.174737 -0.015214 -0.569271 1.119137 0.783223 2.106753 0.664837 -0.797894 -0.937859 0.240111 2.220272 -0.403056 -1.269664 -1.361569 -0.727754 -1.258264 2.691010 0.708152 -1.118795 0.292267 -0.802535 -0.366589 -1.146834 -1.912534 -0.030548 -2.770920 -0.477838 0.448582 0.182079 1.775590 0.614910 0.735295 0.890522 -0.854726 0.314228 -0.783725 -0.065074 -0.235925 1.187756 0.870132 -0.773805 -0.206087 -0.598021 1.046958 1.262538 0.526303 -1.139991 0.262787 -0.339807 -0.940410 -1.594411 1.048844 -0.407030 -0.470510 -1.001818 -0.408711 0.577577 -0.433770 -0.416756 1.282454 -0.818200 1.090733 -0.690687 -1.136947 0.870592 0.409742 0.881864 0.568431 0.435626 1.451473 0.351426 0.429271 -1.129314 1.444363 1.630684 0.092801 -1.373175 0.136125 -2.050097 -1.438769 -0.531010 -0.006595 -0.420053 0.402975 2.060320 0.245286 -0.293644 -2.074861 -1.373510 -1.246128 -0.764115 0.460211 -0.773382 -1.972532 -0.830181 1.235187 1.592027 0.800847 1.292159 -1.201525 0.266660 -1.124069 -0.141273 -1.927777 -0.242940 -0.374892 0.324580 -0.511981 -0.108357 0.909940 0.751777 -0.326118 -0.927418 0.870783 2.076758 -0.350306 -0.921324 2.753104 0.424601 -2.024026 0.335715 0.189382 0.658977 0.939012 -0.192346 -0.615065 -0.258099 0.011196 -0.027255 0.439853 0.132452 -1.523196 -0.127705 0.827485 0.487622 1.037079 -2.443900 0.906826 1.516505 0.765374 -0.192903 0.672201 -0.861388 -2.051626 -0.662334 -0.638048 0.609553 -1.491047 -1.075098 -0.402030 0.560092 -0.344719 0.473573 1.070570 -0.055839 0.827479 0.770689 1.384023 -1.309705 1.477738 0.324898 -0.756649 0.307861 -0.640145 -0.462996 0.441075 -1.452131 -1.670086 -1.253201 2.163083 1.241499 -0.963580 2.100976 0.244089 -0.375390 -0.804410 0.070263 -0.163589 0.158530 -0.834379 0.323246 -0.475769 -0.153466 -2.378203 0.692134 1.057223 1.125847 0.724856 0.737467 -0.611450 -0.059545 -0.791336 0.843451 -0.676879 0.780865 0.547188 -1.095250 -1.182833 -0.592336 0.268219 -0.148574 -0.515974 0.435762 -1.236613 0.930166 0.016076 -1.622878 0.513799 0.168376 0.727809 2.004689 -0.980807 2.066915 0.110608 0.949867 0.055379 1.352447 0.178020 0.772784 -0.948138 0.300505 0.224489 -1.486451 1.242832 2.307370 1.399900 0.433623 1.450088 0.745399 -0.903217 0.156931 -0.849736 1.368395 -0.911115 -0.722027 -1.729925 1.230235 0.119025 0.653659 1.223867 0.142676 -1.242753 1.804621 -0.343560 -0.328405 1.215983 -0.846959 -0.501536 0.511878 -0.444448 -0.219441 -1.885031 0.327095 0.152133 -0.197071 1.514978 -0.504845 -0.119954 0.217105 0.140317 0.907549 0.359565 -0.573385 -1.038002 -1.445081 -0.931844 0.696404 0.899789 -0.349731 -0.087846 -1.267193 0.211306 0.932069 0.345587 0.870633 -0.241046 -0.741641 -0.208258 -0.136229 -1.738106 0.908491 0.375936 0.103846 0.206538 -1.963868 0.545539 1.124056 0.448847 0.277409 0.882666 -0.667187 -0.999643 0.190160 -2.255510 -1.069891 -0.273395 0.232922 -0.694843 -0.469922 -0.735251 -1.077775 0.765068 -1.166545 0.490212 -0.539951 1.091738 0.186409 -0.606062 -0.884884 0.967723 -0.295140 -1.121346 -0.129048 0.652940 -1.927517 -1.247145 -1.575331 1.091827 -0.371118 0.257100 0.331457 0.355427 -1.000094 -1.250416 0.655025 2.457319 -1.078237 0.095482 -0.426653 0.727900 -1.715300 0.969510 -0.995620 -0.210698 -0.257075 -0.189650 -0.806433 0.236534 0.120925 -0.644059 0.186933 0.913852 0.559520 2.712567 0.395357 0.602586 -0.025259 -1.427998 -0.165019 0.970008 -0.548639 0.221661 -0.630564 -0.091227 1.682207 1.093415 0.046498 1.615525 0.405169 -0.282593 -0.883795 1.667998 -0.525510 0.150858 -0.650332 -1.139233 -1.447102 -0.338429 1.113861 -0.276995 -1.861861 -0.983499 -0.549973 -1.172072 0.444764 1.523392 1.643118 -0.256985 1.782183 0.984238 -0.633617 -1.123654 -0.201009 -2.716716 0.697989 -0.647921 0.931162 1.491210 -1.014498 -0.829897 -0.334810 -1.101837 -1.011790 -0.581530 1.570631 0.164285 1.001152 -0.279407 0.961300 0.147876 -0.771117 1.558371 -1.502840 1.041092 -1.465142 1.215612 -1.170501 -0.218551 -0.004742 1.283015 2.256655 0.803836 0.009914 -0.210585 -0.719094 0.319555 0.532127 -2.282401 -1.753155 1.757249 -0.368145 -0.274730 1.407217 -0.364694 -0.772073 1.678174 0.383545 0.167048 1.442229 1.849911 -1.489268 2.100940 0.898713 -0.878897 0.856245 -1.040691 0.067061 -0.103290 -0.312899 0.726593 0.298292 0.345392 -1.798035 -1.194109 -0.742737 1.370788 1.320181 -0.078239 0.978970 -0.380544 0.128002 -0.463268 1.687354 -1.364722 1.758750 1.237506 -0.558309 1.523669 2.012955 0.799477 -1.567032 1.150784 0.941097 0.295465 1.636253 1.198894 0.337610 1.296128 -1.094359 -1.236780 0.483051 -1.517578 -0.561688 0.092034 -0.006400 -0.516994 -0.983418 -1.102988 -0.699001 -0.013298 0.509227 1.614694 1.133480 0.370050 0.799349 -0.549241 -0.952230 0.691072 0.047212 0.460183 0.181961 -1.195065 -0.395426 0.628198 -0.325253 -1.851391 1.525306 0.956748 0.568233 -0.911062 -0.292118 0.879614 -1.796310 -1.380232 -0.326174 0.858504 1.195035 -2.231856 0.388220 -0.137711 -0.127850 -0.825300 -0.116969 0.571301 1.710881 0.445343 0.674653 0.019599 1.056555 -1.436177 1.134552 0.591625 0.880877 2.857370 -0.837129 -0.858615 -0.138933 0.579414 0.287054 1.134005 -0.044456 0.862811 0.849632 -1.259529 0.876678 -0.185948 -0.351141 -1.100687 1.247103 0.201396 -0.654756 -0.218789 0.099982 -0.664400 1.715101 0.314477 -0.505938 1.257436 0.311281 0.434902 -2.620204 -0.309143 0.544587 0.615808 1.076295 -0.709834 1.352316 -2.376418 2.216606 0.943333 0.193527 0.242693 0.886626 0.186853 -0.451070 0.448867 -0.989486 -0.978433 -0.725951 0.062974 0.709261 -2.649607 -0.120399 0.107797 -0.093258 -1.542686 0.291308 0.292517 0.072969 0.805841 -0.721719 0.367165 -0.385816 -1.079739 -1.447239 -2.061286 -0.083585 -1.111097 0.447784 0.407516 1.827489 0.899018 0.136123 0.509833 -1.793107 0.880378 0.365340 2.817969 0.435299 -0.368316 0.479809 -0.123585 -1.538891 -0.486011 -0.062632 1.173049 -0.276826 1.554897 -1.503279 0.814270 0.827285 -1.112735 0.643549 0.955660 -0.196351 0.791273 -0.184723 0.310394 -2.083565 0.030152 0.008047 0.331611 0.088336 0.116593 0.362720 -0.274912 -0.064727 -0.683616 -0.687412 0.957182 0.427737 0.275374 2.697673 -1.762811 0.721785 -0.833058 0.090423 -0.826206 -0.306895 0.589934 -1.224794 -0.058691 -1.213875 -0.131855 -0.030220 -0.331655 0.576344 1.084621 -0.713711 1.351298 -0.500157 0.592574 -1.153515 -0.178337 -0.122509 0.404753 0.987363 -0.005924 -0.627927 0.664615 -1.054905 1.583643 0.102263 2.241564 0.153618 -0.532873 0.129193 0.910221 -0.999879 -1.606685 0.192549 0.809676 -1.228439 0.004364 -1.292542 1.518936 0.945709 -0.951816 0.335934 0.979732 -0.781607 -0.481504 0.340817 1.062253 2.022327 -0.888448 0.530971 -0.855476 0.161718 -0.632773 1.482839 -2.101739 -0.033579 0.093800 -1.393300 -0.167293 2.048415 -0.143354 2.239424 -0.650520 -0.680772 -0.248306 -0.363807 -0.312143 0.128744 0.615091 -0.133696 0.706774 0.860657 1.540163 1.911471 1.392649 -2.508755 -1.525857 -0.292158 -1.293257 0.090439 -0.277285 -0.119835 -0.580358 -0.949438 1.255078 -1.479231 1.037112 -0.047479 0.556158 -0.173006 -0.827418 -0.270860 0.533152 0.899608 -0.105883 0.603360 1.432178 -0.391526 3.659223 -0.333501 0.687155 0.724469 -1.043891 0.218502 0.579741 -0.481849 1.249067 -0.079267 -0.386315 -0.846391 1.665464 0.443896 -1.376670 -0.125977 -0.673549 -0.546040 0.976202 0.567629 -1.684953 -1.118254 -0.571333 -1.157883 -0.393892 -0.494944 -1.125268 -1.551793 -1.035707 0.877886 -1.076430 -0.106169 -0.684428 -1.215527 -0.780357 0.056597 0.686528 1.064585 -0.784250 -1.657189 0.545129 -0.419783 0.948462 0.441948 -1.992954 -1.122484 2.987253 1.219595 -2.214511 -1.362087 -1.349023 0.358272 0.449754 -0.718195 -0.361887 -0.235351 -1.424613 2.194149 -0.926578 0.030048 0.055264 -0.794588 1.851923 -0.381829 1.259031 -1.119801 0.612091 -0.788439 0.684730 1.193076 -0.833104 -0.527467 0.612678 1.106050 0.801320 -0.329941 -0.679466 -1.151218 0.602516 -0.509768 0.888411 -0.932729 0.156842 -1.153623 -2.297259 1.441961 -0.819684 -1.674591 0.421888 -0.537536 -1.734100 -0.545239 -0.353388 -0.330413 0.146476 0.122577 -1.288524 -1.610924 0.458926 -0.560042 1.511409 -1.312821 -0.069829 -1.308638 0.513105 -1.137664 1.168456 0.691811 -0.337344 -0.858423 0.400778 1.774477 -0.431010 0.299499 -1.049085 -0.042625 -0.059697 0.464021 0.299183 0.856122 -0.080852 -0.605761 -1.833809 1.009081 0.401912 0.664099 -1.811188 0.430764 0.502608 0.936236 -0.117228 -0.774793 -1.203721 0.613925 0.173787 2.226189 -0.047931 -0.565334 0.738504 0.580728 -1.148577 1.304095 2.222209 -1.524181 -0.996725 0.403062 1.046905 1.160523 -0.896550 -1.029887 -0.613793 0.159387 0.783227 0.275559 0.947972 -0.676220 -0.288629 0.005383 -0.842477 -1.483560 -2.024919 0.676805 -0.544032 1.648468 -0.173364 0.860404 -0.532049 1.211931 0.152965 -0.868289 1.580497 -0.509144 0.315477 1.894428 0.527669 -0.111994 -1.575100 1.388619 -1.438937 0.059146 -1.449030 0.377685 1.763999 1.068935 -1.274978 0.251877 0.295130 -0.594986 0.779560 0.443979 -1.286638 0.681794 0.532803 -0.256493 -0.242045 0.613158 1.287904 -0.082306 0.005932 1.833232 -1.859558 1.072645 -0.763255 -0.655939 1.034728 1.203702 -0.559179 -0.279578 0.756362 -0.781711 -0.807289 2.516084 -0.718187 -0.580050 -0.244000 -1.502145 2.082024 1.816123 0.472021 0.613009 0.603819 -0.659514 -0.501794 1.043258 -0.190417 -1.248611 1.484480 -1.148910 2.384604 -0.657329 -0.283827 1.646244 0.883180 -0.056916 -0.779982 1.096568 1.724183 0.031656 0.261410 1.221375 0.920079 0.638064 0.527476 -1.008688 -0.687403 0.996244 0.528620 -1.335327 -0.848795 0.405094 0.239802 -0.790121 -1.240025 1.612205 0.175573 0.024260 -0.531488 -0.197934 0.719772 1.883344 -0.299745 -0.823134 -0.407646 -0.160662 -0.274682 -0.400896 0.463543 -0.487574 -0.364630 1.545283 -1.255711 -0.015280 0.051958 -0.031240 -0.854098 -1.533443 -0.923854 -0.758095 -0.033613 -1.627533 0.394193 -2.030581 -2.213714 0.118474 1.400848 1.528228 0.989365 -1.322569 0.485304 -1.180400 -0.914993 -0.890828 -0.288087 -0.420987 -0.437924 0.632244 -0.104736 -0.801080 -0.384375 -1.122423 -0.929335 -0.925568 -0.036850 -0.944669 0.064938 0.167506 0.182363 -0.613400 -0.365257 -1.035720 -0.855337 1.614688 0.118357 -0.798846 -0.329597 1.559358 -1.328235 -0.247558 -0.111616 -1.009741 -0.109907 0.599599 -0.378505 -0.246348 0.638983 2.260914 -0.979258 1.039246 0.959823 -0.216534 0.651754 -1.217718 -0.773428 1.761034 0.069995 0.956233 -0.129583 -1.467282 0.056008 -0.193089 -1.103060 0.648086 -0.624714 1.278802 0.082028 0.199460 -1.179255 0.782468 -0.337256 0.358369 0.922566 -0.194172 -0.031429 -1.521322 0.674410 -0.408156 0.175579 0.945059 -0.273749 -0.034765 0.126117 -1.501295 0.659955 -1.482444 -1.153718 -1.751878 0.229578 0.914661 1.225877 -0.668829 -0.082800 1.806907 -0.410236 -0.378543 0.581187 0.246297 0.906497 0.516686 -0.247801 0.840904 0.537245 0.450001 -0.545432 1.253927 0.048914 0.759029 -1.048247 -0.621871 1.265319 -0.176251 -0.187638 0.765613 -0.293782 0.755585 -1.173017 -0.678071 0.355092 -0.885785 -1.471056 0.534773 0.273170 0.160755 -0.691284 0.556973 1.295326 -0.855812 0.304924 -0.501418 0.344920 -0.618174 1.034192 0.799321 -0.328536 -0.052945 -0.657205 -1.253114 -0.162904 0.397372 0.922075 0.502590 -1.876835 2.294800 -0.780399 0.190841 -0.613624 0.197345 0.163137 0.641344 -0.254189 0.024067 -0.804577 2.752053 -2.208114 0.871308 -0.876741 -0.714310 1.110651 0.475698 -0.345976 0.658336 -0.337625 -1.503919 -0.402933 0.438094 -0.727585 0.066575 2.445918 -1.341659 0.832972 -0.742990 1.163232 -0.885208 -0.125865 1.638665 1.698830 1.177704 0.414284 -0.974229 0.439816 0.086057 1.416059 1.514219 -1.387438 -0.607979 -0.174965 -0.140018 1.333646 0.621883 1.295112 0.246944 0.411112 1.453787 0.982542 2.269462 -0.005631 0.904616 -0.714484 -0.479570 -1.057599 1.394643 -0.029261 0.645449 -0.977849 0.424668 1.255166 -0.798244 -1.273684 -2.408796 0.567561 0.926125 1.044789 -2.254648 1.172785 0.299690 -0.647165 -0.410441 -1.148290 -2.485978 1.276552 0.588816 -0.389528 -1.788605 1.495899 -1.206265 -0.234902 -0.948364 -2.319325 -0.949746 0.643271 0.291237 -0.614912 0.453984 -0.900423 -1.368144 -1.745220 0.226579 0.590131 1.603228 0.395999 -0.152814 -1.272031 1.738473 0.253150 -1.720729 -1.248647 -0.148522 -0.289311 -1.194291 -1.590820 0.647126 -0.585377 -1.291310 -0.789685 -0.587068 0.273631 0.789177 1.331614 -0.540872 1.407607 1.195307 0.852844 -0.155111 1.529748 1.071656 -0.995172 0.221823 1.066797 0.578943 -0.472409 0.553602 -0.261245 -0.269222 0.600932 0.391711 -0.584692 1.213950 0.084294 -0.666537 -0.403360 -0.260138 -0.255669 0.401301 0.197640 1.833231 0.470965 -0.243040 0.960150 -0.116152 -0.921154 1.684866 0.148408 0.890455 0.667446 -0.133787 1.815955 -1.232360 0.874266 -0.184897 -0.370987 0.643172 -1.338747 0.023688 -1.590382 -1.215739 0.831547 -0.603046 1.221220 1.682498 -0.313217 1.020827 -0.783608 -1.187014 -0.916765 -0.225110 -0.362960 -1.332301 -0.056512 0.930663 0.616016 1.363388 0.303420 -0.374534 -0.941756 0.910362 0.455781 -0.759893 -0.480899 -1.018382 -0.666280 1.065204 -1.046351 0.917260 -0.174849 -0.050244 -0.639452 -0.502182 -1.095341 2.259067 -0.295474 -0.159494 -0.675949 -1.117850 0.118285 -0.210908 1.262304 -1.603247 1.308737 -0.435785 0.482561 -0.315930 -0.323878 0.640142 0.256295 -0.697006 0.491547 -1.336765 1.601179 -0.637014 0.307929 1.167565 -0.916531 -0.430268 1.367437 0.811301 0.560013 -0.448267 -0.025654 -1.565516 0.419442 0.165997 -0.150756 -0.947635 -0.565055 0.564113 -0.499790 -1.221494 0.056204 -1.717178 -2.072663 0.090184 0.633912 1.061145 -0.894207 0.529920 -0.115857 -2.561602 -0.917437 0.677938 -0.811274 -0.764940 -0.467967 0.716926 0.516101 1.141244 0.142860 0.163305 -0.628918 -2.040709 -0.675893 0.036462 -1.946443 1.760059 -0.465735 -0.180213 0.156284 -1.468132 -0.064456 0.455375 1.615561 1.088801 -0.074000 -0.370304 0.775548 -0.317693 -0.377214 -2.044928 0.051766 -0.151591 0.460009 1.176093 -0.694997 1.390997 0.311327 0.183334 0.233179 0.767301 0.529238 -0.524135 -0.283702 0.721673 1.151973 0.738083 2.157566 0.062538 -0.536200 -0.124646 0.633564 -1.361503 -0.381701 1.248340 1.535471 0.277282 0.511362 -0.069246 0.079999 -0.849774 2.469532 -0.143049 0.611982 -0.093361 -0.677948 -1.057777 -0.875540 -0.803043 -0.003650 -0.306856 -0.140296 3.217011 -0.072231 1.027705 -0.504278 -0.268765 -0.959148 -0.244652 -1.929145 0.857687 -0.378832 -0.211264 0.043218 0.936823 -0.041636 -1.589946 -0.245847 1.372351 -0.198130 0.623877 -0.998510 1.103590 0.027906 -0.073931 0.074764 -0.843048 0.201967 0.864382 1.250944 -1.380191 0.775153 -0.045371 -0.127138 -0.107346 -0.956731 -0.634776 0.241847 0.795703 0.590231 0.421063 -1.781013 -0.217711 -0.180568 0.366935 0.827505 -0.327753 0.772547 -0.817646 1.120711 -1.469172 0.409488 0.250733 -0.069047 0.784099 -0.200085 -1.524154 1.477816 2.349056 0.757115 -0.911484 1.271528 0.306016 0.102213 0.791219 1.269388 -0.664757 0.380119 1.183396 0.110893 0.067099 -1.355464 -0.089589 -0.152518 -1.856212 -1.950490 0.811744 0.334619 -0.620781 -0.277100 1.554799 -0.357237 -0.958680 0.984356 -0.130944 -0.256631 -0.185673 -1.556889 -0.964305 -0.821832 1.489717 0.124140 0.737249 -0.629743 1.267976 0.264156 -1.330592 -0.116069 -1.660516 -0.617560 0.877568 -1.844416 0.365051 -0.458345 0.437135 -0.311013 -0.342446 -0.795426 0.075668 0.624160 -0.350728 1.169173 -1.239961 -0.740713 0.329344 -0.016812 -0.101384 0.511764 -0.338947 -0.086839 1.368488 0.247556 0.193384 -0.508400 1.813603 -0.205555 -1.624266 -0.905466 -1.389193 -2.559472 0.076579 -0.289964 -0.347133 -0.226348 0.039208 -1.808061 0.872446 -0.938173 1.267889 0.008700 1.329237 -0.225690 -1.427881 0.633386 0.990529 1.711371 0.420547 -0.306136 2.254866 1.526585 -0.282152 1.369878 0.922933 1.306426 0.170560 0.884261 0.110916 0.023386 -0.623667 -1.116546 -0.173705 -1.662824 0.089000 -3.396127 1.009498 -0.033455 0.370908 1.802899 0.596729 0.748137 -1.250857 2.578304 1.104725 -0.307547 -0.639335 0.986688 2.726155 0.334805 1.028562 1.097953 -1.197115 0.720329 3.711040 -1.726487 0.272932 -0.251940 0.583951 0.388491 1.355317 -0.246898 0.589624 1.841545 1.415668 -0.314872 1.354322 0.376532 -0.399003 1.076887 2.035683 -0.661378 -0.967389 0.960673 2.033464 1.196797 -2.493757 1.401642 -0.287809 -1.745297 0.244368 -2.040260 -0.743921 0.034184 -1.482249 -0.788013 -0.625613 -1.037650 -1.354016 0.291745 -0.507474 0.244057 -2.480473 -2.184806 0.609737 -1.317619 0.934465 0.555367 -0.249038 0.908198 0.038960 -0.419011 -2.289360 -0.367809 -1.775848 -1.607950 -1.907435 -2.120686 -2.162549 -0.269342 0.307489 -1.250152 -0.791101 0.338850 -0.461010 1.025206 -0.085825 -0.031355 1.429238 0.216730 -1.086181 0.050922 -0.740686 -1.301162 0.275597 -1.399228 -0.313069 -0.966311 -0.014241 0.047113 1.930956 1.344596 0.331456 -0.175040 0.122164 0.758080 0.994029 -0.923114 0.812356 0.541431 -1.714283 0.387787 0.181945 -0.036792 1.987494 -0.158180 0.868016 -0.623607 -1.044825 1.530349 1.342048 -0.664771 -0.307034 0.624739 0.557223 0.987186 0.664577 -0.845961 0.228458 -0.560813 -0.431963 1.012088 1.172432 0.125872 -1.149710 -1.216715 0.006955 0.405432 -1.461275 -1.778218 0.232961 2.173726 0.644297 -0.108094 1.050358 0.916828 1.351561 0.908951 0.644679 -0.897876 -0.584236 -0.352372 -1.848279 -0.020772 -1.643204 2.266682 0.808916 0.556051 -1.194979 0.097430 0.217195 -0.157889 0.358414 0.855704 -2.309354 1.500474 -0.347251 -0.278931 -1.558301 -0.504375 -0.321494 0.158713 0.000571 0.816580 -0.838986 -0.359435 0.581951 0.300877 0.791418 -0.242974 -0.096879 -0.641241 0.236949 0.877684 1.134936 1.487398 -0.291126 0.073371 -1.159693 0.589647 0.232721 -0.927751 -0.630772 0.270036 0.911015 -0.807141 0.971870 1.553154 0.964110 0.080801 0.222745 -0.402013 0.384588 -0.635572 0.927080 -0.191757 -0.179834 0.061313 0.086889 -1.337619 -0.921038 2.141797 1.250426 2.168430 -0.349597 0.899535 -0.409885 1.064755 -1.491942 0.155159 -0.044368 -0.228031 -0.833837 -0.438839 -1.678274 0.314704 0.716872 0.351753 -0.480902 -0.152889 0.103188 0.817775 1.184755 -0.645970 0.360095 1.091058 -0.744062 -0.414005 -0.277722 -0.271329 0.420433 0.124541 -0.551315 0.445261 -0.383805 -1.645547 -0.383399 -0.426902 0.938985 -0.978273 -0.651353 -0.910052 0.048936 1.454362 -0.639401 0.311830 1.109335 1.440376 0.431687 -0.352256 1.442618 0.935703 0.490096 0.461509 0.346222 -1.126000 -0.033662 0.662223 -0.462040 1.049872 0.736146 -0.134589 -0.574612 0.424457 0.326403 0.757150 1.151571 -0.618078 -0.254317 -0.736192 -0.529402 1.021637 -0.350629 0.467938 -1.042898 -0.616889 -0.213219 -2.528316 -0.321381 0.268253 0.560357 1.172934 0.885245 -1.890340 -0.945897 0.121530 0.509659 -0.056588 0.499076 1.212359 -1.153399 0.231150 0.392232 -1.356413 -0.287509 0.303429 0.791754 -0.930382 -2.707221 -0.062865 1.236664 -2.406295 -0.205183 -2.328506 1.241106 -1.372576 -0.409513 0.716414 -1.166778 2.232621 0.125368 -1.382108 0.178499 0.625041 0.424498 0.835917 0.549993 -0.824606 -0.462824 1.230030 0.000404 -0.862227 -0.574614 0.350967 -1.282107 2.685264 -1.101690 0.761542 -1.413221 2.667307 0.476010 0.074230 -0.386663 -0.200226 -0.147013 -0.179545 0.429994 -1.180145 -1.658257 -0.986663 0.651428 0.259399 0.010308 0.143138 1.018232 -0.660578 0.419833 0.326725 -0.654993 -1.987569 0.789537 -1.095428 0.551364 0.360543 -1.224780 -1.328105 -0.160514 -0.221057 1.851325 -0.468166 -0.151988 -0.559847 -1.048780 -1.379664 -1.214068 -0.415034 0.897289 0.379077 1.183922 -1.100345 1.082090 0.166664 -0.790182 -1.322579 0.323012 0.014343 1.312818 0.176511 -1.823650 -0.199335 -0.129870 -1.061467 -0.195961 0.326959 0.923051 -0.077871 -0.556539 -0.788981 1.646634 1.651026 -1.238463 0.053795 0.179122 0.822278 -0.193489 0.522544 1.191297 -0.002604 0.849744 -0.698447 0.290612 -1.254532 0.413301 0.205481 -1.566834 1.217274 0.086749 -1.404327 1.441809 -0.593409 0.368527 0.931880 0.540998 -0.141223 -0.832303 -1.144457 -0.081888 -0.404937 -0.471215 -1.150654 0.650996 0.472460 1.776070 -0.096126 1.580822 -0.151639 0.657537 0.529235 0.209801 -2.071182 0.006513 -0.128209 -0.285158 1.145084 0.069235 -0.498818 0.602581 -0.278823 -0.135144 -0.974904 0.657719 -0.365213 0.325075 1.066471 -0.653083 0.458419 -1.751109 -0.488219 0.277790 -1.665393 0.275039 0.788645 -0.198672 0.832319 -0.043796 1.641634 -0.308060 -0.954504 -1.928746 0.634813 1.581260 4.345715 0.193333 -0.690931 -0.424917 1.347768 -0.755884 -0.244040 0.251490 -1.406440 1.217640 -0.408645 0.567949 0.568224 0.296025 -1.046534 0.678434 1.121586 0.684064 0.468186 1.980566 -0.621442 -0.933149 -0.504935 0.229942 1.276165 -0.858481 0.248926 -1.013449 1.536514 0.455906 0.194431 -1.872016 -0.555036 0.295845 2.092149 1.268724 -1.142884 -0.360397 0.063392 2.138289 -1.616124 0.914761 0.715413 0.362745 -0.217557 0.707697 -1.572210 1.090000 2.026891 -1.637787 1.227356 0.976520 -1.457260 -0.027297 -0.889086 0.100145 0.529977 0.135342 0.343120 0.313059 1.903253 -0.710443 0.345870 -1.101047 -0.884067 0.772623 0.200307 0.108385 0.927506 0.061158 -0.348657 -0.121185 -0.054537 -0.909368 -0.816752 -0.648669 1.694341 -0.403760 -0.864343 -0.254794 0.626020 -1.085393 -0.844244 0.854418 0.440755 -0.503967 0.619804 1.358262 -0.447245 -0.932983 0.249497 1.539442 1.564588 -1.143494 0.298203 -0.285992 0.544205 1.104200 -0.146267 0.717925 0.565176 -0.210829 -0.625493 0.312167 -2.033699 -0.067615 1.252214 -0.075497 0.060584 -0.467433 -0.021243 0.835103 0.420607 0.317848 -1.296218 1.410289 0.288542 -1.316498 0.758872 -1.750003 0.260376 2.283952 -0.106818 0.199034 1.049601 -1.193708 -1.344062 1.125927 1.991848 0.334449 -1.145633 -0.297597 0.768743 -0.293678 -0.985740 0.675833 0.267005 -1.307561 0.729894 0.609620 -1.014799 0.829553 2.744773 -1.007510 -0.530114 -0.099911 -0.040844 0.532144 1.575460 0.398970 -0.319784 -2.103569 0.309882 -0.660585 0.611716 1.674625 0.304394 -1.654812 -0.690880 1.186269 -0.079839 -0.368063 0.433952 -1.175927 0.752317 -1.571445 -0.277569 -0.210058 2.462411 0.972051 -0.712844 0.693198 -1.424060 0.490142 0.930227 -1.169073 -0.075270 -0.862639 -0.455361 0.488068 -0.520781 -1.690437 0.218287 -2.096199 1.363918 0.047553 1.383919 -1.694416 -0.282844 0.097785 -1.558218 -1.241269 -1.062662 0.400179 -1.310558 1.931602 0.841882 -0.767238 -0.140741 0.746837 -0.284044 0.325868 -1.390809 -0.929146 -0.031109 -1.577756 1.073956 -0.120050 1.305337 1.088904 -0.595667 -0.031479 0.025301 0.614754 -1.865713 0.641033 -0.309558 1.041271 -0.603374 -1.729275 0.453847 0.157713 -0.100573 1.335107 0.811151 -1.392231 -0.742500 1.808067 -0.368495 1.694908 1.159288 -0.541599 -2.224903 2.218822 0.737474 0.902007 0.600000 -0.144301 -1.281506 -0.050556 1.389514 -1.474384 -1.984624 0.162499 -0.036637 0.605005 1.140362 0.208525 -0.348138 -1.525748 1.277371 -0.066801 1.079591 0.731949 -0.183426 -1.256145 -0.684501 -2.666428 -0.632548 -0.930631 0.427493 -0.585223 -0.320497 0.156662 0.293026 1.029162 -0.776753 1.600979 0.340621 0.904443 -0.645547 -0.390537 1.347227 0.734141 0.446237 1.133870 -0.633718 1.266667 -0.553166 -0.361842 -0.262780 0.301136 0.897063 0.518912 -0.982287 1.785181 -1.654305 -0.325276 0.501924 -1.439360 -0.304642 -0.391590 0.458792 -1.119200 2.175315 0.955253 1.403569 -1.724919 -0.972633 0.181395 -0.273291 -0.466180 -1.268022 0.548168 1.214527 0.132093 -1.087688 0.153327 0.109048 -0.839213 0.783924 -0.350005 1.197314 -1.324554 -0.730453 0.439467 -0.682643 0.194259 -0.022860 -1.589023 0.522031 1.795969 -0.244783 -0.054127 -2.153293 -1.360655 -0.350416 -0.687639 0.018753 -0.236003 -0.083448 0.226186 0.327433 0.390740 0.991226 -0.149802 -0.095310 1.471156 -2.058180 0.176347 -1.434965 -1.173564 -0.942839 -0.223668 -1.001319 -0.803339 1.011138 0.769861 -0.981092 0.316432 1.029942 1.385171 0.138570 -0.554040 -0.996586 -1.491516 -0.404218 0.180255 1.283881 -1.499607 0.687651 0.010760 0.851919 0.666845 0.361038 1.030283 0.657524 -0.981800 -0.485610 -0.400205 -0.424909 0.224254 -0.772485 0.950404 -0.068411 0.821346 -2.214487 0.034333 1.454017 -0.849692 -0.625556 1.079285 -0.760753 1.080054 -1.458772 -0.888499 0.782671 0.233133 0.130787 0.799897 0.653541 -0.071763 0.826271 -0.044226 -3.068897 2.262753 -0.993245 -0.160596 1.413525 1.717083 -0.002878 -1.258693 -0.524358 -0.421302 -0.022231 1.227374 0.599748 -1.014726 0.426569 0.598264 0.469493 0.247189 -0.698294 -0.533056 -1.985865 0.860920 1.944069 1.131655 0.246573 -3.238017 -0.330527 -0.346992 -1.510404 0.868098 -1.379014 -0.892861 -0.374395 -0.103502 1.598244 -1.409225 2.170376 1.501867 -0.520017 0.808056 -0.144357 -1.583578 -1.214303 -0.357217 1.765766 0.835246 -0.817088 -0.092026 -0.572057 0.494770 0.187631 0.620221 1.030819 0.666479 -0.809612 -0.224245 -0.065656 2.148421 0.436125 -0.507622 -0.157226 1.564567 -0.417483 0.565257 -0.387591 1.210891 -1.584113 0.548506 -0.380790 0.383151 -0.537680 -2.700212 -0.238389 1.170036 0.501637 1.183675 -0.631397 0.739880 0.712184 -0.217980 -0.111220 -0.312053 -0.384791 -0.359925 0.489171 -0.422110 -1.836031 -0.360897 -0.341221 -2.028939 0.054724 -0.959338 -0.777156 -1.326363 -0.093398 0.706321 0.331372 -0.474432 0.624808 1.240479 -0.672230 -0.350864 -0.218905 -0.330216 -1.971539 0.122081 -0.888442 0.760485 0.493731 0.442153 0.526785 0.522732 -1.069364 -0.679577 -3.044136 1.573603 0.565110 0.119872 1.098393 0.234405 0.572382 -0.151551 -0.098773 1.355167 -0.296969 0.542754 -0.360280 -1.737764 -1.033897 1.483590 -0.881221 0.019596 0.775074 -0.202008 2.390901 0.206536 -0.433623 -0.932186 -0.782408 -0.705020 0.680079 -0.622991 0.313259 0.286329 0.432351 0.499631 0.424516 -1.278096 1.424974 0.746773 0.426792 0.372019 1.173500 -0.609816 0.500312 0.354668 0.918651 -0.316124 -1.736869 -0.333683 -0.363283 1.870811 -1.945365 -0.491436 -0.223693 -1.789668 1.122539 -0.215976 0.450964 0.349499 1.088068 0.277932 0.320428 -0.412739 -0.276869 -1.153396 1.375337 -0.852001 -0.614211 -0.313569 0.608884 -0.336838 -0.956718 1.672100 1.026294 0.665105 -0.025428 -1.356709 0.753532 0.361123 0.068036 1.512364 -1.387648 0.077709 1.008223 0.679290 -0.261653 1.344460 2.490152 1.000065 -0.566355 0.028905 2.384640 -1.633645 -0.347725 0.465483 0.029640 1.564492 0.416725 -1.778507 0.594727 0.354116 0.191005 -1.556243 1.945768 0.451366 0.363667 0.611000 1.400276 -0.515502 -0.977063 -2.182744 -0.156445 0.952240 -1.188369 1.547516 1.193307 1.102862 -0.277980 -1.404888 -0.894944 -0.995502 -0.377547 -0.625716 0.852708 -0.099933 1.032153 -0.417077 0.762004 -0.981513 -0.006691 0.556253 0.897923 0.548714 -1.718147 -0.883707 0.282870 0.732954 -1.971178 0.088308 0.717580 1.192535 -1.272071 -0.528995 0.479147 -1.366092 -0.996617 -0.042467 -0.378431 1.170887 0.114159 -1.924826 0.486618 -0.461945 0.342678 0.836927 0.402195 -0.407756 -0.065771 0.186345 -1.345764 -0.257226 -0.363864 -0.532869 1.070269 -1.591454 -0.127642 0.036118 0.748285 -0.246692 -0.983370 0.130832 -0.774554 0.165969 0.112176 -0.819982 1.005641 -0.856738 -1.244048 -1.548724 -1.248912 -0.354321 0.920138 0.433396 0.386541 1.307522 -1.004203 0.374979 1.031089 0.421687 -0.655016 1.005178 1.439249 -0.463968 -0.041720 -2.089538 -0.014964 -0.304115 0.948359 0.462089 1.796709 0.023049 0.489553 1.427796 -0.465973 0.334898 2.329558 -0.172667 -0.754763 1.220587 -1.339055 0.639473 0.364604 1.604175 -0.486747 -0.203501 -0.594071 0.387508 0.167296 0.029699 -0.103534 -0.831441 -0.512971 1.248626 0.759224 0.552082 -0.992954 0.288643 0.254618 1.622292 -0.458359 -1.038037 -0.618457 0.312327 -0.643424 -1.254198 0.552600 0.230595 0.881694 0.817656 1.515001 -2.502908 0.805582 2.014913 -1.198298 1.408247 -1.286510 -0.041008 -0.650701 -1.232458 2.167833 0.326976 -0.518555 -0.018007 -1.404122 0.708856 1.050833 -0.967110 -1.417576 -0.260339 -0.952691 1.524971 -0.584615 1.142253 -1.402329 0.732461 -0.850542 0.839412 0.443062 1.656603 -0.347313 -0.724460 0.491772 -0.389697 -1.152035 -0.154208 -0.411867 0.300726 -1.333676 0.012157 0.063186 2.235512 -1.442208 0.689457 -0.947889 -0.685495 1.742415 0.216397 -1.400155 -0.819054 2.463274 0.151000 0.879866 0.849212 -0.844821 -0.426129 -0.971791 -0.801012 -0.140645 1.048296 -0.089313 -0.675971 1.408284 -2.636616 1.374947 0.042965 0.492653 -0.495317 -0.318194 0.742191 0.535014 -1.060188 0.215174 -0.017137 0.667339 -0.351715 2.100539 -2.293488 0.141444 -1.279056 0.496424 0.868025 -1.151023 0.091527 0.906406 -1.576931 -0.038595 0.663888 1.047874 -0.940777 -1.258632 0.078461 0.669986 -1.163757 0.030546 0.696752 1.139492 2.421702 -1.135454 -0.375939 1.452763 -2.211957 -0.792810 1.472335 -0.185210 -0.952622 -1.141757 0.268307 0.099754 0.753887 -0.995054 0.784628 -0.251877 0.692673 -0.919412 -1.343781 -0.179563 -1.126009 0.580157 -0.527798 0.333630 0.362905 -0.371320 0.768465 0.550676 -1.168693 -0.771831 -0.644478 0.133730 -0.124074 1.385306 -2.065680 1.103614 0.149857 -0.663642 -1.947621 0.074443 1.295442 -0.183741 -0.773542 -1.034422 -0.637695 -0.421733 -1.958220 -1.555181 0.099122 0.513411 1.841945 -0.848084 -0.917373 -0.289291 0.559026 -1.362712 0.282185 -0.110395 1.265752 -0.533413 -0.773686 0.483323 0.242173 0.051805 0.683831 2.594580 0.245513 0.481318 0.790690 0.669719 -0.301379 -0.274833 -1.108055 0.487673 0.130106 0.074876 -1.354909 0.741047 -0.216941 -0.943459 -0.626900 1.689977 -0.614630 0.399246 2.012979 -1.614919 -0.097554 -0.686068 0.103730 0.538205 0.115668 1.647160 -0.339158 -0.635659 -0.081123 -0.122133 0.479781 0.799985 -0.346309 -0.157154 -0.680031 1.237637 0.802481 -0.285174 2.157033 0.681197 -0.124171 1.758004 -1.014537 0.891777 1.279969 -0.015271 0.793182 2.123297 1.607329 -0.212539 -0.525448 -0.162849 -0.327739 -0.473330 -0.562374 1.701471 1.059574 0.995931 1.956487 -0.628626 -2.423756 0.002956 1.123614 -0.631469 1.676728 -1.083767 -1.170891 -0.352883 -0.890435 -0.021606 0.322735 -0.027378 1.531342 -0.338433 0.230925 0.457467 -1.207295 -0.063156 -0.315846 0.306724 0.837297 0.609261 -0.070235 -1.309723 0.141931 -2.330110 1.274566 -2.630832 0.313166 0.158862 1.628315 -0.173550 -0.595483 -1.593606 0.442783 -0.763016 -0.040434 0.500289 0.239788 -1.195479 -0.448732 -0.910679 -0.758590 2.326771 0.480801 1.103238 -1.243223 0.388939 0.479839 0.957753 0.525787 0.170567 -0.621849 -0.263889 -0.061179 -0.061313 -0.944789 -0.724775 0.186115 0.006562 0.782839 -0.936703 -1.246851 0.042536 0.669643 1.053080 0.622647 1.326592 -0.420640 -0.733208 0.521293 0.173606 -0.155612 -0.261917 -1.751525 -0.369655 -1.808122 -0.508830 0.227242 0.644604 1.183864 0.194469 0.520422 0.650523 -0.956379 -0.602426 -0.627919 -1.515446 -1.283509 -1.801613 0.175823 -0.052621 1.480200 -1.870579 -0.232297 0.007677 -1.660409 -1.981672 -0.862498 -0.246895 -0.510481 -1.085668 0.214327 0.174951 -1.308913 -0.737187 0.148671 -2.472673 -1.825735 0.870546 -0.544320 -0.492812 -0.919523 1.804692 -1.864952 -1.130842 0.839349 0.137102 1.401707 0.200710 -1.943486 -0.312852 0.545941 0.185445 -0.147814 -0.991639 0.077239 0.792916 1.369261 -0.508233 -0.242314 -0.833760 -0.628739 0.185242 -0.924138 -0.073570 -0.174501 0.664404 0.560003 0.489998 0.487865 -0.383127 0.553524 -1.222870 -0.947914 -0.034523 0.453283 0.919681 -0.882183 1.152749 0.157332 0.197435 0.254918 0.819400 1.937882 0.471051 0.537482 0.607139 -2.508029 0.694901 -2.057231 0.487298 1.490298 -0.760600 -0.230167 0.906601 1.619004 -0.373812 -0.918298 0.917244 -0.466932 0.339342 0.241598 1.622860 -0.389345 -0.015845 1.017596 -0.896586 -1.393218 1.994141 1.028826 1.319768 -0.355999 0.155401 0.328887 -1.253581 -0.109742 -1.199261 0.329376 1.549941 0.271038 -1.774562 1.442091 1.079865 0.656080 0.479731 1.074410 0.694578 1.368455 0.433796 0.424428 -1.191393 -0.766410 0.885122 1.038388 0.540949 -0.280181 -2.169836 0.302930 0.921558 -0.383228 -0.432566 1.144770 0.785125 -0.033418 0.348315 -0.377127 -0.320319 -1.038111 1.420921 2.186707 -0.871612 2.057765 0.230076 1.181033 -0.496892 -1.045100 -0.855443 0.545667 -2.129945 0.724979 -1.085197 -1.448039 1.450124 0.201412 0.141980 -1.346475 3.014401 -1.058153 -0.637142 0.579275 -1.299651 1.298355 0.792067 -0.223514 -0.067023 -0.637600 -0.233022 -0.251368 1.230319 -0.884862 -1.394573 0.737037 -0.309631 0.542293 -0.356080 -1.730284 1.115134 1.381736 0.160829 0.230643 -0.423229 -0.896211 0.192435 -1.475229 -1.979226 -0.114240 0.390067 0.881095 -1.580679 0.042188 -0.593764 1.124346 -0.059833 0.589861 1.833802 -0.285264 0.904365 -0.641644 -0.346070 -1.074208 0.571126 0.099887 0.585483 0.459545 -0.247052 0.106485 1.009728 0.655659 -0.397123 1.240104 1.534033 0.284246 0.461662 1.297365 0.147629 1.703891 0.426690 -0.453553 -1.022624 0.108446 -0.825418 -0.743636 0.914101 0.429140 0.320583 -0.280043 2.405665 0.115976 1.015270 -0.703423 -0.467485 -1.162479 -0.151984 1.257685 -0.995593 0.197461 -0.474603 -0.171578 -0.788999 -0.545759 -1.297761 -1.129228 -0.918529 0.785009 -1.171418 0.874827 0.700781 0.586454 -1.709051 0.598962 -1.248064 -0.298287 -1.131905 0.592642 -0.557403 -0.337136 -0.774443 0.322501 -2.917205 -1.182719 -0.251044 -0.628303 0.920862 -0.183119 0.066962 -0.463097 -0.041118 1.590997 -1.470095 -2.564042 -1.021609 0.520238 0.025532 0.707096 -0.205217 0.019359 -1.992910 -0.314392 -1.186422 -0.489717 0.083617 -0.981450 0.155941 -0.552894 -0.952780 -0.541485 1.061046 -0.314592 0.437595 -1.229480 0.022606 0.816562 0.504953 -1.991268 0.218269 -0.775223 -0.686740 1.033503 0.509923 -0.513770 0.609648 -0.176939 0.715517 -1.108546 1.574988 1.615776 -0.593056 -0.118608 -0.716858 -1.257578 -1.728276 0.939254 -0.645649 -1.500838 -0.885304 -0.557431 -1.971684 0.236289 -0.053959 -0.357560 -0.299592 -0.119435 0.750348 -0.265956 -0.850135 0.199477 -0.062705 0.606222 -0.448787 -0.289935 0.592301 0.379006 0.322434 0.237221 0.937595 -1.752541 -1.061892 0.806581 0.183325 1.522095 -0.549575 0.599581 0.575673 1.351495 -0.522515 0.400987 0.951944 1.242616 0.128831 -0.520617 -0.231232 0.595299 1.886018 0.398888 1.841236 2.122070 0.923952 -0.450117 0.763382 1.208545 -0.206717 -0.180327 -0.968615 -0.758742 0.248412 -0.623256 1.076476 -0.158268 -0.017632 1.710700 -1.858722 -0.276573 0.538463 0.889778 1.226821 1.612608 1.304117 0.386851 1.486823 -1.050834 0.823183 -0.386131 0.239105 -1.489115 -1.800795 -1.172478 -1.736865 -1.292243 -1.125373 0.493805 -0.591256 0.459291 -0.967997 -0.486214 2.040900 0.460712 -0.432431 -1.716789 -1.098398 0.645782 0.935952 1.233483 -2.229791 -1.212443 0.141182 1.472565 -0.679823 0.168947 0.815487 -1.693164 1.449288 1.024560 0.558067 -0.334434 0.683795 -0.226650 -0.916036 0.988699 1.189919 -0.098416 -2.888345 -0.940143 -0.037699 1.128974 -0.172175 -0.918617 1.735472 -0.962217 1.244400 1.704121 -0.485633 -0.251067 -0.087953 -0.812211 -1.446011 -0.308901 -1.209092 -0.318775 1.224072 0.783404 1.430834 -1.709174 -0.750437 0.271396 -1.595058 -0.580491 0.698144 -2.066517 -1.310676 -0.695178 -1.271790 0.468477 0.874103 -0.293406 -0.901601 0.377942 -1.166440 1.426388 -0.681940 -1.348040 -0.215034 -1.027275 0.007823 1.356025 -0.681794 1.105408 -1.386495 0.781049 1.234247 0.688726 -0.258902 2.072988 0.700254 0.609770 -0.794624 -0.433463 0.296340 -0.799691 -0.648904 -1.401878 -0.326898 -1.044693 0.043153 -2.250372 -0.092760 1.279858 0.670558 -1.670889 -0.889529 0.945400 1.936038 1.290355 -0.536686 0.548783 1.248029 1.016067 -0.677256 0.291793 -0.763970 0.133393 -1.421733 -1.023746 2.174640 -1.839919 -0.999482 0.224749 -0.774356 -0.552912 0.374153 0.119289 -0.093028 -1.429769 0.756194 -0.377413 1.969982 -0.214174 0.673071 -0.901584 -0.479064 1.286116 0.630628 0.329944 0.227182 -1.242638 -1.407414 -0.149609 0.413999 -0.078599 -1.703319 -0.314073 -0.218356 -1.639098 -1.774619 -0.625285 -0.063024 1.210390 0.031088 -0.570869 -0.890753 -1.154317 -0.002519 -2.610944 -0.582062 -0.069790 -1.126381 -0.669292 1.177969 -0.714993 -1.116395 0.168245 -0.088876 -1.843815 -0.536630 0.956633 -0.432940 -0.989055 1.050090 -0.146224 -0.847070 -0.431453 1.848234 1.679391 -1.145907 0.331635 1.049659 -0.859589 1.818876 -0.408729 1.047999 0.665492 -0.178328 -1.433125 1.320171 -0.022235 -0.203257 -0.137261 1.336662 0.076251 -0.525275 -1.613668 1.112460 1.988010 -0.354332 0.667459 1.289939 -0.538619 -0.039185 0.114370 0.609693 0.867843 1.296274 -0.564451 -0.188689 0.865286 -0.151696 -0.890175 1.592232 1.571614 1.749878 0.724373 0.144618 0.410473 -1.125199 0.021864 -1.109694 -0.391272 0.255292 0.069409 0.206767 0.345549 -0.301141 1.467681 0.198904 0.895051 0.593010 -0.333519 1.466381 0.242418 -0.497719 0.501913 -2.028117 -0.608115 0.936898 0.372137 0.934407 0.742736 -1.503029 -1.467895 -0.077980 -1.101039 -0.400016 -0.609130 1.717439 0.364952 0.627707 -1.428894 0.813057 0.509609 -2.977057 1.012997 1.001006 0.422627 -0.275104 -0.594641 0.592125 0.360664 0.332758 0.092257 1.424388 0.167676 0.326698 -0.292431 -1.679780 1.998851 -0.493558 0.339575 0.205069 0.948354 -0.751440 1.284523 0.223125 -0.732641 -1.224208 -1.653813 0.244541 0.605748 0.257968 -0.548371 -0.173867 0.902651 0.712363 -0.209321 -0.919305 0.063074 0.681288 0.383656 -1.247642 -1.535047 0.520134 -0.571339 -0.447497 1.166811 -0.168496 0.757311 0.003885 0.234434 0.207674 0.880124 -1.761687 1.873468 1.124021 1.488941 0.494089 -0.900531 1.227927 0.005170 0.011379 0.656338 -1.343163 -0.115505 -0.055031 0.001657 0.748760 -1.836385 -1.100305 0.741938 -1.240153 1.424909 0.842360 0.588845 0.647685 0.790873 0.025964 -0.720347 0.302981 2.278044 -0.286553 -0.036689 0.227977 1.822441 -0.209340 -0.693398 -1.938522 0.007836 1.288102 -0.121438 0.741304 -0.957662 -1.145285 0.296826 0.951564 -0.375409 -0.422640 0.516649 1.913322 0.652266 0.019338 0.280169 -1.323559 -0.070908 -0.957082 -0.162336 1.147255 -1.674650 0.688623 0.637098 -0.232415 0.811384 -0.191810 -0.133499 0.616762 0.425523 0.322568 -0.517908 0.580844 -0.360434 -0.983518 -0.613327 1.748124 0.955442 1.472612 -0.235944 0.957048 -0.637226 -0.245400 0.582538 0.801774 1.084178 -1.532811 0.059501 0.211565 0.155682 0.153048 0.016810 -0.848782 -0.578699 0.475800 -0.485568 -1.140863 0.813649 1.213964 0.025990 -0.512047 -0.114713 0.708618 1.982606 -2.491247 -0.767502 -2.147624 -2.408767 1.258605 -1.144789 0.534311 -1.186637 0.299739 1.259774 0.176600 -1.218056 -0.856002 -0.743256 0.778664 -0.457279 -0.336110 -0.217530 -0.810072 -0.358029 0.536287 -1.309119 -1.003563 -2.282682 1.367646 -0.884392 0.858470 -0.865197 1.032402 -0.675555 0.475024 -2.670036 -1.159199 0.417651 1.374801 -0.042245 1.657409 -0.899309 -0.946421 -1.075692 0.699968 -0.819202 0.545613 -0.570108 0.388274 0.471431 0.595379 -0.934288 0.180691 -0.012649 -0.983608 -0.790662 0.860660 -0.387078 1.295101 0.259057 0.346157 0.387037 0.368515 -1.249741 -1.698327 1.703973 0.739133 0.347667 1.974909 0.005456 1.113386 -0.445252 0.592761 -0.592909 0.806617 -0.409024 0.357356 1.044021 -0.732239 2.001171 -0.861301 0.238511 -0.614440 0.180018 0.718554 -0.477621 -0.295593 -1.708020 0.354637 -0.632866 -0.638061 -0.586641 0.875848 1.183086 0.023611 