0.000000 0.000000 0.000000 0.000000 0.000000 0.000000 0.000000 0.000000 0.000000 -0.239571 0.712131 0.226411 -0.696725 0.154224 0.907676 0.527907 1.026770 0.744809 0.814565 -1.494563 -1.196075 -0.289934 1.072436 1.348161 0.721607 -0.507239 -1.428469 -2.940223 -0.806774 0.266837 1.102135 -0.324210 -1.362960 -2.033166 -1.084492 -1.895586 -2.868420 -1.705564 -1.242109 -2.081131 -1.370270 -2.627711 -3.590119 -4.974021 -4.399130 -3.574572 -2.792427 -4.683451 -5.323673 -6.182036 -5.587084 -6.465091 -6.057058 -6.199083 -6.329590 -6.095908 -5.414728 -6.199131 -6.981628 -6.543882 -5.305208 -4.056285 -3.629933 -3.651769 -3.903949 -3.651390 -3.110041 -3.500202 -2.428446 -2.246908 -1.720160 -1.103513 -1.717780 -2.804515 -3.142505 -2.667512 -2.668749 -2.003831 -1.474668 -1.284844 -1.321889 -2.011957 -1.931094 -1.347511 -1.817578 -1.572320 -0.841393 -0.967442 -0.017742 -0.698466 -2.089244 -2.581127 -2.316126 -1.556210 -0.343326 -0.216604 -0.582411 -1.005222 -1.499354 -1.940693 -1.126750 -1.555850 -0.264602 -0.225587 0.584951 -0.743000 -1.691646 -1.899446 -1.356330 -0.992714 -0.775270 -1.234998 -1.171402 -0.999502 -0.048372 -1.051270 -2.534844 -2.998324 -1.936079 -2.085853 -1.995508 -2.599846 -3.048464 -2.589264 -3.671551 -3.373436 -3.626908 -3.050031 -5.328978 -4.719847 -2.943272 -3.329916 -5.378427 -3.929326 -4.153970 -3.837746 -4.525850 -5.343663 -6.691639 -5.483499 -4.792438 -3.876000 -3.829114 -5.157829 -5.708489 -6.384412 -6.918101 -6.284230 -6.154241 -5.521252 -5.340925 -5.864789 -7.101626 -7.486281 -7.532585 -6.976191 -6.792052 -6.639705 -6.931281 -6.543340 -6.402675 -5.765712 -6.138220 -6.278415 -5.668627 -5.548870 -4.964998 -5.069370 -5.849929 -6.285221 -4.980023 -4.437175 -4.317170 -5.360538 -5.818696 -6.578039 -6.387962 -4.957265 -4.789874 -4.754388 -4.949365 -5.707515 -5.494685 -4.285948 -3.665934 -4.002742 -3.734642 -4.026479 -4.023630 -2.698423 -2.370349 -1.489768 -2.324151 -3.970248 -2.879132 -2.201810 -0.207124 1.185186 0.207862 -0.216450 -1.049998 -0.917450 0.493714 0.794373 1.198280 1.677746 0.930897 0.437539 -0.951000 -0.147337 -0.019502 -0.534092 0.684579 1.342178 1.081499 0.813774 0.149890 0.136283 -0.081748 0.113030 1.553299 0.851082 1.189307 2.331753 1.731612 1.672701 0.214224 1.001333 1.321921 1.641258 2.699525 2.602030 1.778163 2.083399 0.551189 0.626310 2.001236 1.864161 0.744292 0.491218 0.620780 -0.525647 0.356159 1.121425 0.591379 -0.287214 0.207899 0.699064 -0.216712 -0.146606 -0.251555 0.691814 0.469229 0.274630 -0.711189 -1.121025 -0.735368 -0.162558 -0.217963 -0.321975 -0.643559 -0.701335 -1.220687 -0.760125 -1.559563 -2.060091 -1.188338 -0.034384 0.081042 -0.814234 -1.400011 -1.883083 -1.259648 -0.511713 -0.111550 -0.350986 0.516895 0.283477 -0.449592 -0.279544 0.314656 0.047027 -0.101156 -0.701269 -0.354800 0.830645 1.947353 1.520036 0.929328 0.194293 0.410962 0.902252 0.339030 -0.676335 0.449775 1.510040 1.046744 0.663195 0.469502 0.568163 0.794155 0.723909 1.003433 1.149776 1.181256 1.228973 3.947069 3.378523 2.022779 1.224106 1.142258 0.279270 1.927554 3.297246 3.166866 2.962097 2.968146 3.054543 2.641557 1.668004 1.794112 2.704043 3.151236 4.293505 3.671074 2.345061 1.582756 2.220422 3.546565 4.213292 3.040488 2.972104 3.062059 3.428133 3.031633 3.936619 3.177014 4.885549 3.931216 3.465106 3.717086 4.889924 3.163645 2.902469 3.889429 5.511343 4.361168 4.694320 4.298642 4.257657 4.754916 5.596709 5.385901 6.274549 4.954806 5.669823 5.442395 6.075045 5.700408 4.786229 5.934772 5.739600 5.114896 4.415033 4.016339 4.676964 4.968254 6.012886 5.889441 5.240827 5.145903 4.221155 4.682385 4.698796 5.792572 7.430596 5.934594 5.317037 5.248986 7.325116 6.382293 5.490709 4.164452 4.574002 6.515905 6.976951 6.182779 5.497497 4.292432 4.985815 4.410626 5.502558 6.178779 5.457260 5.481791 6.151655 5.257510 6.078205 6.443534 6.930604 6.974555 6.391690 6.306067 6.562295 6.619733 7.433332 6.928847 6.421341 5.580410 5.824137 6.783973 6.597499 6.735993 5.633752 4.979613 5.066935 4.663078 5.654553 6.630141 5.962219 6.579320 5.554853 5.297884 5.598004 5.990851 7.054423 7.424375 7.709080 6.235844 5.121427 5.173415 5.562336 5.693731 4.320079 3.738590 3.649171 2.075699 4.207190 4.700544 4.922958 3.101161 2.622691 2.264751 1.969400 3.448889 4.159434 2.712213 2.337910 1.840259 1.477577 2.249654 2.740486 4.283559 4.096618 2.642711 1.699990 2.416407 4.942990 5.184993 3.622571 2.153761 1.612582 1.273087 4.098319 4.812391 3.290390 2.299240 1.280891 1.317611 1.318080 0.487495 1.535742 -0.248960 -0.631473 -0.015853 -0.161995 0.751796 0.470125 0.112672 0.596754 -0.324471 0.431037 0.546996 0.938786 1.218019 1.946429 2.170514 0.877432 0.008896 -0.202926 1.079761 2.760439 3.019590 1.602888 1.211561 0.817336 0.537731 -0.164257 1.390851 1.546477 1.007906 -0.343905 -0.825000 -0.272636 -0.302858 -0.643268 0.639853 -0.213062 0.368895 -0.363810 -1.436111 -0.369856 0.325286 1.050676 1.363782 0.806623 1.575376 1.403352 1.465611 0.844780 2.198178 3.972329 3.825366 2.119612 1.864374 0.473400 0.146452 0.707787 1.665878 1.545755 1.287780 1.920315 1.391345 0.169050 -1.427949 -1.719720 -1.048564 -0.316237 0.749376 -0.033240 -2.658210 -3.849619 -2.890978 -1.085587 -0.441175 -0.055080 -1.638661 -2.001274 -2.480514 -1.941468 -2.256339 -1.960527 -1.789723 -1.658769 -2.581693 -3.128661 -2.776208 -2.102003 -2.510624 -3.064311 -2.281552 -0.302989 -0.776754 -2.067483 -0.311152 -0.066034 -1.884662 -1.558022 -0.856023 0.274048 1.057505 0.242342 -0.569484 -1.181284 -1.098367 -0.386635 0.302711 0.481726 -0.886874 -1.265701 -0.504994 0.025575 0.754727 -1.447958 -1.056712 0.624798 1.005116 0.834050 0.727473 -0.158155 -1.493737 -1.544322 -0.798585 0.353925 -0.580408 -2.085140 -2.459784 -2.216700 -2.274155 -1.842779 -1.098204 -1.312324 -1.188648 -0.797701 -0.058579 -1.022955 -0.202957 0.465354 -0.169861 0.197256 -0.208797 -0.479960 0.240880 -1.033196 -1.986548 -2.592210 -0.524705 0.875113 -0.690611 -0.074451 -0.466200 -1.284961 -1.475203 -0.960930 0.077889 0.526280 -0.306681 -0.298010 -1.026786 -1.376029 -2.932604 -1.987293 -0.381843 0.504176 0.466646 -0.069901 -1.310682 -1.449162 -1.583364 0.051612 0.306220 0.825019 0.957693 -0.624558 -1.950982 -2.110023 -1.185430 -0.372030 -0.730564 -0.534566 -1.846606 -1.576602 -1.429307 -2.700419 -1.928551 -1.419952 -0.780171 0.658961 -0.943268 -0.043880 -0.180433 0.080077 0.669436 1.568029 1.986053 2.352290 1.292060 1.463609 1.800269 0.924622 2.054990 4.114164 4.529187 3.996063 3.824739 4.021832 3.393751 3.906620 4.189877 5.811632 5.386010 4.135672 2.743305 3.489431 4.050475 4.535840 5.207528 4.791610 3.240055 4.533878 4.499625 4.573702 5.654280 4.880260 4.386416 4.752253 4.247085 4.456146 3.016657 3.406391 4.188249 3.870732 4.871420 4.003563 3.242290 3.411100 3.450603 4.679485 4.993596 4.267562 3.409129 2.250738 2.135827 3.431792 4.474414 3.882528 3.010286 1.433081 1.567011 2.892054 3.472067 4.211543 3.568595 2.368070 2.205215 2.290589 1.609508 2.815402 3.430422 3.198629 2.832205 0.665013 1.124689 2.656948 3.047528 3.435048 3.440087 2.433391 1.487803 1.789433 0.848749 0.794170 1.406354 1.764660 1.260075 0.105202 -0.875166 -1.556920 -0.647152 -0.919274 -0.312340 -0.521884 -0.204319 -0.143758 -1.259130 -1.997937 -0.835826 -0.680796 -1.209836 -1.243279 -0.578193 -2.146745 -3.144785 -4.010038 -2.385077 -2.067060 -2.233650 -2.284358 -2.686527 -3.873856 -4.725936 -3.587975 -0.723422 -1.664892 -2.223160 -3.123657 -2.783717 -3.674601 -2.678554 -2.720459 -2.614082 -2.769990 -3.117906 -3.754536 -3.490396 -3.498142 -3.647641 -3.563086 -2.750237 -2.438027 -0.606793 -1.091652 -1.409565 -1.697585 -2.861289 -1.968663 -0.208544 -0.236625 -0.024338 -1.283368 -1.871403 -0.516669 0.151175 0.029494 1.078323 0.904302 0.526667 -0.087110 1.453657 1.653633 1.735703 1.095708 0.028244 -0.759957 -0.586863 0.863203 1.022047 -1.026607 -2.037508 -2.341976 -2.593373 -1.594554 -0.109049 0.821242 -0.455686 -0.339614 -0.056948 -0.671139 -1.075335 -0.430131 -1.432309 -0.014889 -0.215368 0.230331 0.863620 -1.341690 -2.513769 -2.450534 -2.668821 -1.920612 -1.739463 -0.157488 -0.379857 -0.871068 -2.060253 -1.892329 -1.479967 -1.721673 0.249452 -0.499480 0.140520 -0.932106 -0.587427 -1.087766 -1.608445 -1.137896 0.080825 1.731745 1.824331 0.560123 -0.024221 -0.737618 0.507393 1.816531 0.541740 -0.682541 0.761833 0.516686 0.050416 0.674952 -0.141392 -0.722389 0.580038 1.069038 1.542652 2.304000 3.156705 1.665713 2.723036 3.380959 2.772330 3.708838 2.820082 3.196972 3.666280 2.952799 3.938551 3.803194 3.538129 2.093177 1.001018 1.289408 3.158503 4.669982 3.934808 3.573295 2.363312 1.964557 2.214185 4.047999 3.787069 4.986005 5.664150 4.298292 4.906808 5.987720 6.248192 5.154961 5.646696 7.172170 7.550545 8.589699 8.860929 8.376587 8.731117 7.310966 6.798114 8.010272 7.536395 7.770824 8.023186 7.484730 6.842105 5.373639 4.438959 4.605967 5.154511 6.089733 7.250778 7.311881 6.311047 5.995926 5.201846 4.856766 6.397706 7.203238 7.875075 7.609239 5.733714 5.088348 5.587904 5.663169 4.775358 6.122336 7.047046 7.002672 5.546956 4.565321 5.547245 4.566653 3.871326 4.613161 5.588816 6.588428 3.955992 3.428575 3.404661 3.279358 3.374723 3.515930 4.358330 5.572352 5.027970 4.807125 4.120127 4.708782 3.921386 5.204327 6.282491 6.879157 8.593288 6.872865 5.159346 5.218698 5.913796 7.443108 8.467137 8.082592 8.120685 7.810196 6.300149 7.050318 7.447487 7.455640 7.218961 7.936107 8.206725 7.187955 6.449504 6.505334 6.189694 7.762192 7.955739 7.350742 7.835138 7.565524 7.734926 5.834925 5.613464 7.237705 7.942581 8.646708 7.337045 7.334451 5.340687 6.596015 8.394760 8.298617 8.557809 8.472065 8.231177 7.891098 7.761041 7.750978 7.170735 7.092950 7.352465 8.191480 5.788147 5.260225 5.739117 5.611922 4.847223 4.849296 5.367481 5.419619 5.463618 4.681910 4.683912 4.555389 3.649183 3.319291 2.197833 2.845404 2.705526 2.796880 2.987569 3.407682 3.425499 2.548577 2.622267 1.671102 2.871562 4.228857 6.232616 6.333645 4.352527 3.986344 3.755717 3.054745 3.830197 4.483160 6.088789 5.370774 5.384341 3.558516 3.531557 4.481372 3.959880 5.012219 5.906832 5.405787 5.892966 4.766497 4.952554 3.665341 3.729526 4.776050 5.345282 5.297940 4.757542 4.458915 4.000839 3.659777 3.689103 3.512997 4.734290 5.102247 4.920621 6.232782 4.158796 4.159544 3.860415 4.180560 4.796462 4.552067 5.141425 4.284914 3.395581 2.713410 2.493856 3.192739 2.901273 3.524402 4.085262 2.930687 3.614683 2.894544 3.355138 2.892966 2.767327 3.330922 3.765930 4.267777 3.919207 2.730465 3.143762 2.354991 4.002102 4.329547 5.639658 5.457760 3.917556 3.861440 4.767197 4.402291 3.742733 4.064955 5.274488 4.159011 3.640278 2.377381 3.705851 4.594344 3.349343 3.611149 4.180044 3.472873 3.314252 3.398644 4.671353 6.179012 4.622679 4.324322 3.717548 3.807562 4.166228 5.488376 4.186075 3.894821 3.844820 2.758358 2.856168 4.493398 4.198672 5.716629 4.042505 3.044094 3.338799 3.239054 3.986724 4.630874 4.659720 4.466515 4.131567 4.310648 5.213192 6.485067 6.951333 4.641568 3.517376 4.163471 4.446987 5.355280 5.018128 4.386087 3.529664 1.856991 3.097548 2.447004 3.296283 3.666452 3.666375 3.485730 2.202059 2.094003 3.029264 3.678927 3.800315 3.640543 4.452948 3.699859 6.149633 5.518983 5.460273 6.163718 4.954419 5.893457 6.669658 6.125022 7.535262 6.525592 5.876636 5.213229 6.381673 7.224931 6.019075 5.584654 5.297720 5.211194 6.205096 6.318442 4.972527 3.680224 3.327774 3.288174 3.549700 3.306292 2.572283 1.350220 0.320731 1.471627 0.932935 0.557831 0.068210 -0.955712 -1.170824 -0.893016 -0.011691 0.867123 -0.572375 -2.268287 -1.732195 -1.426904 -0.211951 0.252233 -1.794417 -2.649863 -0.234978 0.824385 -1.176870 -2.968205 -3.445568 -1.879300 -0.886777 -1.712571 -1.998712 -2.718692 -4.156552 -2.103107 -2.574217 -2.621440 -2.373533 -3.293496 -1.559172 -1.877622 -1.569139 -2.095927 -2.335377 -2.241874 -1.655679 -0.434463 -1.135828 -2.038758 -1.423662 -0.698497 0.202012 -0.733567 -1.387453 -1.966091 -1.112237 -0.853768 -0.103843 -0.894690 -1.329430 -2.159998 -3.904330 -2.107863 -1.855037 -3.257291 -2.762260 -3.479784 -4.505797 -4.955809 -5.008327 -4.362349 -4.306200 -4.523296 -5.505444 -6.873549 -6.233389 -5.819860 -4.457493 -5.633050 -6.247358 -7.016289 -6.664248 -6.795946 -5.680417 -5.028778 -5.575682 -6.777562 -6.495026 -4.828352 -4.792706 -5.144537 -5.760580 -5.725175 -5.198644 -4.814363 -4.362082 -3.926671 -4.463378 -5.117233 -6.500040 -5.076846 -3.930357 -3.395694 -5.158626 -5.329489 -4.586931 -3.867545 -4.082718 -4.841232 -5.598350 -4.560051 -4.112347 -2.269327 -2.811494 -4.132430 -3.758559 -3.190772 -3.710290 -2.354453 -0.529828 -1.777862 -3.333997 -3.089997 -1.584712 -0.257520 -1.709699 -2.695082 -2.745453 -2.440449 -1.249504 -1.073477 -0.767998 -1.682736 -2.376346 -2.141476 -2.401457 -2.896853 -3.949095 -2.850614 -2.685850 -1.954460 -2.598935 -2.887702 -3.422479 -2.718554 -2.105229 -2.519207 -1.182246 -1.336149 -1.479113 -0.069301 -0.352573 -0.489248 -2.086022 -0.810085 -0.769801 -0.801836 -1.521926 -1.208769 0.403755 0.524149 -1.250671 -1.357330 -1.073944 -0.717344 0.052046 0.489041 -0.507448 -0.167951 -0.130644 -0.167225 -0.369391 -0.155192 1.217709 1.010265 0.349455 1.743622 0.316444 0.995763 0.744734 0.394609 1.770452 2.279799 1.637059 1.028854 1.009594 1.068396 0.544743 2.626994 2.308691 1.542596 0.865824 -0.202932 2.163650 3.451140 3.134125 3.158480 2.481177 2.126193 2.159238 3.189378 3.832145 2.907535 3.609362 2.641306 4.251890 3.404490 2.569747 4.298045 4.658455 4.521516 3.827149 4.175604 6.226495 5.709808 5.316813 5.989880 6.620081 6.865987 6.811958 6.077886 5.805739 6.860709 7.519764 6.431970 5.359807 5.730984 6.279793 5.532114 4.389969 5.854906 6.189597 5.667666 4.909131 4.609120 5.531069 6.881369 6.279509 5.342217 4.779191 5.026337 5.299344 5.127810 5.476127 5.193308 4.460921 5.394646 4.392516 4.235809 4.414954 4.483116 4.233271 2.862860 2.483560 2.623824 2.647893 1.658558 1.761070 0.404524 -1.272568 -0.597096 0.882660 2.076649 1.935237 -0.342415 -0.154497 -0.746728 -0.804047 -0.389617 -0.096629 -0.061205 -0.677022 -0.807982 -1.029709 -1.958022 -2.095234 -2.528619 -2.542307 -2.734398 -2.504324 -2.960604 -3.186597 -3.220835 -3.242408 -3.789203 -4.083346 -4.486221 -4.599739 -3.087292 -2.848383 -3.877891 -4.465789 -3.472321 -4.062679 -4.362611 -4.171641 -4.373350 -4.156337 -3.796686 -4.088225 -4.251386 -4.242565 -2.513468 -3.369473 -3.203208 -2.419675 -2.545414 -2.027187 -2.993506 -3.218171 -1.315551 -1.481768 -0.900417 -1.534194 -3.091804 -2.561212 -2.366693 -2.643143 -1.658810 -2.265673 -1.449019 -1.714689 -2.288380 -2.993690 -2.362876 -2.103620 -1.557701 -0.944470 -1.306601 -1.659015 -2.851667 -2.303433 -1.803875 -1.700590 -0.865729 -1.390822 -1.748790 -1.813794 -2.915517 -1.882885 -2.603886 -3.108187 -3.810034 -3.517608 -2.421534 -1.929740 -3.190578 -3.686203 -2.517768 -2.598006 -2.873203 -2.174377 -1.809659 -0.997571 -1.162379 -1.704364 -1.074598 -0.901246 -0.565444 -0.864074 -0.077115 0.165701 0.479399 -0.438414 -0.949536 0.364191 0.380173 0.095147 0.593702 0.100724 0.700754 -0.365396 -0.829652 0.075112 -0.425302 -1.250501 -0.687967 -0.446730 -0.345464 -1.329560 -1.191066 0.006254 -0.791028 -0.781409 -0.889479 -0.526277 -0.657905 -0.138083 0.585621 -0.026026 -0.463250 -0.912393 -1.558559 -1.030105 -0.426686 0.501270 0.432235 -1.672882 -0.214623 -0.584624 -0.586316 -0.603945 -0.530903 0.170260 0.393173 -0.226563 -0.150151 -1.011924 1.219267 -0.356977 0.012082 -0.347169 -0.895877 0.521159 0.590237 0.113422 0.568771 -0.366086 -1.055555 -1.164913 -0.331926 -0.340313 -0.363843 1.048470 -0.297360 -0.299505 -1.037708 0.016070 0.079759 -0.336908 1.301393 2.464409 2.399368 1.968665 0.568147 1.356797 1.902403 3.440543 4.664033 2.903869 1.927396 1.844991 2.074945 3.666503 3.923306 4.496945 4.125729 3.549814 4.609255 5.269390 6.808394 6.544083 6.609873 6.082778 5.600898 5.433881 6.833147 7.097627 7.166711 5.811891 5.729170 6.750873 6.045913 5.032332 3.702353 4.668814 6.173899 6.418773 4.121022 4.281274 4.602566 4.074351 3.927202 3.334490 2.122252 3.623567 4.009121 3.563537 1.613724 2.274146 1.889770 1.700104 1.200093 -0.070698 -0.064892 0.710097 0.947132 0.342423 -0.192826 -0.931451 -1.862663 -2.700312 -1.740540 -0.451927 0.451533 -0.104191 -1.156645 -2.538088 -1.011821 -0.182916 -1.234493 -1.899594 -1.592145 -1.365784 -2.264873 -3.667792 -2.719136 -2.940151 -4.045345 -4.494835 -4.624961 -3.991743 -3.420109 -2.848390 -3.588976 -3.130708 -2.381544 -1.944830 -2.102726 -1.107266 -0.112215 -1.023803 -1.118264 -0.050701 0.489617 -0.005046 0.013923 0.025265 -0.120691 0.334604 0.696427 0.288619 0.990552 0.863542 0.281729 -0.037352 -0.053804 0.271925 0.713613 0.670649 1.874434 1.662621 0.791133 1.377294 1.363898 0.972100 2.553938 2.699303 3.179119 3.158273 2.401991 3.800879 2.702327 3.258985 3.665225 3.197369 4.016842 2.787997 2.782354 1.954745 1.014016 2.381501 1.921224 2.675429 3.506011 2.348921 2.763445 1.878213 1.284699 1.534203 1.835090 2.208019 1.156791 0.742059 1.434450 1.545398 2.118567 1.847642 1.328197 0.774518 1.774700 2.685361 2.069623 1.484778 0.700832 0.423183 1.526382 0.749023 1.372133 1.096559 0.618321 0.314817 -0.150323 -0.456622 1.617567 1.315695 0.678135 -0.124069 -1.072774 -0.354383 -0.059452 0.920487 -0.160259 0.119965 -0.126761 -0.152246 -0.138929 -0.483455 0.352504 0.660574 -0.167254 0.277616 -0.827245 0.513397 0.214944 0.102111 1.111221 0.045695 -0.329488 0.872807 1.416834 1.836514 0.915865 0.722778 -0.055554 0.492228 1.175831 1.129793 0.309055 -0.385796 0.159847 -0.044671 -1.053660 -0.709325 -1.712339 -2.900248 -2.320586 -1.495322 -0.748330 -2.102786 -2.456593 -2.400162 -4.230372 -4.201473 -2.704027 -2.807241 -3.458234 -4.286246 -3.846720 -3.458391 -3.033361 -3.078517 -3.108495 -3.540902 -4.770642 -4.570342 -3.728721 -4.837636 -3.463489 -4.095246 -4.837280 -4.795953 -6.119754 -5.496907 -4.527814 -3.360755 -2.567178 -3.681388 -4.444061 -3.799121 -3.667761 -3.520701 -4.618463 -4.170282 -3.755739 -3.575864 -2.972520 -4.058584 -3.436580 -3.153921 -3.265571 -2.680710 -2.156781 -1.598347 -2.130861 -2.588208 -1.774420 -0.863343 -0.483153 0.627020 0.191040 -0.728314 -0.654338 0.258156 -0.161356 -0.257780 0.863706 1.898838 1.377010 0.899947 0.566776 0.860023 0.578524 2.823622 2.920379 2.710701 2.229965 1.316812 0.906624 0.741385 0.740802 1.411021 1.042243 0.682060 2.658487 1.991224 1.846059 1.326438 1.090486 1.275802 1.515024 0.580382 1.585570 1.209567 0.639386 0.398322 0.832718 0.777759 -0.473719 -0.571543 1.190454 1.114411 1.230557 0.034336 0.693019 0.924630 0.594257 0.891415 0.316249 0.600377 1.503952 2.135693 0.806268 0.897111 1.088243 1.050789 1.225560 0.496983 0.280732 0.800261 1.273534 1.665830 1.383804 -0.394458 -0.465580 0.060922 0.789964 1.671975 0.944962 1.045377 0.180630 0.783309 0.061253 0.437567 1.179547 1.019094 1.510059 1.027175 -0.546778 0.996117 2.903611 3.247432 1.733842 2.223822 2.712606 2.887158 3.547012 4.567962 3.886749 3.770818 4.556844 4.677489 4.531563 3.315987 3.481557 3.997262 2.499805 1.237617 2.389807 2.920623 2.113423 1.283011 2.338336 2.023427 0.929767 1.840599 2.154811 2.002324 1.775924 0.362091 0.038244 -0.233948 1.316307 1.612863 1.394697 0.335722 1.009361 1.357479 0.178491 0.421396 -0.349547 -0.475873 0.899175 -0.983545 -0.732652 -1.167887 -1.091038 -1.015629 -1.664745 -2.049858 -1.639028 -1.000432 -1.236586 -0.559680 -1.803522 -2.704458 -1.847394 -1.642026 -1.401238 -1.060998 -1.692402 -1.788036 -0.774076 -0.641706 -0.645489 -1.207498 0.349144 0.415342 -1.406063 -1.936541 -2.501206 -3.920853 -2.991804 -2.850297 -3.160477 -3.841935 -4.430001 -5.972585 -4.896012 -5.228506 -3.782545 -3.636708 -3.187652 -3.640670 -5.404743 -4.561642 -2.884892 -1.333265 -1.227865 -2.553306 -0.672450 0.470404 -0.274875 0.878140 1.648934 2.820269 2.740339 2.968588 3.191891 3.095134 2.606857 1.927241 2.252400 1.238645 1.485438 -1.174445 -0.219547 0.489566 0.260691 1.650964 1.250837 1.183581 -0.023175 2.074443 3.999366 3.098001 2.358906 3.095011 5.827677 5.766450 5.567915 6.309243 4.787671 5.702728 9.465933 7.718967 7.330561 6.890274 7.400941 8.386632 9.066069 8.626317 8.864048 9.987404 11.001424 10.141423 10.946924 11.218140 10.868998 11.874538 13.674857 12.721211 11.177255 11.890823 14.094727 14.963671 11.800285 12.714360 13.025734 11.319003 12.039444 10.397475 10.122156 10.572632 8.754303 8.333381 7.649686 6.732845 5.952160 6.294092 6.093795 6.200949 3.650175 1.630030 3.157181 2.566146 3.567523 3.913100 2.665056 3.178585 2.620578 2.227566 0.737149 0.897117 0.467496 -0.511670 -1.711510 -3.373838 -4.769656 -4.494125 -3.973115 -5.159769 -6.313481 -6.004798 -6.296653 -5.191574 -5.324869 -5.546484 -4.183033 -4.361042 -5.512181 -5.235978 -5.556664 -6.075332 -5.303282 -6.323586 -6.407345 -7.084276 -7.239571 -6.777523 -5.264117 -4.427539 -4.894886 -5.654599 -5.510036 -4.346031 -2.979796 -3.871148 -3.180407 -2.740618 -4.549728 -4.023965 -3.467710 -3.301488 -1.388269 -2.218584 -1.975672 -2.678766 -3.872500 -1.619334 -0.099932 -0.998774 -1.565333 -1.392545 -0.706228 0.107347 0.379241 -0.555107 -0.331576 -0.653867 -0.740590 0.631854 1.494630 1.156348 -0.447123 -1.728326 -0.947062 0.162053 -0.810489 -2.272124 -1.787569 0.245937 0.352673 -0.759852 -0.420183 0.266104 1.368603 2.030337 2.333387 1.555673 0.979380 1.165213 0.157765 0.664564 -0.257124 1.618580 2.250511 1.338735 -0.143139 -0.445812 0.490583 0.963736 1.485761 2.313900 -0.129756 0.932880 0.753580 0.381118 -0.476679 -0.939979 -0.368820 0.009817 -0.245975 0.284312 -0.912683 -1.474124 -0.797529 -0.247747 0.505044 0.130019 -0.321988 -0.724321 -0.547287 0.568960 1.460345 2.258362 1.346446 0.803921 0.046888 0.893960 1.944023 1.192678 0.739301 0.926543 1.550709 0.726414 1.047319 2.461920 2.832832 2.463731 2.199723 2.023944 2.722461 2.422002 3.364908 3.313414 2.701737 2.617352 2.554157 1.512247 1.040717 3.212631 4.475928 5.331171 4.013098 3.669330 3.575857 4.503993 3.996472 4.465344 4.896472 4.586836 3.606089 3.078696 1.736060 2.507434 3.379321 3.627635 2.810541 2.170481 2.182172 3.041783 3.946224 3.253540 3.238381 4.137548 3.318694 2.970103 2.938199 3.002014 3.704285 3.564537 2.878649 3.114495 2.625521 1.297269 1.379430 1.562654 2.667581 1.845565 0.675255 0.085490 0.187944 1.687145 1.123474 0.929265 1.856230 2.501926 2.599037 1.740061 2.935026 3.984125 4.017172 4.262240 4.258564 3.342462 3.386154 4.310613 4.138934 4.868167 5.175472 4.438618 3.752000 3.955902 4.650709 5.430083 6.140217 5.228776 4.589303 4.059166 3.843851 5.337011 5.115248 5.176497 4.130830 3.140601 3.408631 1.588198 1.909929 2.953116 3.228852 3.901400 3.507852 1.223341 0.393643 1.210185 2.570407 2.979260 3.009446 3.448832 1.850642 1.457624 2.169824 1.345115 1.687304 2.272518 2.931178 1.966228 -0.918709 -0.538601 1.293611 -0.523457 -0.610110 -2.258030 -1.141816 -1.710964 -2.674238 -1.584931 -2.787793 -1.161356 -1.006800 -3.012457 -2.305750 -1.798377 -1.016735 -0.306437 -0.452890 -1.321926 -1.915123 -0.652828 -0.296373 -0.985278 -1.458813 -1.007375 -1.797149 0.337203 -0.628404 -0.659429 -1.669723 0.094800 1.071698 0.420614 -0.022571 -0.145082 -0.061867 0.252064 0.569594 -0.053837 -1.654998 -2.027552 -1.089339 -0.492867 -0.806902 -1.118924 -0.653718 -1.465873 -1.243485 -0.660721 -1.011680 -2.347128 -1.384560 -1.769848 -1.315746 -1.071869 -2.590193 -3.605075 -3.458294 -3.123406 -1.097282 -1.849959 -2.639311 -3.238641 -4.211177 -4.600331 -4.733573 -4.312787 -3.071699 -3.213435 -3.057177 -4.726041 -4.283995 -3.751003 -4.221591 -4.606415 -3.847337 -3.395457 -2.424303 -2.919602 -5.013556 -5.155643 -4.669513 -4.947703 -4.407284 -4.045542 -3.386375 -3.975952 -5.161353 -5.690716 -3.919081 -2.231930 -3.562663 -3.846634 -3.629608 -2.901501 -2.861004 -2.700396 -1.551469 -1.838853 -1.606009 -2.223996 -2.011260 -2.500613 -1.991505 -1.231454 -2.662135 -1.688384 -1.604092 -3.213307 -1.797378 -2.369405 -1.973671 -1.029228 -1.133759 -1.215517 -2.226601 -3.057578 -2.269668 -2.113622 -2.226133 -3.107192 -2.677333 -2.332842 -1.301221 -1.872514 -1.181663 -1.399264 -1.092150 -0.319968 -0.077880 -1.608954 -1.288971 -0.912861 -0.887022 -0.026733 -0.409874 -1.347634 -0.957779 -1.316319 -1.017228 -1.510231 -0.761341 -0.692098 -0.743174 -0.054649 -1.015048 -0.889143 -2.218314 -2.323255 -1.083357 -2.298812 -1.780269 -1.115071 -1.858638 -1.466719 -2.059092 -0.783144 -0.942298 -2.067419 -3.055291 -1.846878 0.147717 3.386100 2.063554 -0.348870 -1.181277 0.502828 1.023888 1.573762 2.177044 0.972234 1.487480 0.845972 0.859035 1.543020 1.317933 0.622465 1.298693 2.381647 2.919825 2.738393 3.832370 2.833943 1.779254 1.742125 2.703453 4.407159 3.452505 3.024608 2.040277 2.929323 3.565625 3.326731 1.857756 1.525080 2.410476 4.428032 5.019583 3.096841 2.051151 2.274287 4.359635 3.479584 3.958424 4.807308 4.438595 3.957525 4.157237 3.017030 4.275567 6.047891 4.428396 5.028380 5.571559 3.893389 4.198792 3.573272 4.298668 5.247571 4.744275 4.816000 4.521919 5.510730 4.742814 4.687752 4.171701 3.736205 5.119303 5.350717 5.168083 5.490098 4.719590 4.191568 4.050569 4.343150 4.145386 3.764537 3.496511 4.997784 4.352308 2.926557 2.626170 3.197916 2.651950 2.163825 3.186339 3.701511 2.824732 2.860761 3.667877 3.096718 2.070462 2.555568 4.292305 5.511004 3.852482 3.517967 3.330558 3.793323 5.046962 4.782098 5.179894 5.295800 4.551219 4.105966 4.462190 3.304371 3.696092 5.145828 4.846233 4.367699 3.326190 3.068917 4.085994 4.354051 4.702104 3.553901 4.489725 4.824166 3.397120 4.131755 2.864303 3.313032 5.548741 4.827714 4.549651 4.699114 3.316551 2.630774 4.076494 6.347756 6.434656 4.376103 3.556717 4.391907 4.324171 3.793311 4.812302 5.161470 3.695366 4.000329 4.457478 3.484085 4.089502 6.228434 5.067438 4.019289 3.880402 4.249179 5.222980 6.352995 6.354755 5.427487 3.056317 3.664191 4.100190 5.056146 6.629137 6.073917 3.746311 2.727615 4.042063 4.744864 4.567078 4.960408 3.792819 4.170951 2.776733 2.615352 3.153771 5.031834 5.615500 3.946815 3.823818 2.676839 3.364022 4.979956 4.066670 4.232990 3.232859 2.681340 3.400147 2.761879 1.576534 1.992196 0.519029 1.997490 2.247262 2.738242 1.037013 0.104544 0.614167 -0.166532 -0.606642 -0.637073 -0.000622 -0.841815 0.045099 0.430286 -1.098869 -1.497398 -0.754776 -0.477493 0.173123 -0.944025 -1.384644 -1.139652 -2.326151 -1.179274 -1.130379 -0.609217 -0.020253 -1.412120 -1.556259 -1.247019 -0.418109 -1.325885 -0.746427 -0.557383 -0.030435 -0.784148 -2.649334 -1.921794 -1.290003 -1.288402 -0.001668 0.091136 -1.502612 -2.444179 -0.661225 -0.407409 0.896510 1.520354 0.341080 -1.707561 0.149982 1.515498 2.253572 2.296182 1.516775 0.295224 0.338105 1.975535 1.432852 -0.229641 0.249490 0.465851 0.939734 1.418793 0.993044 0.304310 -1.170392 0.308691 1.068750 1.908270 2.351973 1.401014 0.019352 -0.512901 -1.880606 -1.160092 -0.898225 -0.231826 -0.869346 -2.017094 -2.344494 -2.338133 -1.558059 -1.945858 -0.697919 -0.278338 -0.111107 -0.725281 -1.329338 0.124590 0.807157 0.920229 1.620564 0.587960 1.421811 0.957829 0.718262 1.130445 1.463992 2.365075 2.439041 1.079193 2.281857 0.846279 0.627553 1.733214 0.782629 0.985782 0.722268 0.937866 0.184080 1.303580 2.008413 2.351217 0.559539 -0.401053 0.669211 1.122343 1.247309 0.490244 0.689254 1.468275 0.808141 -0.354152 -0.251739 0.217151 -0.079279 0.828040 0.701162 1.366146 -0.046873 -1.040200 -0.161015 -0.464339 0.046556 0.200350 -1.236530 -0.691592 0.565449 0.116377 -0.267953 -2.127096 -2.726534 -1.939500 -1.823475 -1.230396 -1.585908 -2.306245 -2.542896 -2.688079 -2.314420 -1.432922 -1.559776 -1.662921 -0.518179 -2.192366 -1.973382 -2.581815 -3.123941 -3.028892 -2.994271 -3.453634 -4.121371 -3.565851 -3.047720 -4.281257 -4.167788 -3.232395 -2.105250 -2.270432 -3.008896 -3.608208 -4.377680 -3.978635 -3.025605 -1.826813 -3.396099 -3.586495 -3.782364 -3.347431 -2.638167 -2.432230 -1.565441 -1.281096 -2.437732 -2.635675 -2.573826 -2.335827 -1.756740 -2.296454 -1.649236 -1.990286 -1.885166 -3.662341 -3.477784 -1.582942 -2.107405 -2.599884 -1.781858 -2.602232 -1.892252 -3.243893 -3.667772 -2.369097 -2.125699 -1.949226 -1.597586 -1.641321 -2.008740 -1.704492 -1.592943 -3.634799 -1.223177 -1.424502 -1.613895 -0.556338 -0.025365 -0.599839 -2.330026 -2.573054 -1.740095 -1.124839 0.347194 0.581795 -1.009481 -1.406348 -1.102714 -0.583000 -0.157758 -0.536543 -0.690743 -2.000311 -1.004485 0.893163 1.196620 0.500693 -2.754956 -2.714789 -1.780110 -1.999758 -0.320510 -1.446902 -2.647634 -3.272243 -3.667123 -2.024666 -3.201619 -1.656937 -0.544089 -1.819708 -1.404360 -1.646388 -2.493874 -2.685428 -2.235300 -0.108104 0.137534 -1.521009 -2.195011 -2.856531 -2.157173 -1.372765 -0.537197 0.290760 0.100785 -1.224618 -1.583346 -1.309757 0.811249 1.189059 0.390985 0.023965 0.979020 0.514122 0.913521 0.823488 1.849578 0.561161 0.888592 0.935939 1.240366 0.821746 -1.199380 -0.843250 0.664685 0.898390 1.452418 0.136446 0.199857 0.521490 0.282294 0.733960 0.896740 0.840103 0.710333 0.984898 0.623328 -0.917751 -0.961942 -0.718280 -1.848071 -1.344289 -1.750994 -2.289865 -3.278601 -3.305200 -2.460920 -2.417837 -3.113152 -2.722184 -1.977494 -2.697091 -2.992680 -2.744389 -2.614941 -3.754496 -3.263440 -3.424723 -2.829535 -2.718438 -2.916778 -2.915648 -2.894228 -3.776651 -3.794258 -5.326562 -3.068910 -2.083253 -2.529699 -2.374613 -3.152102 -3.314786 -3.454835 -3.200661 -1.289089 -1.429417 -1.198814 -1.665506 -3.267137 -3.659886 -1.901410 -2.192407 -2.154573 -1.753668 -2.333233 -0.971770 -1.323613 -2.000063 -2.365392 -2.570040 -2.207424 -1.050501 -1.436541 -1.406973 -1.767038 -1.951909 -1.812072 -1.526470 -2.361700 -0.862857 -0.165141 -0.069030 -0.151185 0.335679 -0.438144 -0.132949 0.333809 1.343746 1.025160 -0.427459 -0.381136 -0.183318 1.411519 -0.142797 -0.765987 -0.751681 -2.097502 -0.816799 -0.587328 -0.361916 -0.295782 -0.207910 -0.306271 -0.390227 -0.699907 -0.457676 -0.941558 0.635646 0.099193 -0.578972 -0.914140 -0.502133 -0.829542 -1.543262 -0.040923 0.794179 0.630101 0.158849 -1.116147 -0.202720 0.484594 0.746984 2.061954 0.511477 0.174839 0.934821 1.329332 1.212796 2.129851 3.784335 3.838196 2.489719 2.430208 4.523796 3.369821 3.289772 4.288737 4.323727 5.180713 4.884706 3.011172 3.559950 3.931794 4.394435 3.457298 5.102382 5.299095 4.730090 4.689795 5.529645 4.813754 4.029246 2.928575 3.926525 5.273516 4.317779 5.127774 5.334833 4.943068 3.980083 2.808792 3.038201 3.384352 3.946390 4.086610 4.503801 3.671277 3.455292 2.522443 2.969859 2.509079 2.985172 3.964705 4.762895 4.692095 2.770333 1.856076 2.590035 3.538655 2.327847 2.655374 3.342794 3.737853 2.037437 1.493004 2.230132 1.396481 0.984035 1.777630 1.758032 2.450890 1.888842 -0.134533 0.309514 0.241384 0.887443 1.913201 2.031512 1.263835 0.702224 0.716418 -0.008730 0.252290 0.656030 0.516444 1.347674 -0.238819 -0.605011 -0.465492 0.060893 -0.007329 -0.794381 -0.465418 -0.867278 -0.740617 -0.357450 -1.037515 -0.273604 -1.144797 -2.214896 -2.903889 -3.208402 -2.621582 -1.511308 -1.409275 -1.795325 -1.713469 -3.172376 -2.941899 -1.528199 -0.797489 -1.132296 -0.394983 0.504563 -0.493405 -1.003649 -2.342435 -1.674157 -1.085785 0.046125 0.432518 1.055079 -0.053988 -0.508514 0.411658 0.289447 0.907986 3.234169 2.825092 1.726537 2.421349 1.318114 1.959449 2.590215 3.952357 3.294571 2.446047 1.920051 2.440913 2.772556 3.095333 3.044232 2.306670 1.740349 2.895761 3.394366 3.480428 2.270458 2.366722 2.734352 4.059533 3.660097 2.695260 2.307017 2.783030 2.455274 1.775107 2.541591 2.788440 2.947658 3.084238 3.709647 1.229783 1.915548 4.192108 3.346590 4.406592 3.234602 2.901084 2.500988 1.568067 4.124022 4.336264 3.154498 2.861634 1.432663 2.388509 3.584530 2.867553 1.897036 1.749171 1.198746 2.619462 2.066915 2.748213 1.243566 1.408859 0.961000 1.872602 2.528312 3.698038 2.800716 1.681423 1.978483 1.992575 1.386578 1.976036 2.043008 2.352820 0.922303 0.784806 0.949456 2.529013 1.028742 1.334278 0.700889 0.274943 2.090164 2.356123 0.975117 0.304394 2.209753 2.257517 2.329269 2.772592 1.787033 1.302268 0.900342 1.125071 1.882472 2.785151 2.394934 1.088568 1.694071 -0.587072 0.768902 1.505723 2.054146 1.659905 0.976782 1.480619 1.688304 0.502430 1.067645 1.261842 1.899011 1.477549 2.952236 0.820100 0.630352 0.043551 0.973035 2.173520 1.067310 0.957427 1.476302 -0.318715 -0.159499 0.745470 1.852559 0.849779 -0.465483 -0.045925 0.700687 -0.283314 -0.035311 0.729514 1.329396 2.501704 0.764898 0.094419 1.506828 0.017351 0.120227 2.187953 2.206390 0.899723 -0.571878 -0.166188 0.110469 0.619304 0.069711 0.706898 0.299669 0.520936 -0.250869 -1.169769 -0.735317 -1.135100 -0.326122 -0.537471 -0.596283 -0.645910 -1.515643 -1.001587 -0.521644 -1.432795 -1.722501 -1.748210 -1.139949 -1.086707 -0.170062 -2.167338 -1.724842 -1.607850 -2.171557 -3.282751 -2.567622 -0.895003 -1.284503 -2.438103 -3.344920 -3.833735 -3.804860 -4.727009 -5.005609 -4.185275 -3.708604 -2.785476 -4.384074 -5.822778 -6.010103 -5.084043 -5.351945 -4.433522 -4.086742 -3.434818 -4.632807 -5.781536 -5.213224 -4.759877 -4.467548 -3.640307 -1.658654 -2.206081 -2.922685 -2.630555 -2.112195 -2.166494 -1.974005 -2.171707 -1.328864 -1.193430 -1.383316 -2.732939 -2.261938 -2.334397 -3.066968 -3.133073 -1.323082 -1.899322 -2.106848 -0.747542 -2.497544 -2.891083 -2.956514 -2.194792 -1.209234 -1.237506 -0.140094 -1.209331 -2.501925 -2.402852 -2.036746 -1.010552 -0.105035 -0.542145 -1.090616 -2.010991 -0.993276 -0.234035 -0.609923 1.058548 1.165978 0.348109 1.467356 0.584030 1.456855 2.693587 2.596306 3.064020 4.259974 4.926333 3.881469 3.050373 3.432331 3.767939 3.976029 4.076980 5.559400 5.712769 5.290211 5.911516 4.709053 2.708305 3.689477 5.932630 5.968452 6.974114 5.406941 3.547201 3.003095 2.803100 3.796108 4.593981 4.609198 5.308776 4.027197 3.522576 3.750488 2.941177 3.518987 3.882731 4.457681 4.979767 4.754652 4.044028 2.516929 2.839725 1.723590 3.541885 2.152009 2.509562 2.715064 3.278136 2.477386 1.219807 0.126077 1.111330 1.237607 1.780496 2.378849 2.112117 0.422959 -0.286228 -0.630470 -0.579298 1.863538 2.213910 2.267506 0.318787 0.118710 0.800432 1.787935 2.603172 2.647334 1.835510 1.377322 1.382130 1.634118 1.137660 0.831154 1.245311 1.248398 1.635315 0.578951 -0.585265 -0.242285 0.657955 1.640888 1.810959 2.262958 1.211448 0.123137 0.923728 1.681908 1.930875 1.831232 0.426835 0.223820 -1.001552 -0.933023 -0.130513 0.394585 0.928388 0.174372 -0.123769 0.093998 -0.724261 -0.651821 -0.340458 -0.879322 -1.424874 -2.505427 -1.964924 -1.991422 -1.241567 -3.292565 -3.844857 -3.476673 -4.494680 -5.328725 -4.989490 -4.366861 -4.783357 -6.044524 -5.945084 -6.013159 -7.339233 -7.630406 -6.791625 -8.307382 -9.292248 -7.755525 -7.868493 -8.635953 -9.664494 -8.197248 -9.901827 -10.926485 -9.294604 -8.684823 -7.663062 -7.997706 -9.995960 -10.212189 -9.371815 -8.594324 -8.398809 -9.105474 -8.996305 -8.563991 -7.725498 -8.341666 -8.730985 -9.203161 -9.322687 -8.502708 -8.710755 -8.471383 -8.648351 -8.405052 -8.237104 -8.225019 -7.962916 -8.365208 -7.771227 -8.407154 -8.751084 -8.110479 -7.421308 -6.756139 -7.965705 -7.402268 -7.490301 -7.618304 -7.160356 -6.227668 -4.568999 -4.716449 -4.876625 -4.664023 -6.833807 -5.709042 -6.334512 -5.121791 -3.418516 -4.644647 -5.503103 -5.372745 -4.294575 -4.793931 -5.501998 -4.048798 -4.154336 -3.918961 -3.592576 -2.435349 -3.297632 -3.929984 -2.986123 -3.584545 -4.443877 -2.174631 -1.082041 -0.685433 -1.874088 -2.271205 -2.106542 -3.001551 -2.214718 -2.247096 -1.556037 -0.328997 -0.856382 -3.048523 -2.196492 -1.200253 -0.782932 -0.389344 0.500055 0.704669 1.117612 1.144810 1.363471 0.382354 0.093627 1.499475 2.660017 2.812901 1.936768 -0.307033 0.025390 1.302252 1.425492 1.273711 2.120690 2.269526 1.379632 1.312949 1.185543 1.106193 0.637165 2.373058 4.265379 2.690435 3.450331 2.994299 3.390239 2.906836 2.465778 2.728087 3.686853 2.318820 3.015723 2.096778 0.637770 1.787814 1.930395 1.886151 0.521556 2.979340 1.996947 0.926795 1.781592 1.030241 2.214260 2.815351 2.454889 2.017636 1.082178 1.128973 1.222123 2.614271 2.037743 0.610657 1.285404 1.074975 1.401686 1.073282 -0.252668 0.896298 1.981337 1.822800 1.588419 0.930804 0.156792 0.509096 -0.079744 -0.889314 -0.296204 0.331302 0.738034 -1.256128 -1.551398 -2.004078 -1.033545 -0.778602 -0.141217 1.232035 0.218541 0.272235 -0.426794 -0.519254 -0.823857 0.253321 0.872734 1.146581 0.997787 0.157092 -0.185460 0.607980 1.248760 0.974162 2.020021 3.125874 2.688549 2.498651 3.360418 3.281056 4.425297 4.656024 4.166339 3.305340 3.653193 3.433651 3.139262 4.221620 4.441750 4.018441 3.177209 4.827308 4.523965 4.867925 4.304260 4.090195 3.539146 3.860559 5.396074 4.446080 4.171196 3.467791 3.069451 2.511364 2.428724 2.031592 1.539320 1.194684 2.085402 0.972396 1.352957 1.599216 1.523336 -0.220969 0.470650 0.062067 0.199303 -0.207769 0.659115 0.160759 -0.601362 -1.328610 -1.014788 -3.187068 -3.522411 -2.649452 -2.621840 -1.860072 -2.411692 -2.954170 -3.895763 -4.073681 -2.353145 -3.365857 -5.102675 -5.086394 -3.935757 -3.723368 -3.369886 -3.869907 -4.539866 -6.609734 -6.372677 -6.185029 -5.711811 -5.049622 -5.854901 -6.001853 -6.843782 -7.775065 -7.881258 -6.514234 -6.451175 -6.201025 -7.268649 -7.303162 -6.595691 -6.213486 -7.708454 -7.216076 -7.419195 -7.797920 -6.610282 -6.051273 -6.837073 -6.824737 -7.080425 -6.487813 -7.264109 -5.588749 -4.134986 -5.212836 -5.629387 -6.177045 -6.881440 -7.624589 -5.805316 -5.637074 -7.040007 -7.785136 -8.128172 -9.587716 -8.933882 -8.246293 -8.380484 -8.788013 -8.989016 -8.453771 -8.892745 -9.499397 -8.900295 -8.639468 -8.011808 -8.362238 -8.575539 -8.082236 -7.940264 -7.731827 -7.522762 -6.753543 -8.292275 -8.939432 -7.517458 -6.974715 -5.825658 -6.629335 -6.556391 -6.531145 -5.781584 -6.105812 -5.580458 -4.455476 -3.651052 -3.909701 -4.553721 -4.660331 -4.075808 -2.413837 -2.177805 -1.061156 -0.049523 -0.402917 -1.426308 -0.674342 0.829075 0.775830 0.832219 0.349666 -0.194688 0.044905 -0.321901 0.744572 0.421953 -0.019238 1.107660 -0.753470 -0.866270 0.086558 1.070947 1.943436 2.633005 2.986096 2.185366 2.784766 1.945177 2.990300 3.291985 3.778712 2.731230 1.263976 0.811789 -0.236159 -0.639753 -0.895196 -0.123707 -0.830976 -1.027503 -2.164123 -2.770103 -0.859614 -0.540241 -1.074285 -2.522024 -3.079069 -1.995055 -0.937072 0.164684 -2.235960 -3.660183 -3.288185 -1.697617 -1.941702 -1.700818 -1.033614 -3.186704 -2.162912 -1.039161 -0.672833 -1.308405 -0.897306 -1.011881 -1.972046 -0.655746 0.635676 0.166480 -2.644932 -2.988136 -2.196962 -0.868292 -0.856856 -1.810930 -0.720498 -2.395502 -1.700080 -0.040535 -0.584715 -0.960579 -1.001897 -1.261402 -2.179807 -1.799521 -2.145756 -2.269937 -1.218924 -0.989612 -0.609301 -2.882216 -3.541986 -2.646675 -3.291951 -2.801244 -1.542981 -3.346263 -4.814116 -5.229332 -5.815271 -5.012924 -4.032405 -4.366663 -5.638658 -5.526300 -6.379617 -4.922296 -5.126163 -6.051508 -5.907444 -6.599899 -6.265898 -4.989685 -5.691583 -5.110035 -6.715939 -6.031490 -4.749864 -4.279267 -4.511596 -3.031552 -2.822721 -3.048226 -3.902703 -3.868770 -3.043622 -3.400994 -3.388067 -4.165203 -4.224235 -5.036225 -4.886275 -6.469050 -6.184020 -4.723449 -4.478750 -6.318067 -7.089846 -5.860874 -4.320541 -3.557152 -4.306814 -4.156897 -3.584809 -3.139251 -3.612716 -2.886406 -3.187035 -3.069959 -3.969072 -4.307589 -2.018403 -3.938238 -4.984185 -4.399508 -4.878980 -5.236823 -4.610545 -4.084271 -4.482411 -5.996259 -5.092646 -5.220214 -3.640185 -3.905123 -3.746127 -4.695755 -5.255899 -3.694679 -2.959498 -2.689033 -2.752048 -4.110385 -5.260123 -4.783266 -3.606833 -3.326673 -4.775074 -4.975059 -5.180191 -6.612243 -7.498401 -7.017519 -6.414906 -5.428815 -5.784660 -6.788917 -7.925461 -8.814475 -8.050093 -9.208810 -8.612563 -7.921158 -8.964949 -9.692360 -8.823717 -9.642988 -10.855214 -10.245922 -9.684617 -10.951071 -10.876150 -9.405901 -9.874686 -11.059319 -10.041325 -10.164592 -11.126401 -11.124008 -8.959264 -7.666544 -9.330966 -9.224923 -8.296664 -9.261930 -7.565171 -7.436919 -6.525870 -6.311265 -6.912629 -8.012522 -6.648410 -6.217798 -6.361156 -6.266776 -5.074859 -5.427823 -6.402654 -7.470007 -5.959832 -4.027825 -4.634909 -4.307723 -3.575510 -4.730214 -5.078269 -4.447557 -3.276196 -2.500863 -1.708654 -2.573601 -3.246895 -2.647708 -2.694699 -3.144958 -1.322022 0.045012 0.654589 0.231448 -0.375448 -0.376448 -1.241783 -0.404685 -0.288251 -0.003261 0.425783 0.110377 -0.209466 -0.484035 -1.028837 0.130203 0.292927 0.989359 1.351260 0.755529 1.791328 1.719112 1.183874 1.703168 0.197245 0.167060 1.464091 1.938077 2.371925 2.204252 0.343929 -1.074887 -0.514537 -0.357643 0.110663 0.095270 1.404749 0.799769 0.163210 -1.411944 -0.730446 0.141724 -1.900408 -0.114054 1.198879 1.011855 -0.037604 -0.976859 -0.457634 -0.401373 0.134554 0.641621 1.715593 1.348593 0.973378 0.561758 -0.668850 1.407799 1.287552 1.586012 1.677977 1.955243 0.890823 1.517839 1.906218 1.249170 0.451538 -0.320994 0.621109 1.404278 1.464607 0.607161 -0.078560 0.349844 0.670871 0.513164 0.041799 0.397797 1.069436 1.245540 0.123707 -1.024662 -0.310261 -0.598705 -0.748896 0.521521 0.172676 0.118263 -0.413352 -0.357535 -0.128232 0.581638 -0.625363 1.078598 2.010431 2.491859 2.118354 0.813918 1.814656 1.793201 2.086468 3.106574 2.060384 1.914181 1.776412 1.824827 2.437167 0.737847 0.050998 1.044526 0.243115 1.570491 2.137524 1.996913 1.665088 1.639176 1.574039 0.996457 1.783228 4.101415 3.526705 2.920815 2.823578 3.913252 3.250985 2.547106 1.650574 2.278266 3.714351 3.520982 3.852671 2.511229 1.011624 1.298293 2.543080 2.657463 2.301626 2.677028 3.776391 3.450797 2.867350 2.986668 1.914231 2.175950 2.142928 2.699556 3.844808 2.000086 2.132004 2.351465 1.758184 2.284855 2.162649 2.234727 2.680309 2.925442 3.087421 2.359379 2.752786 2.416993 1.587590 1.517361 3.336311 3.915807 4.313245 3.357071 3.490450 2.603016 2.485179 3.756773 4.877883 5.619786 3.723800 3.384667 3.522581 3.537265 3.858408 4.081064 3.471212 2.831213 3.267838 2.996617 2.083247 2.936867 3.888691 3.357765 2.452489 2.340073 2.962514 4.394994 2.200042 1.836048 0.680771 -0.684511 1.330992 0.987052 1.431054 -0.230674 -0.678126 0.059894 -0.244278 -1.073909 -1.329955 -1.333194 -0.216045 -0.493837 -0.767252 -1.144387 -2.197448 -2.515444 -1.733542 -2.438450 -2.976754 -4.452099 -2.701883 -3.246279 -2.749785 -3.636220 -3.188512 -4.093650 -3.862547 -5.595426 -5.714252 -4.398343 -2.874453 -3.279887 -2.640969 -4.296800 -5.763950 -6.356404 -4.585958 -4.226165 -3.396884 -3.857458 -4.047697 -4.335917 -4.320583 -5.139471 -4.692490 -4.214488 -4.661077 -4.959400 -3.838220 -4.204299 -3.581934 -3.793528 -3.901294 -3.873541 -3.666086 -4.410175 -5.253397 -3.039822 -2.162403 -2.436473 -1.428356 -2.273346 -2.223251 -2.912873 -1.960212 -1.737247 -0.729344 -0.797484 -0.680549 -0.168747 -1.262952 -0.011321 -0.868443 -0.743561 -0.905837 -0.481149 0.435924 -0.090587 -0.436412 -1.826668 -1.415382 -1.525139 -1.774957 -1.812545 -0.984515 -0.361146 