9.223109 9.053515 8.884113 8.714928 8.545987 8.377316 8.208942 8.040891 7.873189 7.466292 8.251071 7.598856 6.509680 7.195070 7.783472 7.239187 7.574095 7.128765 7.035767 4.564524 4.701564 5.446949 6.649283 6.765717 5.980644 4.594078 3.515952 1.848154 3.826437 4.745786 5.427751 3.849031 2.658890 1.838302 2.637630 1.678252 0.558224 1.575000 1.893518 0.910727 1.479012 0.080218 -1.022296 -2.545032 -2.107672 -1.419320 -0.772028 -2.796525 -3.568815 -4.557812 -4.092037 -5.097735 -4.815882 -5.082549 -5.336134 -5.223938 -4.662628 -5.565257 -6.464311 -6.141425 -5.015888 -3.878353 -3.561613 -3.691259 -4.049421 -3.900989 -3.461886 -3.952385 -2.979033 -2.893940 -2.461648 -1.937444 -2.642116 -3.817188 -4.241423 -3.850556 -3.933775 -3.348667 -2.897152 -2.782841 -2.893292 -3.654689 -3.643106 -3.126784 -3.662120 -3.480171 -2.810619 -2.996141 -2.104038 -2.840513 -4.285226 -4.829255 -4.614641 -3.903382 -2.737453 -2.656016 -3.065467 -3.530312 -4.064898 -4.545146 -3.768597 -4.233614 -2.976838 -2.970885 -2.192037 -3.550341 -4.528039 -4.763627 -4.247071 -3.908824 -3.715591 -4.198410 -4.156818 -4.005871 -3.074674 -4.096518 -5.598083 -6.078629 -5.032556 -5.197637 -5.121762 -5.739761 -6.201256 -5.754175 -6.847841 -6.560380 -6.823800 -6.256178 -8.543705 -7.942491 -6.173189 -6.566473 -8.621009 -7.177328 -7.406806 -7.094841 -7.786644 -8.607611 -9.958210 -8.752177 -8.062722 -7.147404 -7.101166 -8.430071 -8.980475 -9.655701 -10.188262 -9.552837 -9.420872 -8.785492 -8.602364 -9.123024 -10.356261 -10.736925 -10.778855 -10.217711 -10.028451 -9.870621 -10.156354 -9.762217 -9.615008 -8.971155 -9.336432 -9.469057 -8.851362 -8.723364 -8.130916 -8.226372 -8.997669 -9.423348 -8.108183 -7.555011 -7.424321 -8.456643 -8.903394 -9.650970 -9.448769 -8.005597 -7.825387 -7.776747 -7.958242 -8.702597 -8.475667 -7.252542 -6.617863 -6.939746 -6.656475 -6.932909 -6.914441 -5.573412 -5.229328 -4.332563 -5.150602 -6.780206 -5.672460 -4.978382 -2.966825 -1.557536 -2.517782 -2.924925 -3.741219 -3.591337 -2.162764 -1.844624 -1.423167 -0.926085 -1.655255 -2.130870 -3.501603 -2.680072 -2.534305 -3.030899 -1.794167 -1.118440 -1.360923 -1.610382 -2.255927 -2.251122 -2.450665 -2.237320 -0.778403 -1.461890 -1.104849 0.056497 -0.524653 -0.564484 -2.003789 -1.197414 -0.857466 -0.518673 0.559148 0.481308 -0.322803 0.002293 -1.509949 -1.414748 -0.019625 -0.136382 -1.235804 -1.468295 -1.318009 -2.443562 -1.540724 -0.754260 -1.262935 -2.119978 -1.603132 -1.090052 -1.983726 -1.891330 -1.973802 -1.007772 -1.207514 -1.379093 -2.341722 -2.728207 -2.319046 -1.722594 -1.754229 -1.834358 -2.131961 -2.165672 -2.660892 -2.176148 -2.951371 -3.427665 -2.531678 -1.353503 -1.213885 -2.085012 -2.646696 -3.105742 -2.458362 -1.686572 -1.262655 -1.478446 -0.587038 -0.797054 -1.506852 -1.313671 -0.696478 -0.941261 -1.066747 -1.644315 -1.275455 -0.067775 1.071011 0.665614 0.096669 -0.616762 -0.378646 0.133932 -0.408159 -1.402548 -0.255618 0.825313 0.382527 0.019337 -0.154149 -0.035434 0.210462 0.159970 0.459097 0.624895 0.675678 0.742549 3.479650 2.929957 1.592916 0.812795 0.749347 -0.095390 1.570995 2.958641 2.846069 2.658967 2.682545 2.786336 2.390614 1.434201 1.577328 2.504163 2.968150 4.127114 3.521297 2.211836 1.466037 2.120179 3.462781 4.145958 2.989595 2.937640 3.044010 3.426477 3.046343 3.967660 3.224341 4.949107 4.010940 3.560919 3.828901 5.017642 3.307154 3.061648 4.064145 5.701454 4.566521 4.914755 4.533989 4.507739 5.019550 5.875708 5.679071 6.581692 5.275722 6.004311 5.790251 6.436064 6.074388 5.172965 6.334063 6.151246 5.538699 4.850799 4.463876 5.136086 5.438776 6.494630 6.382231 5.744493 5.660280 4.746080 5.217703 5.244355 6.348225 7.996200 6.510013 5.902137 5.843639 7.929196 6.995681 6.113287 4.796108 5.214627 7.165393 7.635201 6.849692 6.172980 4.976395 5.678174 5.111303 6.211483 6.895887 6.182495 6.215105 6.893008 6.006872 6.835554 7.208858 7.703897 7.755820 7.180937 7.103314 7.367567 7.433058 8.254744 7.758384 7.259043 6.426319 6.678298 7.646430 7.468295 7.615170 6.521350 5.875669 5.971483 5.576147 6.576169 7.560323 6.900981 7.526671 6.510795 6.262415 6.571111 6.972518 8.044628 8.423086 8.716261 7.251452 6.145413 6.205722 6.602904 6.742491 5.376958 4.803511 4.722050 3.156448 5.295717 5.796753 6.026748 4.212428 3.741329 3.390649 3.102446 4.588968 5.306429 3.866006 3.498381 3.007286 2.651038 3.429426 3.926446 5.475583 5.294582 3.846490 2.909461 3.631445 6.163472 6.410797 4.853575 3.389845 2.853624 2.518964 5.348909 6.067567 4.550015 3.563173 2.548975 2.589677 2.593940 1.766943 2.818551 1.036961 0.657286 1.275449 1.131531 2.047205 1.767053 1.410735 1.895552 0.974644 1.730037 1.845438 2.236219 2.513986 3.240472 3.462173 2.166252 1.294427 1.078875 2.357403 4.033504 4.287675 2.865608 2.468549 2.068245 1.782234 1.073536 2.621653 2.770030 2.223977 0.864473 0.375500 0.919825 0.881427 0.532727 1.807467 0.946104 1.519567 0.778342 -0.302482 0.755264 1.441932 2.158899 2.463650 1.898221 2.658801 2.478718 2.533042 1.904413 3.250161 5.016820 4.862534 3.149636 2.887445 1.489723 1.156247 1.711294 2.663354 2.537479 2.274054 2.901465 2.367723 1.141034 -0.459958 -0.755292 -0.087248 0.642442 1.705912 0.921667 -1.704408 -2.896386 -1.937775 -0.131877 0.513572 0.901222 -0.680304 -1.040388 -1.516648 -0.974205 -1.285294 -0.985352 -0.810110 -0.674446 -1.592431 -2.134268 -1.776532 -1.096929 -1.500074 -2.048241 -1.259949 0.724131 0.255839 -1.029483 0.732167 0.982498 -0.831039 -0.499447 0.207354 1.342064 2.129994 1.319130 0.511429 -0.096422 -0.009729 0.705608 1.398395 1.580691 0.215220 -0.160623 0.602932 1.136221 1.867976 -0.332214 0.061429 1.745250 2.127804 1.958908 1.854447 0.970890 -0.362655 -0.411227 0.336509 1.491011 0.558671 -0.944056 -1.316678 -1.071547 -1.126923 -0.693428 0.053313 -0.158581 -0.032609 0.360720 1.102325 0.140554 0.963299 1.634521 1.002405 1.372833 0.970328 0.702975 1.427911 0.158239 -0.790381 -1.390961 0.681988 2.087623 0.528095 1.150830 0.766031 -0.045419 -0.228003 0.294252 1.341351 1.798289 0.974107 0.991752 0.272106 -0.067894 -1.615152 -0.660495 0.954288 1.849587 1.821242 1.293748 0.061852 -0.067947 -0.193702 1.449458 1.711962 2.238344 2.378272 0.802929 -0.516944 -0.669801 0.260603 1.079437 0.725959 0.926636 -0.381098 -0.107158 0.043713 -1.224179 -0.449433 0.061710 0.703714 2.144761 0.544152 1.444879 1.309398 1.570728 2.160668 3.059621 3.477796 3.843991 2.783539 2.954701 3.290821 2.414497 3.544061 5.602316 6.016318 5.482080 5.309562 5.505390 4.875986 5.387483 5.669338 7.289674 6.862635 5.610902 4.217186 4.962034 5.521893 6.006198 6.676975 6.260325 4.708244 6.001774 5.967485 6.041809 7.122938 6.349790 5.857152 6.224538 5.721266 5.932566 4.495651 4.888281 5.673337 5.359296 6.363710 5.499796 4.742650 4.915731 4.959612 6.192938 6.511519 5.789940 4.935909 3.781827 3.671096 4.971078 6.017521 5.429232 4.560335 2.986200 3.122902 4.450404 5.032545 5.773808 5.132296 3.932851 3.770714 3.856443 3.175357 4.380886 4.995189 4.762332 4.394506 2.225583 2.683210 4.213113 4.601044 4.985634 4.987476 3.977330 3.028054 3.325772 2.380967 2.322073 2.929762 3.283407 2.774008 1.614183 0.628736 -0.058210 0.846265 0.568760 1.170231 0.955156 1.267130 1.322053 0.201007 -0.543498 0.612910 0.762247 0.227544 0.188490 0.848041 -0.725945 -1.729291 -2.599696 -0.979705 -0.666447 -0.837562 -0.892532 -1.298678 -2.489676 -3.345096 -2.210130 0.651788 -0.291946 -0.852095 -1.754085 -1.415248 -2.306843 -1.311117 -1.352962 -1.246147 -1.401252 -1.748012 -2.383147 -2.117191 -2.122816 -2.269910 -2.182687 -1.366927 -1.051586 0.782975 0.301616 -0.012647 -0.296892 -1.456719 -0.560137 1.203993 1.179955 1.396298 0.141312 -0.442708 0.915990 1.587729 1.469860 2.522401 2.351978 1.977812 1.367364 2.911305 3.114294 3.199203 2.561866 1.496872 0.710945 0.886111 2.338043 2.498542 0.451330 -0.558347 -0.861809 -1.112419 -0.113034 1.372815 2.303232 1.026212 1.141972 1.424113 0.809182 0.404039 1.048094 0.044582 1.460502 1.258388 1.702356 2.333872 0.126805 -1.046944 -0.985213 -1.204753 -0.457456 -0.276783 1.305247 1.083561 0.593753 -0.593219 -0.422186 -0.005741 -0.242319 1.735040 0.993503 1.642101 0.579310 0.935084 0.447113 -0.059924 0.425536 1.660420 3.328729 3.439896 2.195420 1.631909 0.940391 2.208265 3.541185 2.291025 1.092151 2.562632 2.344215 1.905218 2.557493 1.769275 1.216710 2.547799 3.065615 3.568125 4.358377 5.239924 3.777647 4.863494 5.549688 4.969022 5.933130 5.071562 5.475181 5.970717 5.282923 6.293785 6.182929 5.941725 4.519967 3.450301 3.760448 5.650523 7.182158 6.466259 6.123078 4.930414 4.547891 4.812580 6.660200 6.411737 7.621710 8.309380 6.951452 7.566225 8.651651 8.914836 7.822472 8.313201 9.835785 10.209400 11.241952 11.504793 11.010347 11.353146 9.919745 9.392245 10.588490 10.097578 10.313999 10.547535 9.989593 9.326976 7.838170 6.882951 7.029367 7.557406 8.472339 9.613432 9.655033 8.635247 8.301814 7.490142 7.128259 8.653240 9.443708 10.101407 9.822391 7.934657 7.278064 7.767375 7.833370 6.937248 8.276856 9.195109 9.145163 7.684724 6.699175 7.677955 6.694944 5.997878 6.738607 7.713740 8.713366 6.081433 5.554959 5.532382 5.408762 5.506110 5.649559 6.494415 7.711068 7.169452 6.951472 6.267404 6.859017 6.074574 7.360421 8.441404 9.040748 10.757357 9.039148 7.327501 7.388303 8.084339 9.613985 10.637644 10.251929 10.287951 9.974392 8.460185 9.205012 9.595575 9.595792 9.349790 10.056187 10.314610 9.282202 8.528691 8.568080 8.234683 9.788187 9.961600 9.335442 9.797774 9.505324 9.651263 7.727314 7.481570 9.081340 9.761703 10.441418 9.107582 9.081182 7.064100 8.296713 10.073448 9.956094 10.194953 10.089828 9.830569 9.473182 9.326917 9.301777 8.707607 8.617054 8.864963 9.693527 7.280884 6.744773 7.216569 7.083340 6.313634 6.311683 6.826783 6.876729 6.919380 6.137116 6.139302 6.011650 5.106949 4.779142 3.660298 4.310958 4.174595 4.269839 4.464746 4.889358 4.911912 4.039921 4.118697 3.172732 4.378472 5.741086 7.750162 7.856459 5.880505 5.519322 5.293458 4.596936 5.376441 6.032968 7.641574 6.925852 6.940926 5.115719 5.088391 6.036754 5.512635 6.561092 7.450496 6.942859 7.422026 6.286107 6.461276 5.161761 5.212273 6.243816 6.796840 6.732162 6.173409 5.855534 5.377450 5.015759 5.023980 4.826440 6.026117 6.372419 6.169239 7.460085 5.365148 5.345431 5.026431 5.327403 5.924920 5.663008 6.235785 5.363688 4.459814 3.764183 3.532276 4.219933 3.918377 4.532550 5.085583 3.924295 4.602667 3.877971 4.335038 3.870335 3.743119 4.306045 4.741247 5.244101 4.897300 3.711038 4.127472 3.342443 4.993848 5.326087 6.641441 6.465185 4.930971 4.881149 5.793455 5.435312 4.782688 5.111976 6.328668 5.220405 4.708903 3.453211 4.788812 5.684307 4.446116 4.714467 5.289567 4.588173 4.434811 4.523845 5.800480 7.311250 5.757111 5.459931 4.853224 4.942106 5.298356 6.616730 5.309230 5.011294 4.953082 3.856845 3.943289 5.567548 5.258242 6.760016 5.068125 4.050387 4.324242 4.202166 4.926076 5.545097 5.547509 5.326634 4.962856 5.112024 5.983655 7.223700 7.657303 5.314131 4.155874 4.767330 5.015722 5.888488 5.515490 4.847363 3.954692 2.245687 3.449897 2.763060 3.576167 3.910347 3.874521 3.658423 2.339644 2.196875 3.097861 3.713726 3.801827 3.609314 4.389553 3.604897 6.023728 5.362778 5.274427 5.948905 4.711323 5.622772 6.372084 5.801265 7.186028 6.151590 5.478571 4.791806 5.937591 6.758883 5.531748 5.076726 4.769857 4.664046 5.639298 5.734607 4.371243 3.062053 2.693246 2.637788 2.883919 2.625542 1.876953 0.640661 -0.402744 0.734512 0.182417 -0.205885 -0.708534 -1.745343 -1.973232 -1.708115 -0.839419 0.026809 -1.425248 -3.133709 -2.610165 -2.317429 -1.115043 -0.663443 -2.722691 -3.590749 -1.188484 -0.141745 -2.155617 -3.959556 -4.449497 -2.895771 -1.915738 -2.753960 -3.052454 -3.784696 -5.234710 -3.193301 -3.676312 -3.735286 -3.498969 -4.430345 -2.707248 -3.036723 -2.739054 -3.276434 -3.526244 -3.442861 -2.866536 -1.654934 -2.365650 -3.277660 -2.671372 -1.954738 -1.062480 -2.006026 -2.667592 -3.253617 -2.406850 -2.155160 -1.411694 -2.208667 -2.649186 -3.485167 -5.234531 -3.442693 -3.194073 -4.600091 -4.108360 -4.828703 -5.857036 -6.308851 -6.362644 -5.717402 -5.661449 -5.878199 -6.859466 -8.226166 -7.584095 -7.168172 -5.802952 -6.975232 -7.585871 -8.350782 -7.994409 -8.121507 -7.001151 -6.344505 -6.886264 -8.082904 -7.795077 -6.123099 -6.082176 -6.428792 -7.039717 -6.999320 -6.467951 -6.079012 -5.622273 -5.182626 -5.715330 -6.365432 -7.744743 -6.318319 -5.168870 -4.631520 -6.392036 -6.560755 -5.816318 -5.095315 -5.309125 -6.066523 -6.822759 -5.783804 -5.335658 -3.492396 -4.034511 -5.355571 -4.981986 -4.414634 -4.934723 -3.579580 -1.755758 -3.004692 -4.561811 -4.318867 -2.814697 -1.488668 -2.942047 -3.928657 -3.980273 -3.676521 -2.486826 -2.312034 -2.007764 -2.923669 -3.618388 -3.384549 -3.645462 -4.141667 -5.194571 -4.096578 -3.932101 -3.200770 -3.845048 -4.133335 -4.667322 -3.962276 -3.347473 -3.759601 -2.420401 -2.571667 -2.711594 -1.298344 -1.577786 -1.710249 -3.302451 -2.021601 -1.976093 -2.002623 -2.716961 -2.397841 -0.779182 -0.652521 -2.420979 -2.521223 -2.231409 -1.868403 -1.092665 -0.649417 -1.639777 -1.294306 -1.251207 -1.282201 -1.479006 -1.259689 0.118070 -0.084787 -0.741290 0.656896 -0.766554 -0.083799 -0.331684 -0.678954 0.699459 1.211099 0.570382 -0.036061 -0.053808 0.006269 -0.516334 1.566757 1.249096 0.483460 -0.193021 -1.261640 1.104941 2.392305 2.075055 2.099079 1.421365 1.065901 1.098413 2.127978 2.770143 1.844912 2.546112 1.577432 3.187407 2.339424 1.504135 3.231938 3.591920 3.454639 2.760035 3.108381 5.159314 4.642846 4.250274 4.923995 5.555110 5.802217 5.749702 5.017484 4.747554 5.805126 6.467184 5.382808 4.314484 4.689923 5.243413 4.500826 3.364168 4.834967 5.175871 4.660476 3.908767 3.615837 4.545085 5.902864 5.308625 4.379055 3.823813 4.078768 4.359570 4.195783 4.551764 4.276495 3.551515 4.492479 3.497396 3.347523 3.533274 3.607796 3.364056 1.999486 1.625756 1.771315 1.800403 0.815812 0.922796 -0.429546 -2.102696 -1.423535 0.059663 1.256857 1.118429 -1.156453 -0.965964 -1.555810 -1.610918 -1.194437 -0.899544 -0.862348 -1.476512 -1.605925 -1.826199 -2.753138 -2.889046 -3.321181 -3.333666 -3.524587 -3.293367 -3.748515 -3.973382 -4.006487 -4.026911 -4.572530 -4.865453 -5.267050 -5.379214 -3.865314 -3.624834 -4.652626 -5.238639 -4.243090 -4.831144 -5.128523 -4.934722 -5.133298 -4.912826 -4.549367 -4.836729 -4.995326 -4.981537 -3.247056 -4.097252 -3.924744 -3.134532 -3.253153 -2.727369 -3.685699 -3.901946 -1.990491 -2.147467 -1.556482 -2.180247 -3.727485 -3.186178 -2.980624 -3.245738 -2.249790 -2.844783 -2.016026 -2.269384 -2.830577 -3.523227 -2.879614 -2.607444 -2.048518 -1.422207 -1.771209 -2.110465 -3.289949 -2.728556 -2.215867 -2.099495 -1.251607 -1.763749 -2.108855 -2.161099 -3.250177 -2.205025 -2.913642 -3.405703 -4.095462 -3.791108 -2.683272 -2.179886 -3.429309 -3.913699 -2.734212 -2.803583 -3.068100 -2.358783 -1.983764 -1.161563 -1.316448 -1.848698 -1.209384 -1.026669 -0.681690 -0.971324 -0.175551 0.075901 0.398055 -0.511483 -1.014509 0.307132 0.330843 0.053361 0.559270 0.073452 0.680447 -0.378941 -0.836638 0.074477 -0.419797 -1.239070 -0.670827 -0.424098 -0.317560 -1.296602 -1.153273 0.048663 -0.744217 -0.730410 -0.834501 -0.467526 -0.595582 -0.072381 0.654513 0.045873 -0.388519 -0.834997 -1.478656 -0.947847 -0.342215 0.587819 0.520738 -1.582541 -0.122550 -0.490918 -0.491066 -0.507232 -0.432797 0.269693 0.493879 -0.124631 -0.047033 -0.907652 1.324667 -0.250467 0.119691 -0.238468 -0.786083 0.632052 0.702239 0.226547 0.683041 -0.250647 -0.938920 -1.047049 -0.212796 -0.219877 -0.242055 1.171659 -0.172711 -0.173334 -0.909945 0.145502 0.210945 -0.203874 1.436378 2.601453 2.538588 2.110187 0.712103 1.503326 2.051648 3.592654 4.819161 3.062166 2.089015 2.010083 2.243656 3.838975 4.099672 4.677331 4.310251 3.738578 4.802355 5.466909 7.010402 6.750638 6.821019 6.298549 5.821313 5.658950 7.062866 7.331984 7.405684 6.055448 5.977271 7.003472 6.302956 5.293760 3.968104 4.938820 6.448092 6.697080 4.403369 4.567589 4.892773 4.368379 4.224977 3.635943 2.427315 3.932175 4.321210 3.879048 1.932600 2.596334 2.215221 2.028772 1.531936 0.264282 0.273191 1.051254 1.291334 0.689647 0.157401 -0.578237 -1.506476 -2.341161 -1.378433 -0.086868 0.819542 0.266770 -0.782730 -2.161210 -0.631971 0.199920 -0.848652 -1.510725 -1.200218 -0.970763 -1.866715 -3.266446 -2.314544 -2.532247 -3.634055 -4.080078 -4.206647 -3.569776 -2.994387 -2.418806 -3.155417 -2.693058 -1.939687 -1.498651 -1.652110 -0.652103 0.347600 -0.559238 -0.648859 0.423625 0.968934 0.479321 0.503388 0.519863 0.379064 0.839527 1.206518 0.803863 1.510927 1.389013 0.812251 0.498167 0.486650 0.817243 1.263718 1.225460 2.433861 2.226572 1.359514 1.950006 1.940844 1.553178 3.139049 3.288347 3.771998 3.754889 3.002251 4.404691 3.309602 3.869638 4.279174 3.814536 4.637154 3.411383 3.408750 2.584088 1.646251 3.016576 2.559091 3.316045 4.149336 2.994919 3.412086 2.529469 1.938547 2.190621 2.494061 2.869527 1.820825 1.408610 2.103511 2.216967 2.792646 2.524237 2.007319 1.456185 2.458936 3.372198 2.759098 2.176939 1.395733 1.120888 2.226960 1.452551 2.078697 1.806250 1.331234 1.031054 0.569340 0.266570 2.344390 2.046250 1.412518 0.614232 -0.330472 0.391994 0.691066 1.675199 0.598690 0.883183 0.640746 0.619555 0.637162 0.296909 1.137111 1.449385 0.625709 1.074671 -0.026168 1.318416 1.023820 0.914751 1.927527 0.865563 0.493833 1.699471 2.246726 2.669520 1.751869 1.561663 0.786095 1.336524 2.022661 1.979045 1.160618 0.467971 1.015713 0.813192 -0.193899 0.152240 -0.849061 -2.035346 -1.454143 -0.627419 0.120958 -1.232187 -1.584752 -1.527144 -3.356240 -3.326285 -1.827841 -1.930108 -2.580204 -3.407368 -2.967038 -2.577946 -2.152194 -2.196663 -2.225988 -2.657770 -3.886909 -3.686025 -2.843832 -3.952180 -2.577463 -3.208642 -3.950080 -3.908131 -5.231277 -4.607736 -3.637900 -2.470045 -1.675611 -2.788899 -3.550579 -2.904572 -2.772068 -2.623785 -3.720242 -3.270676 -2.854668 -2.673248 -2.068283 -3.152650 -2.528881 -2.244390 -2.354146 -1.767337 -1.241409 -0.680934 -1.211369 -1.666608 -0.850690 0.062532 0.444876 1.557201 1.123366 0.206142 0.282225 1.196797 0.779325 0.684897 1.808328 2.845349 2.325344 1.850035 1.518543 1.813389 1.533402 3.779921 3.878004 3.669552 3.189940 2.277803 1.868520 1.704073 1.704165 2.374942 2.006601 1.646731 3.623346 2.956146 2.810916 2.291101 2.054826 2.239688 2.478326 1.542968 2.547307 2.170325 1.599032 1.356723 1.789740 1.733266 0.480132 0.380503 2.140538 2.062364 2.176193 0.977452 1.633394 1.862020 1.528395 1.822011 1.242989 1.522923 2.421940 3.048739 1.713966 1.799034 1.983949 1.939818 2.107442 1.371237 1.146867 1.657786 2.121953 2.504650 2.212533 0.423695 0.341523 0.856508 1.573580 2.443184 1.703342 1.790523 0.912156 1.500851 0.764466 1.126129 1.853156 1.677474 2.152952 1.654348 0.064462 1.591236 3.482442 3.809827 2.279674 2.752985 3.225011 3.382735 4.025707 5.029738 4.331585 4.198706 4.967788 5.071508 4.908684 3.676249 3.825010 4.323960 2.809815 1.531014 2.666697 3.181146 2.357757 1.511373 2.550985 2.220665 1.111942 2.008104 2.308087 2.141861 1.902258 0.475807 0.139973 -0.143530 1.396135 1.682860 1.455660 0.388478 1.054765 1.396407 0.211835 0.450056 -0.324677 -0.453929 0.919019 -0.965017 -0.714700 -1.149819 -1.072211 -0.995452 -1.642676 -2.025407 -1.611758 -0.969954 -1.202559 -0.521810 -1.761559 -2.658194 -1.796660 -1.586689 -1.341199 -0.996187 -1.622778 -1.713582 -0.694796 -0.557621 -0.556640 -1.113936 0.447356 0.518132 -1.298775 -1.824838 -2.385175 -3.800583 -2.867384 -2.721816 -3.028022 -3.705590 -4.289847 -5.828699 -4.748468 -5.077374 -3.627888 -3.478587 -3.026122 -3.475783 -5.236546 -4.390179 -2.710205 -1.155391 -1.046839 -2.369163 -0.485223 0.660684 -0.081572 1.074434 1.848192 3.022466 2.945455 3.176610 3.402817 3.308971 2.823629 2.146985 2.475171 1.464515 1.714498 -0.942087 0.016236 0.728918 0.503771 1.897944 1.501899 1.438915 0.236619 2.338883 4.268627 3.372245 2.638272 3.379612 6.117596 6.061737 5.868588 6.615292 5.099054 6.019368 9.787717 8.045746 7.662150 7.226452 7.741454 8.731192 9.414358 8.977986 9.218725 10.344691 11.360903 10.502659 11.309465 11.581525 11.232754 12.238188 14.037920 13.083205 11.537700 12.249242 14.450651 15.316637 12.149843 13.060069 13.367167 11.655747 12.371101 10.723665 10.442514 10.886810 9.061973 8.634231 7.943424 7.019197 6.230869 6.564921 6.356524 6.455377 3.896116 1.867317 3.385663 2.785687 3.778004 4.114416 2.857115 3.361312 2.793910 2.391459 0.891573 1.042062 0.602973 -0.385625 -1.594838 -3.266451 -4.671438 -4.404929 -3.892762 -5.088050 -6.250155 -5.949593 -6.249267 -5.151677 -5.292105 -5.520475 -4.163383 -4.347339 -5.504007 -5.232911 -5.558287 -6.081236 -5.313072 -6.336886 -6.423803 -7.103565 -7.261396 -6.801619 -5.290255 -4.455525 -4.924559 -5.685835 -5.542745 -4.380154 -3.015309 -3.908054 -3.218736 -2.780429 -4.591106 -4.067015 -3.512558 -3.348276 -1.437155 -2.269734 -2.029263 -2.734979 -3.931518 -1.681342 -0.165113 -1.067308 -1.637394 -1.468298 -0.785830 0.023755 0.291532 -0.647042 -0.427828 -0.754508 -0.845673 0.522295 1.380582 1.037817 -0.570109 -1.855722 -1.078801 0.026057 -0.950637 -2.416300 -1.935630 0.094152 0.197340 -0.918538 -0.582009 0.101363 1.201192 1.860515 2.161432 1.381883 0.804074 0.988733 -0.019519 0.486874 -0.434795 1.441387 2.074286 1.164003 -0.315821 -0.615854 0.323804 0.800874 1.327500 2.160950 -0.276658 0.792787 0.621074 0.256997 -0.591604 -1.044883 -0.462872 -0.072573 -0.315950 0.227487 -0.955642 -1.502518 -0.810684 -0.245012 0.524295 0.166382 -0.267944 -0.652057 -0.456298 0.679151 1.590180 2.408251 1.516766 0.995016 0.259068 1.127505 2.199179 1.469660 1.038291 1.247695 1.894146 1.092232 1.435585 2.872674 3.266088 2.919478 2.677928 2.524549 3.245386 2.967148 3.932155 3.902624 3.312752 3.250000 3.208247 2.187576 1.737064 3.929764 5.213602 6.089127 4.791067 4.467031 4.392999 5.340277 4.851586 5.338971 5.788283 5.496498 4.533262 4.023040 2.697240 3.485132 4.373242 4.637517 3.836167 3.211691 3.238866 4.113936 5.033885 4.356844 4.357545 5.272876 4.470575 4.139008 4.124683 4.206717 4.927922 4.807894 4.142569 4.399874 3.933294 2.628401 2.734907 2.943471 4.074735 3.280040 2.138018 1.577481 1.710065 3.240257 2.708387 2.546732 3.506946 4.186519 4.318066 3.494013 4.724314 5.809086 5.878066 6.159252 6.191799 5.311952 5.391854 6.352405 6.216630 6.981511 7.324140 6.622224 5.970097 6.207988 6.936226 7.748427 8.490735 7.610773 7.002045 6.501883 6.315742 7.837244 7.642966 7.730814 6.710829 5.745331 6.037098 4.239361 4.582691 5.646314 5.941257 6.631704 6.254668 3.985198 3.168987 3.997375 5.367722 5.784902 5.821542 6.265448 4.669793 4.277293 4.987974 4.159716 4.496348 5.074044 5.723287 4.747106 1.849227 2.214795 4.031001 2.196600 2.091436 0.423983 1.519797 0.929543 -0.055386 1.011871 -0.213283 1.390761 1.522960 -0.504890 0.179907 0.665760 1.426371 2.116212 1.949954 1.061828 0.450311 1.695101 2.034898 1.330208 0.841776 1.279212 0.476330 2.598460 1.621505 1.579984 0.560025 2.315690 3.284506 2.626082 2.176264 2.047790 2.125670 2.434856 2.748190 2.121069 0.516683 0.141329 1.077128 1.671533 1.355738 1.042229 1.506186 0.692986 0.914497 1.496519 1.144921 -0.191097 0.770936 0.385107 0.838616 1.081794 -0.437396 -1.453381 -1.308019 -0.974949 1.048868 0.293302 -0.499621 -1.103298 -2.081057 -2.476401 -2.616892 -2.204496 -0.973012 -1.125629 -0.981573 -2.663986 -2.236847 -1.720103 -2.208248 -2.611885 -1.872805 -1.442017 -0.492946 -1.011201 -3.128853 -3.295243 -2.833878 -3.137146 -2.621967 -2.285483 -1.651441 -2.265873 -3.475723 -4.029003 -2.280634 -0.615988 -1.968367 -2.273037 -2.075686 -1.366164 -1.343105 -1.198745 -0.064843 -0.366004 -0.145674 -0.774911 -0.572160 -1.070248 -0.568643 0.185111 -1.250693 -0.280927 -0.199525 -1.810580 -0.395490 -0.967405 -0.570663 0.375630 0.273736 0.195345 -0.811696 -1.638009 -0.844869 -0.683081 -0.789392 -1.663841 -1.227013 -0.875241 0.163926 -0.399599 0.299202 0.089691 0.404997 1.185431 1.435785 -0.087060 0.241056 0.625137 0.658711 1.526418 1.150287 0.219037 0.614801 0.261468 0.564964 0.075458 0.826841 0.897476 0.846602 1.534062 0.571263 0.693385 -0.640984 -0.752550 0.479305 -0.745579 -0.237802 0.415361 -0.341421 0.036206 -0.571422 0.688437 0.512494 -0.629975 -1.635610 -0.445227 1.531215 4.751464 3.410939 0.980826 0.131139 1.798494 2.303434 2.837919 3.426626 2.208131 2.710645 2.057413 2.059802 2.734198 2.500630 1.797803 2.467800 3.545648 4.079835 3.895508 4.987663 3.988458 2.933999 2.898072 3.861530 5.568248 4.617440 4.194175 3.215208 4.110300 4.753277 4.521632 3.060431 2.735999 3.630061 5.656653 6.257562 4.344455 3.308631 3.541821 5.637370 4.767629 5.256849 6.116145 5.757838 5.287122 5.497085 4.366967 5.635366 7.417251 5.806936 6.415627 6.966949 5.296260 5.608380 4.988714 5.719000 6.671731 6.171109 6.244268 5.950298 6.937827 6.167174 6.107865 5.586015 5.143137 6.517249 6.738062 6.543212 6.851409 6.065498 5.520522 5.361054 5.633700 5.414588 5.011040 4.719029 6.195106 5.523297 4.070156 3.741406 4.283899 3.707876 3.188978 4.180087 4.663312 3.754125 3.757371 4.531411 3.926963 2.867279 3.318894 5.022148 6.207438 4.515647 4.148063 3.927841 4.358103 5.579598 5.282997 5.649502 5.734601 4.959734 4.484745 4.811812 3.625439 3.989231 5.411681 5.085458 4.580969 3.514187 3.232331 4.225520 4.470388 4.795953 3.625964 4.540700 4.854748 3.408000 4.123617 2.837824 3.268879 5.487571 4.750173 4.456371 4.590713 3.193628 2.493912 3.926259 6.184694 6.259290 4.188940 3.358241 4.182582 4.104439 3.563595 4.573004 4.912974 3.438037 3.734514 4.183507 3.202272 3.800148 5.931824 4.763845 3.708975 3.563617 3.926166 4.893971 6.018215 6.014422 5.081814 2.705512 3.308456 3.739723 4.691143 6.259789 5.700416 3.368845 2.346368 3.657219 4.356607 4.175590 4.565871 3.395414 3.770856 2.374127 2.210413 2.746675 4.622756 5.204613 3.534292 3.409829 2.261552 2.947605 4.562574 3.648488 3.814167 2.813552 2.261705 2.980335 2.342040 1.156815 1.572744 0.099990 1.579007 1.829483 2.321314 0.621084 -0.310233 0.200696 -0.578539 -1.017024 -1.045665 -0.407255 -1.246319 -0.357103 0.030562 -1.495940 -1.891640 -1.146017 -0.865564 -0.211613 -1.325269 -1.762248 -1.513477 -2.696068 -1.545167 -1.492144 -0.966764 -0.373507 -1.761020 -1.900757 -1.587081 -0.753717 -1.657033 -1.073123 -0.879646 -0.348298 -1.097653 -2.958533 -2.226749 -1.590783 -1.585083 -0.294333 -0.197602 -1.787515 -2.725342 -0.938747 -0.681390 0.625969 1.253153 0.077117 -1.968386 -0.107802 1.260657 2.001578 2.046945 1.270207 0.051241 0.096625 1.736483 1.196154 -0.464054 0.017298 0.235820 0.711807 1.192917 0.769172 0.082398 -1.390385 0.090582 0.852491 1.693836 2.139336 1.190152 -0.189756 -0.720271 -2.086254 -1.364027 -1.100453 -0.432349 -1.068159 -2.214185 -2.539846 -2.531721 -1.749849 -2.135809 -0.885981 -0.464454 -0.295211 -0.907300 -1.509191 -0.053011 0.631903 0.747416 1.450293 0.420330 1.256925 0.795783 0.559150 0.974354 1.311004 2.215264 2.292471 0.935916 2.141916 0.709704 0.494362 1.603414 0.656214 0.862735 0.602560 0.821457 0.070919 1.193608 1.901559 2.247404 0.458682 -0.499046 0.573986 1.029783 1.157310 0.402696 0.604046 1.385294 0.727274 -0.433019 -0.328718 0.141949 -0.152815 0.756061 0.630636 1.296969 -0.114802 -1.106976 -0.226731 -0.529083 -0.017300 0.137301 -1.298847 -0.753251 0.504381 0.055837 -0.328025 -2.186755 -2.785832 -1.998484 -1.882189 -1.288879 -1.644196 -2.364372 -2.600892 -2.745973 -2.372235 -1.490680 -1.617494 -1.720611 -0.575849 -2.250017 -2.031009 -2.639406 -3.181476 -3.086343 -3.051604 -3.510804 -4.178326 -3.622531 -3.104058 -4.337179 -4.223213 -3.287236 -2.159419 -2.323838 -3.061446 -3.659811 -4.428248 -4.028085 -3.073858 -1.873800 -3.441759 -3.630775 -3.825224 -3.388841 -2.678109 -2.470698 -1.602441 -1.316647 -2.471863 -2.668428 -2.605253 -2.365990 -1.785711 -2.324313 -1.676073 -2.016197 -1.910251 -3.686708 -3.501546 -1.606213 -2.130304 -2.622530 -1.804374 -2.624738 -1.914872 -3.266747 -3.690980 -2.392778 -2.149967 -1.974194 -1.623365 -1.668017 -2.036455 -1.733323 -1.622984 -3.666138 -1.255900 -1.458688 -1.649620 -0.593674 -0.064378 -0.640592 -2.372579 -2.617459 -1.786404 -1.173099 0.296941 0.529509 -1.063836 -1.462806 -1.161304 -0.643749 -0.220688 -0.601671 -0.758083 -2.069871 -1.076264 0.819170 1.120427 0.422321 -2.835476 -2.797420 -1.864805 -2.086462 -0.409160 -1.537428 -2.739956 -3.366279 -3.762781 -2.121851 -3.300231 -1.756873 -0.645242 -1.921971 -1.507624 -1.750544 -2.598815 -2.791048 -2.341496 -0.214774 0.030485 -1.628343 -2.302544 -2.964180 -2.264864 -1.480425 -0.644764 0.183343 -0.006432 -1.331591 -1.690039 -1.416140 0.705199 1.083357 0.285642 -0.081017 0.874396 0.409846 0.809579 0.719858 1.746235 0.458074 0.785724 0.833252 1.137814 0.719281 -1.301807 -0.945696 0.562164 0.795733 1.349562 0.033329 0.096411 0.417648 0.177987 0.629118 0.791292 0.733978 0.603459 0.877204 0.514742 -1.027302 -1.072530 -0.829976 -1.960944 -1.458411 -1.866429 -2.406672 -3.396824 -3.424861 -2.582010 -2.540303 -3.236891 -2.847033 -2.103216 -2.823373 -3.119124 -2.870510 -2.740160 -3.878141 -3.384750 -3.542846 -2.943535 -2.827301 -3.019415 -3.010910 -2.980906 -3.853493 -3.859976 -5.379839 -3.108417 -2.107653 -2.537660 -2.364817 -3.123254 -3.265623 -3.384134 -3.107246 -1.171837 -1.287265 -1.030764 -1.470630 -3.044578 -3.408863 -1.621221 -1.882430 -1.814264 -1.382564 -1.930954 -0.538012 -0.858153 -1.502753 -1.836159 -2.008884 -1.614412 -0.425769 -0.780289 -0.719458 -1.048577 -1.202871 -1.032875 -0.717579 -1.523621 0.003864 0.729640 0.853199 0.797848 1.310840 0.562437 0.892304 1.382942 2.415917 2.119466 0.688013 0.754461 0.971281 2.583917 1.046110 0.438051 0.466022 -0.867684 0.423504 0.661753 0.894174 0.965495 1.056696 0.959790 0.875417 0.563471 0.801629 0.311932 1.881661 1.336172 0.647524 0.300553 0.699573 0.358141 -0.370489 1.116208 1.935090 1.754366 1.266195 -0.025849 0.870540 1.540957 1.786714 3.085430 1.519178 1.167340 1.912777 2.293470 2.163903 3.068764 4.711931 4.755381 3.397421 3.329364 5.415349 4.254708 4.168920 5.163054 5.194100 6.048000 5.749732 3.874727 4.422783 4.794612 5.257904 4.322037 5.968964 6.168045 5.601888 5.564873 6.408388 5.696504 4.916297 3.820181 4.822897 6.174824 5.224157 6.039319 6.251606 5.865097 4.907363 3.741281 3.975815 4.326959 4.893802 5.038576 5.459998 4.631301 4.418656 3.488564 3.938062 3.478591 3.955120 4.934122 5.730718 5.657174 3.731434 2.811900 3.539225 4.479819 3.259573 3.576252 4.251437 4.632918 2.917644 2.357151 3.077119 2.225316 1.793851 2.567693 2.527749 3.199810 2.616663 0.572033 0.994814 0.905548 1.530736 2.536017 2.634364 1.847350 1.267129 1.263533 0.521496 0.766597 1.155449 1.002054 1.820593 0.222556 -0.154014 -0.023697 0.494663 0.419587 -0.373161 -0.048758 -0.454066 -0.329774 0.052067 -0.628320 0.136229 -0.733411 -1.801092 -2.486850 -2.787363 -2.195829 -1.080181 -0.972164 -1.351671 -1.262764 -2.714162 -2.475766 -1.053785 -0.314474 -0.640405 0.106016 1.014867 0.026359 -0.474303 -1.803426 -1.125446 -0.527380 0.614161 1.010059 1.641929 0.541897 0.096046 1.024441 0.909907 1.535476 3.867941 3.464300 2.370235 3.068497 1.967583 2.610031 3.240633 4.601281 3.940637 3.087874 2.556263 3.070160 3.393534 3.706803 3.645039 2.895761 2.316785 3.458729 3.943188 4.014568 2.789526 2.870480 3.222706 4.532539 4.117949 3.138291 2.735687 3.197924 2.857084 2.164628 2.919711 3.156127 3.305949 3.434230 4.052485 1.566649 2.247653 4.520679 3.672866 4.731809 3.559990 3.227859 2.830345 1.901171 4.462007 4.680229 3.505498 3.220681 1.800722 2.766497 3.973311 3.267941 2.309792 2.175003 1.638310 3.073363 2.535706 3.232398 1.743600 1.925149 1.493909 2.422450 3.095377 4.282558 3.402895 2.301423 2.616425 2.648533 2.060572 2.668025 2.752886 3.080402 1.667323 1.546907 1.728185 3.323815 1.838959 2.159145 1.539538 1.126401 2.953360 3.229892 1.858204 1.195467 3.107408 3.160287 3.235639 3.681004 2.695899 2.209983 1.805291 2.025641 2.777064 3.672186 3.272864 1.955886 2.549316 0.254692 1.595837 2.316547 2.847648 2.434945 1.732298 2.215628 2.401905 1.193803 1.736051 1.906624 2.519594 2.073436 3.523010 1.365417 1.149944 0.537218 1.440646 2.615008 1.482669 1.346708 1.839609 0.018772 0.152369 1.031962 2.113958 1.086402 -0.253286 0.142221 0.865182 -0.142048 0.083167 0.825658 1.403673 2.554590 0.796877 0.105976 1.498454 -0.010466 0.073454 2.122705 2.123144 0.798948 -0.689722 -0.300651 -0.040176 0.452902 -0.112038 0.510196 0.088391 0.295438 -0.490250 -1.422718 -1.001542 -1.414333 -0.618118 -0.842013 -0.913177 -0.974987 -1.856761 -1.354628 -0.886516 -1.809429 -2.110850 -2.148251 -1.551682 -1.510151 -0.605257 -2.614341 -2.183727 -2.078681 -2.654363 -3.777518 -3.074296 -1.413489 -1.814661 -2.979754 -3.897870 -4.397796 -4.379847 -5.312742 -5.601909 -4.791965 -4.325512 -3.412430 -5.020906 -6.469320 -6.666186 -5.749501 -6.026613 -5.117236 -4.779338 -4.136133 -5.342680 -6.499808 -5.939735 -5.494471 -5.210069 -4.390601 -2.416569 -2.971467 -3.695394 -3.410441 -2.899115 -2.960308 -2.774577 -2.978902 -2.142550 -2.013475 -2.209591 -3.565315 -3.100284 -3.178582 -3.916859 -3.988535 -2.183976 -2.765508 -2.978179 -1.623871 -3.378721 -3.776951 -3.846917 -3.089570 -2.108227 -2.140553 -1.047036 -2.120012 -3.416193 -3.320561 -2.957758 -1.934737 -1.032275 -1.472332 -2.023655 -2.946801 -1.931789 -1.175197 -1.553697 0.112187 0.217041 -0.603409 0.513238 -0.372717 0.497436 1.731441 1.631367 2.096215 3.289218 3.952536 2.904532 2.070194 2.448800 2.780943 2.985453 3.082706 4.561309 4.710742 4.284128 4.901257 3.694502 1.689346 2.665997 4.904516 4.935598 5.936415 4.364297 2.499517 1.950278 1.745064 2.732768 3.525258 3.535018 4.229068 2.941895 2.431619 2.653818 1.838739 2.410733 2.768617 3.337664 3.853809 3.622717 2.906084 1.372949 1.689683 0.567467 2.379665 0.983683 1.335127 1.534525 2.091503 1.284679 0.021054 -1.078685 -0.099396 0.020971 0.558013 1.150589 0.878158 -0.816615 -1.531325 -1.880996 -1.835155 0.602448 0.947686 0.996243 -0.957423 -1.162361 -0.485420 0.497375 1.307965 1.347531 0.531154 0.068443 0.068747 0.316238 -0.184721 -0.495743 -0.086129 -0.087620 0.294672 -0.766373 -1.935332 -1.597165 -0.701816 0.276143 0.441152 0.887997 -0.168760 -1.262416 -0.467270 0.285366 0.528691 0.423306 -0.986929 -1.195878 -2.427279 -2.364869 -1.568567 -1.049762 -0.522332 -1.282798 -1.587461 -1.376283 -2.201195 -2.135468 -1.830872 -2.376552 -2.928967 -4.016424 -3.482861 -3.516333 -2.773480 -4.831504 -5.390843 -5.029721 -6.054805 -6.895936 -6.563795 -5.948263 -6.371858 -7.640119 -7.547766 -7.622915 -8.956044 -9.254248 -8.422465 -9.945182 -10.936961 -9.407094 -9.526855 -10.301037 -11.336219 -9.875525 -11.586561 -12.617572 -10.991936 -10.388286 -9.372538 -9.713076 -11.717104 -11.938991 -11.104157 -10.332097 -10.141910 -10.853807 -10.749781 -10.322534 -9.489040 -10.110153 -10.504372 -10.981418 -11.105793 -10.290655 -10.503547 -10.269033 -10.450886 -10.212507 -10.049522 -10.042454 -9.785428 -10.192863 -9.604099 -10.245319 -10.594625 -9.959481 -9.275858 -8.616326 -9.831618 -9.273997 -9.367936 -9.501932 -9.050065 -8.123541 -6.471118 -6.624894 -6.791472 -6.585344 -8.761670 -7.643510 -8.275644 -7.069644 -5.373140 -6.606089 -7.471405 -7.347945 -6.276708 -6.783025 -7.498079 -6.051887 -6.164452 -5.936118 -5.616785 -4.466616 -5.335963 -5.975378 -5.038581 -5.644058 -6.510438 -4.248226 -3.162650 -2.773033 -3.968647 -4.372686 -4.214900 -5.116732 -4.336661 -4.375731 -3.691288 -2.470776 -3.004596 -5.203071 -4.357266 -3.367138 -2.955808 -2.568087 -1.684424 -1.485416 -1.077942 -1.056080 -0.842616 -1.828796 -2.122450 -0.721396 0.434482 0.582828 -0.297720 -2.545818 -2.217579 -0.944795 -0.825530 -0.981193 -0.138007 0.007118 -0.886413 -0.956665 -1.087581 -1.170387 -1.642825 0.089698 1.978682 0.400426 1.157030 0.697719 1.090388 0.603717 0.159386 0.418414 1.373885 0.002539 0.696107 -0.226198 -1.688597 -0.541977 -0.402856 -0.450598 -1.818734 0.635468 -0.350553 -1.424379 -0.573305 -1.328428 -0.148232 0.448986 0.084599 -0.356631 -1.296118 -1.253405 -1.164388 0.223574 -0.357190 -1.788564 -1.118152 -1.332958 -1.010652 -1.343470 -2.673812 -1.529178 -0.448359 -0.610949 -0.849144 -1.510258 -2.287371 -1.937682 -2.528559 -3.339498 -2.746996 -2.119247 -1.711336 -3.703304 -3.995290 -4.443531 -3.467347 -3.205492 -2.559898 -1.177112 -2.179727 -2.113804 -2.799256 -2.876803 -3.165178 -2.070489 -1.432319 -1.138514 -1.266204 -2.084706 -2.404041 -1.586427 -0.920590 -1.169322 -0.096868 1.036233 0.626726 0.465136 1.355621 1.305306 2.478845 2.739044 2.278930 1.447528 1.824934 1.634834 1.369712 2.481101 2.729968 2.335049 1.521810 3.199457 2.923175 3.293669 2.755976 2.567286 2.040987 2.386492 3.945409 3.018090 2.765111 2.082790 1.704655 1.165830 1.101437 0.721460 0.245167 -0.084751 0.819337 -0.281735 0.109239 0.364308 0.295558 -1.443364 -0.748165 -1.155011 -1.017904 -1.426975 -0.563942 -1.067965 -1.837511 -2.573863 -2.270732 -4.455179 -4.804041 -3.945816 -3.934011 -3.188971 -3.758087 -4.318671 -5.278828 -5.475613 -3.774099 -4.805845 -6.561576 -6.563958 -5.431618 -5.237053 -4.900823 -5.417440 -6.103262 -8.188197 -7.965357 -7.791031 -7.330210 -6.679467 -7.495228 -7.651690 -8.502160 -9.441024 -9.553855 -8.192547 -8.134308 -7.888114 -8.958865 -8.995715 -8.289832 -7.908511 -9.403703 -8.910937 -9.113101 -9.490353 -8.300772 -7.739395 -8.522449 -8.507035 -8.759357 -8.163132 -8.935611 -7.256268 -5.798394 -6.872040 -7.284327 -7.827696 -8.527814 -9.266737 -7.443335 -7.271116 -8.670284 -9.411930 -9.751842 -11.208707 -10.552728 -9.863622 -9.997024 -10.404589 -10.606553 -10.073288 -10.515353 -11.126295 -10.532753 -10.278820 -9.659432 -10.019540 -10.243932 -9.763117 -9.634999 -9.441725 -9.249060 -8.497387 -10.054706 -10.721372 -9.319699 -8.797914 -7.670329 -8.495847 -8.444965 -8.441859 -7.714372 -8.060471 -7.556656 -6.452757 -5.668845 -5.947330 -6.610414 -6.735233 -6.167989 -4.522304 -4.301512 -3.199015 -2.200414 -2.565699 -3.599825 -2.857436 -1.362442 -1.422965 -1.372730 -1.860335 -2.408672 -2.172025 -2.540781 -1.475304 -1.798011 -2.238430 -1.109949 -2.968738 -3.078489 -2.121958 -1.133262 -0.255915 0.439012 0.797911 0.003391 0.609354 -0.223363 0.828895 1.137938 1.632202 0.592401 -0.867068 -1.311404 -2.351477 -2.747218 -2.994883 -2.215751 -2.915580 -3.104947 -4.234769 -4.834404 -2.918120 -2.593597 -3.123241 -4.567429 -5.121874 -4.036307 -2.977911 -1.876962 -4.279707 -5.707380 -5.340218 -3.755893 -4.007626 -3.775771 -3.118937 -5.283673 -4.272724 -3.162917 -2.811522 -3.462896 -3.068334 -3.200047 -4.177805 -2.879410 -1.606062 -2.093358 -4.922758 -5.283707 -4.509909 -3.198128 -3.202986 -4.172660 -3.097046 -4.786007 -4.103613 -2.456112 -3.011303 -3.397112 -3.447278 -3.714521 -4.639543 -4.264755 -4.615375 -4.742844 -3.694045 -3.465896 -3.085732 -5.357814 -6.015812 -5.117832 -5.759589 -5.264563 -4.001229 -5.798739 -7.260172 -7.668371 -8.246748 -7.436344 -6.447324 -6.772687 -8.035439 -7.913538 -8.757056 -7.289723 -7.483406 -8.398434 -8.243956 -8.925940 -8.581447 -7.294767 -7.986273 -7.394463 -8.990298 -8.296047 -7.004967 -6.525349 -6.749184 -5.261270 -5.045294 -5.264479 -6.113561 -6.075257 -5.246858 -5.602184 -5.588499 -6.366239 -6.427303 -7.242807 -7.097898 -8.687276 -8.410433 -6.959647 -6.726332 -8.578624 -9.364951 -8.152071 -6.629338 -5.885011 -6.655144 -6.527049 -5.978067 -5.556828 -6.055751 -5.355959 -5.684083 -5.595395 -6.523705 -6.892141 -4.633509 -6.584447 -7.661962 -7.109234 -7.620952 -8.011260 -7.417588 -6.923987 -7.354795 -8.901240 -8.030085 -8.189913 -6.641889 -6.938523 -6.810862 -7.791420 -8.382045 -6.850816 -6.145105 -5.903556 -5.994905 -7.380967 -8.557801 -8.107392 -6.956741 -6.701686 -8.174502 -8.398206 -8.626353 -10.080714 -10.988472 -10.528481 -9.946052 -8.979441 -9.354066 -10.376410 -11.530358 -12.436101 -11.687790 -12.861935 -12.280494 -11.603297 -12.660726 -13.401234 -12.545180 -13.376567 -14.600472 -14.002462 -13.452076 -14.729129 -14.664520 -13.204336 -13.682973 -14.877278 -13.868808 -14.001479 -14.972600 -14.979448 -12.823895 -11.540334 -13.213896 -13.116986 -12.197863 -13.172272 -11.484665 -11.365578 -10.463702 -10.258276 -10.868817 -11.977880 -10.622921 -10.201433 -10.353877 -10.268532 -9.085584 -9.447441 -10.431073 -11.507122 -10.005524 -8.081959 -8.697337 -8.378285 -7.654030 -8.816508 -9.172138 -8.548791 -7.384577 -6.616162 -5.830632 -6.702013 -7.381489 -6.788225 -6.840876 -7.296524 -5.478702 -4.116506 -3.511482 -3.938890 -4.549757 -4.554426 -5.423116 -4.589050 -4.475307 -4.192654 -3.765571 -4.082547 -4.403545 -4.678833 -5.223897 -4.064641 -3.901203 -3.203538 -2.839870 -3.433285 -2.394612 -2.463389 -2.994626 -2.470772 -3.971588 -3.996135 -2.692957 -2.212340 -1.771408 -1.931579 -3.784018 -5.194607 -4.625729 -4.460048 -3.982739 -3.988954 -2.670164 -3.265741 -3.892842 -5.458521 -4.767565 -3.885985 -5.918784 -4.123201 -2.801164 -2.979231 -4.019896 -4.950533 -4.422880 -4.358387 -3.814429 -3.299536 -2.217944 -2.577529 -2.945529 -3.350130 -4.573908 -2.490607 -2.604373 -2.299592 -2.201455 -1.918150 -2.976653 -2.343827 -1.949732 -2.601142 -3.393200 -4.160208 -3.212619 -2.423997 -2.358244 -3.210294 -3.890643 -3.456887 -3.130528 -3.282920 -3.748986 -3.387704 -2.710799 -2.529443 -3.646036 -4.789174 -4.069545 -4.352754 -4.497694 -3.221997 -3.565520 -3.614551 -4.140707 -4.079337 -3.844368 -3.128700 -4.329755 -2.619681 -1.681556 -1.193643 -1.560462 -2.858005 -1.850168 -1.864324 -1.563569 -0.535802 -1.574183 -1.712455 -1.842203 -1.785713 -1.165288 -2.856555 -3.535429 -2.534052 -3.327788 -1.992961 -1.418750 -1.552504 -1.877840 -1.897678 -1.957197 -2.529660 -1.738306 0.583891 0.012596 -0.590492 -0.685552 0.405663 -0.255703 -0.959327 -1.856245 -1.229579 0.204848 0.009195 0.337988 -1.006953 -2.510643 -2.228631 -0.989054 -0.880418 -1.242521 -0.873881 0.218246 -0.115039 -0.706608 -0.595823 -1.677181 -1.424748 -1.467400 -0.920722 0.214280 -1.640970 -1.519838 -1.311399 -1.915918 -1.400681 -1.534497 -1.474189 -1.040518 -0.807419 -0.657579 -1.397846 -1.016726 -1.364849 -2.206598 -2.289160 -0.482502 0.084775 0.470099 -0.498049 -0.376470 -1.275493 -1.404676 -0.144148 0.966207 1.697701 -0.208323 -0.557097 -0.428403 -0.422505 -0.109702 0.105066 -0.512223 -1.159214 -0.729148 -1.006511 -1.925626 -1.077379 -0.130583 -0.666221 -1.575926 -1.692520 -1.074039 0.354667 -1.843906 -2.211398 -3.370081 -4.738701 -2.726496 -3.073715 -2.632992 -4.298017 -4.748798 -4.014148 -4.321740 -5.154846 -5.414425 -5.421260 -4.307770 -4.589286 -4.866489 -5.247472 -6.304436 -6.626382 -5.848467 -6.557390 -7.099726 -8.579107 -6.832917 -7.381313 -6.888782 -7.779124 -7.335253 -8.244142 -8.016690 -9.753103 -9.875331 -8.562677 -7.041879 -7.450230 -6.814038 -8.472391 -9.941846 -10.536378 -8.767767 -8.409557 -7.581594 -8.043212 -8.234205 -8.522876 -8.507639 -9.326136 -8.878126 -8.398309 -8.842141 -9.136614 -8.010335 -8.369909 -7.739475 -7.941285 -8.037391 -7.995952 -7.772629 -8.498518 -9.321060 -7.084177 -6.180679 -6.425759 -5.385601 -6.195366 -6.106728 -6.754362 -5.756139 -5.483916 -4.422938 -4.434065 -4.256066 -3.679033 -4.703728 -3.378197 -4.156920 -3.949031 -4.023585 -3.506354 -2.491811 -2.915820 -3.154005 -4.431379 -3.901863 -3.887937 -4.006234 -3.882668 -2.832237 -1.893529 