9.223109 9.053515 8.884113 8.714928 8.545987 8.377316 8.208942 8.040891 7.873189 7.705863 7.538939 7.372445 7.206405 7.040846 6.875796 6.711280 6.547325 6.383956 6.221202 6.059087 5.897639 5.736883 5.576847 5.417556 5.259037 5.101317 4.944422 4.788377 4.633211 4.478948 4.325616 4.173241 4.021849 3.871467 3.722121 3.573838 3.426643 3.280564 3.135627 2.991857 2.849283 2.707929 2.567822 2.428990 2.291458 2.155252 2.020399 1.886926 1.754859 1.624224 1.495047 1.367356 1.241176 1.116534 0.993456 0.871970 0.752100 0.633874 0.517317 0.402457 0.289320 0.177932 0.068320 -0.039490 -0.145472 -0.249599 -0.351845 -0.452183 -0.550587 -0.647031 -0.741488 -0.833931 -0.924335 -1.012673 -1.098918 -1.183044 -1.265025 -1.344837 -1.422484 -1.497997 -1.571403 -1.642732 -1.712012 -1.779273 -1.844543 -1.907851 -1.969227 -2.028699 -2.086296 -2.142047 -2.195981 -2.248128 -2.298515 -2.347171 -2.394127 -2.439410 -2.483050 -2.525076 -2.565516 -2.604399 -2.641755 -2.677612 -2.711999 -2.744945 -2.776480 -2.806631 -2.835428 -2.862901 -2.889077 -2.913986 -2.937656 -2.960117 -2.981398 -3.001527 -3.020534 -3.038447 -3.055295 -3.071108 -3.085913 -3.099741 -3.112620 -3.124579 -3.135646 -3.145849 -3.155209 -3.163747 -3.171484 -3.178441 -3.184639 -3.190098 -3.194840 -3.198886 -3.202256 -3.204972 -3.207055 -3.208525 -3.209404 -3.209712 -3.209470 -3.208700 -3.207422 -3.205657 -3.203427 -3.200749 -3.197638 -3.194111 -3.190176 -3.185844 -3.181126 -3.176029 -3.170563 -3.164739 -3.158564 -3.152049 -3.145203 -3.138035 -3.130555 -3.122772 -3.114695 -3.106334 -3.097698 -3.088797 -3.079639 -3.070235 -3.060594 -3.050724 -3.040633 -3.030322 -3.019793 -3.009048 -2.998089 -2.986917 -2.975536 -2.963946 -2.952149 -2.940148 -2.927944 -2.915539 -2.902935 -2.890134 -2.877138 -2.863948 -2.850567 -2.836997 -2.823238 -2.809294 -2.795166 -2.780857 -2.766366 -2.751698 -2.736853 -2.721834 -2.706643 -2.691280 -2.675749 -2.660051 -2.644188 -2.628161 -2.611974 -2.595627 -2.579122 -2.562462 -2.545649 -2.528683 -2.511567 -2.494304 -2.476894 -2.459340 -2.441644 -2.423807 -2.405831 -2.387719 -2.369472 -2.351092 -2.332581 -2.313940 -2.295173 -2.276279 -2.257263 -2.238125 -2.218867 -2.199491 -2.179999 -2.160393 -2.140675 -2.120846 -2.100910 -2.080866 -2.060718 -2.040467 -2.020113 -1.999658 -1.979103 -1.958448 -1.937694 -1.916842 -1.895891 -1.874841 -1.853692 -1.832445 -1.811099 -1.789655 -1.768113 -1.746473 -1.724735 -1.702902 -1.680979 -1.658970 -1.636880 -1.614712 -1.592472 -1.570164 -1.547792 -1.525361 -1.502876 -1.480340 -1.457758 -1.435135 -1.412475 -1.389782 -1.367062 -1.344318 -1.321555 -1.298777 -1.275989 -1.253196 -1.230401 -1.207609 -1.184822 -1.162046 -1.139283 -1.116536 -1.093810 -1.071107 -1.048432 -1.025788 -1.003178 -0.980605 -0.958075 -0.935589 -0.913151 -0.890765 -0.868435 -0.846164 -0.823955 -0.801813 -0.779739 -0.757739 -0.735816 -0.713973 -0.692213 -0.670540 -0.648958 -0.627470 -0.606080 -0.584792 -0.563608 -0.542532 -0.521568 -0.500719 -0.479989 -0.459382 -0.438901 -0.418548 -0.398329 -0.378246 -0.358304 -0.338504 -0.318852 -0.299350 -0.280003 -0.260813 -0.241784 -0.222919 -0.204223 -0.185699 -0.167349 -0.149179 -0.131190 -0.113387 -0.095774 -0.078354 -0.061129 -0.044096 -0.027244 -0.010560 0.005965 0.022345 0.038590 0.054708 0.070698 0.086563 0.102301 0.117914 0.133403 0.148767 0.164007 0.179123 0.194116 0.208987 0.223736 0.238364 0.252870 0.267255 0.281521 0.295666 0.309693 0.323601 0.337390 0.351062 0.364616 0.378053 0.391374 0.404579 0.417669 0.430644 0.443504 0.456250 0.468883 0.481402 0.493809 0.506104 0.518287 0.530359 0.542320 0.554171 0.565912 0.577544 0.589067 0.600481 0.611788 0.622987 0.634079 0.645065 0.655945 0.666719 0.677389 0.687953 0.698414 0.708771 0.719025 0.729176 0.739224 0.749171 0.759017 0.768762 0.778407 0.787951 0.797397 0.806743 0.815991 0.825141 0.834194 0.843149 0.852008 0.860771 0.869438 0.878010 0.886487 0.894870 0.903160 0.911356 0.919459 0.927470 0.935389 0.943217 0.950954 0.958600 0.966157 0.973624 0.981002 0.988292 0.995493 1.002607 1.009633 1.016574 1.023427 1.030196 1.036879 1.043477 1.049991 1.056421 1.062767 1.069031 1.075213 1.081312 1.087330 1.093267 1.099124 1.104900 1.110597 1.116215 1.121754 1.127215 1.132599 1.137905 1.143134 1.148288 1.153365 1.158367 1.163294 1.168147 1.172926 1.177631 1.182264 1.186824 1.191312 1.195728 1.200074 1.204349 1.208553 1.212688 1.216754 1.220751 1.224680 1.228540 1.232333 1.236059 1.239718 1.243311 1.246838 1.250299 1.253695 1.257026 1.260293 1.263497 1.266636 1.269713 1.272727 1.275679 1.278569 1.281397 1.284165 1.286871 1.289518 1.292105 1.294632 1.297101 1.299511 1.301863 1.304157 1.306394 1.308574 1.310697 1.312765 1.314778 1.316738 1.318647 1.320505 1.322315 1.324077 1.325793 1.327464 1.329091 1.330677 1.332222 1.333728 1.335195 1.336627 1.338023 1.339385 1.340715 1.342014 1.343283 1.344524 1.345738 1.346926 1.348090 1.349232 1.350352 1.351452 1.352533 1.353596 1.354644 1.355678 1.356698 1.357706 1.358704 1.359692 1.360673 1.361648 1.362617 1.363583 1.364547 1.365510 1.366474 1.367439 1.368407 1.369381 1.370360 1.371346 1.372342 1.373347 1.374364 1.375394 1.376438 1.377497 1.378574 1.379669 1.380784 1.381921 1.383084 1.384275 1.385496 1.386751 1.388041 1.389370 1.390741 1.392155 1.393615 1.395125 1.396686 1.398302 1.399975 1.401707 1.403502 1.405362 1.407290 1.409288 1.411359 1.413506 1.415731 1.418037 1.420426 1.422902 1.425466 1.428119 1.430860 1.433688 1.436601 1.439601 1.442685 1.445852 1.449102 1.452435 1.455849 1.459343 1.462916 1.466567 1.470292 1.474091 1.477959 1.481896 1.485899 1.489966 1.494094 1.498282 1.502526 1.506826 1.511178 1.515581 1.520032 1.524529 1.529069 1.533652 1.538273 1.542932 1.547625 1.552351 1.557108 1.561892 1.566703 1.571537 1.576393 1.581268 1.586160 1.591066 1.595986 1.600915 1.605853 1.610797 1.615744 1.620693 1.625640 1.630585 1.635524 1.640456 1.645378 1.650289 1.655184 1.660064 1.664925 1.669764 1.674581 1.679373 1.684136 1.688870 1.693572 1.698239 1.702870 1.707463 1.712014 1.716522 1.720984 1.725399 1.729764 1.734077 1.738335 1.742537 1.746680 1.750762 1.754781 1.758736 1.762627 1.766454 1.770215 1.773912 1.777544 1.781112 1.784616 1.788056 1.791432 1.794744 1.797993 1.801178 1.804301 1.807360 1.810357 1.813291 1.816163 1.818973 1.821721 1.824407 1.827031 1.829594 1.832096 1.834536 1.836916 1.839235 1.841494 1.843692 1.845830 1.847908 1.849926 1.851885 1.853784 1.855624 1.857405 1.859127 1.860790 1.862395 1.863942 1.865430 1.866861 1.868234 1.869549 1.870807 1.872007 1.873151 1.874238 1.875268 1.876241 1.877158 1.878020 1.878825 1.879574 1.880268 1.880907 1.881490 1.882019 1.882492 1.882911 1.883276 1.883586 1.883842 1.884044 1.884193 1.884288 1.884329 1.884318 1.884253 1.884136 1.883966 1.883743 1.883469 1.883142 1.882763 1.882333 1.881851 1.881318 1.880734 1.880099 1.879413 1.878676 1.877889 1.877052 1.876164 1.875227 1.874240 1.873204 1.872118 1.870982 1.869797 1.868563 1.867278 1.865943 1.864558 1.863123 1.861638 1.860102 1.858516 1.856878 1.855191 1.853452 1.851662 1.849822 1.847930 1.845987 1.843992 1.841946 1.839848 1.837699 1.835498 1.833244 1.830939 1.828582 1.826172 1.823710 1.821195 1.818628 1.816008 1.813335 1.810610 1.807831 1.804999 1.802114 1.799176 1.796184 1.793138 1.790039 1.786886 1.783680 1.780419 1.777104 1.773735 1.770311 1.766833 1.763301 1.759714 1.756072 1.752375 1.748623 1.744816 1.740954 1.737037 1.733064 1.729036 1.724952 1.720813 1.716617 1.712366 1.708058 1.703695 1.699275 1.694798 1.690265 1.685676 1.681030 1.676327 1.671567 1.666750 1.661876 1.656947 1.651962 1.646924 1.641833 1.636690 1.631497 1.626254 1.620963 1.615625 1.610240 1.604809 1.599335 1.593817 1.588257 1.582656 1.577016 1.571336 1.565618 1.559864 1.554073 1.548248 1.542390 1.536498 1.530576 1.524622 1.518640 1.512629 1.506590 1.500526 1.494436 1.488322 1.482185 1.476026 1.469846 1.463647 1.457428 1.451192 1.444939 1.438670 1.432387 1.426090 1.419781 1.413460 1.407129 1.400789 1.394440 1.388084 1.381723 1.375356 1.368985 1.362612 1.356236 1.349860 1.343485 1.337111 1.330739 1.324371 1.318007 1.311648 1.305293 1.298942 1.292595 1.286253 1.279916 1.273583 1.267254 1.260930 1.254611 1.248297 1.241987 1.235682 1.229382 1.223087 1.216797 1.210511 1.204231 1.197955 1.191684 1.185418 1.179156 1.172898 1.166644 1.160395 1.154149 1.147908 1.141670 1.135435 1.129205 1.122977 1.116753 1.110532 1.104314 1.098099 1.091887 1.085678 1.079471 1.073267 1.067065 1.060865 1.054667 1.048472 1.042278 1.036086 1.029896 1.023708 1.017520 1.011335 1.005150 0.998967 0.992784 0.986603 0.980422 0.974242 0.968063 0.961884 0.955705 0.949527 0.943348 0.937170 0.930991 0.924812 0.918633 0.912454 0.906273 0.900092 0.893911 0.887728 0.881544 0.875360 0.869174 0.862986 0.856797 0.850607 0.844415 0.838221 0.832025 0.825828 0.819629 0.813427 0.807224 0.801018 0.794810 0.788599 0.782386 0.776171 0.769952 0.763732 0.757508 0.751281 0.745052 0.738819 0.732583 0.726344 0.720101 0.713855 0.707606 0.701353 0.695096 0.688836 0.682572 0.676304 0.670031 0.663755 0.657475 0.651190 0.644901 0.638607 0.632309 0.626006 0.619699 0.613387 0.607070 0.600748 0.594420 0.588088 0.581751 0.575408 0.569060 0.562706 0.556347 0.549982 0.543612 0.537235 0.530853 0.524465 0.518071 0.511670 0.505263 0.498850 0.492431 0.486005 0.479572 0.473133 0.466687 0.460234 0.453775 0.447308 0.440834 0.434353 0.427865 0.421369 0.414866 0.408355 0.401837 0.395311 0.388777 0.382236 0.375687 0.369130 0.362567 0.355998 0.349424 0.342846 0.336264 0.329679 0.323091 0.316502 0.309912 0.303321 0.296731 0.290142 0.283556 0.276972 0.270391 0.263814 0.257242 0.250676 0.244116 0.237562 0.231017 0.224480 0.217952 0.211434 0.204926 0.198430 0.191945 0.185473 0.179015 0.172571 0.166142 0.159728 0.153330 0.146950 0.140587 0.134242 0.127915 0.121606 0.115315 0.109042 0.102787 0.096550 0.090332 0.084131 0.077949 0.071785 0.065640 0.059512 0.053403 0.047313 0.041241 0.035187 0.029152 0.023136 0.017138 0.011158 0.005198 -0.000744 -0.006667 -0.012572 -0.018458 -0.024324 -0.030172 -0.036001 -0.041811 -0.047602 -0.053374 -0.059127 -0.064861 -0.070576 -0.076271 -0.081948 -0.087605 -0.093242 -0.098861 -0.104460 -0.110040 -0.115600 -0.121141 -0.126662 -0.132164 -0.137646 -0.143109 -0.148552 -0.153975 -0.159379 -0.164763 -0.170127 -0.175471 -0.180795 -0.186099 -0.191384 -0.196648 -0.201893 -0.207117 -0.212322 -0.217506 -0.222670 -0.227814 -0.232938 -0.238041 -0.243124 -0.248187 -0.253230 -0.258252 -0.263253 -0.268234 -0.273195 -0.278135 -0.283054 -0.287953 -0.292831 -0.297688 -0.302525 -0.307341 -0.312136 -0.316910 -0.321664 -0.326396 -0.331108 -0.335798 -0.340468 -0.345116 -0.349743 -0.354350 -0.358935 -0.363498 -0.368041 -0.372562 -0.377062 -0.381541 -0.385998 -0.390434 -0.394848 -0.399241 -0.403612 -0.407962 -0.412290 -0.416596 -0.420881 -0.425144 -0.429385 -0.433605 -0.437802 -0.441978 -0.446132 -0.450264 -0.454374 -0.458462 -0.462528 -0.466572 -0.470593 -0.474593 -0.478570 -0.482525 -0.486458 -0.490369 -0.494257 -0.498123 -0.501966 -0.505787 -0.509586 -0.513362 -0.517115 -0.520846 -0.524554 -0.528240 -0.531903 -0.535543 -0.539160 -0.542755 -0.546326 -0.549875 -0.553401 -0.556904 -0.560384 -0.563841 -0.567275 -0.570685 -0.574073 -0.577437 -0.580778 -0.584096 -0.587391 -0.590662 -0.593910 -0.597135 -0.600336 -0.603514 -0.606668 -0.609799 -0.612906 -0.615989 -0.619049 -0.622085 -0.625098 -0.628087 -0.631051 -0.633992 -0.636910 -0.639803 -0.642672 -0.645518 -0.648339 -0.651136 -0.653910 -0.656659 -0.659384 -0.662084 -0.664761 -0.667413 -0.670041 -0.672645 -0.675224 -0.677779 -0.680309 -0.682815 -0.685297 -0.687753 -0.690186 -0.692593 -0.694976 -0.697334 -0.699668 -0.701977 -0.704261 -0.706520 -0.708754 -0.710963 -0.713147 -0.715307 -0.717441 -0.719550 -0.721634 -0.723693 -0.725727 -0.727736 -0.729719 -0.731677 -0.733610 -0.735517 -0.737399 -0.739256 -0.741087 -0.742892 -0.744672 -0.746427 -0.748156 -0.749859 -0.751536 -0.753188 -0.754814 -0.756414 -0.757989 -0.759537 -0.761060 -0.762557 -0.764027 -0.765472 -0.766891 -0.768283 -0.769650 -0.770990 -0.772304 -0.773592 -0.774854 -0.776089 -0.777298 -0.778481 -0.779637 -0.780767 -0.781870 -0.782947 -0.783997 -0.785020 -0.786017 -0.786988 -0.787931 -0.788848 -0.789738 -0.790601 -0.791438 -0.792247 -0.793030 -0.793786 -0.794514 -0.795216 -0.795890 -0.796538 -0.797158 -0.797751 -0.798317 -0.798856 -0.799367 -0.799851 -0.800308 -0.800737 -0.801139 -0.801514 -0.801860 -0.802180 -0.802472 -0.802736 -0.802972 -0.803181 -0.803362 -0.803516 -0.803641 -0.803739 -0.803809 -0.803851 -0.803865 -0.803851 -0.803809 -0.803739 -0.803641 -0.803515 -0.803360 -0.803178 -0.802967 -0.802728 -0.802460 -0.802165 -0.801841 -0.801488 -0.801108 -0.800699 -0.800261 -0.799795 -0.799301 -0.798779 -0.798228 -0.797649 -0.797042 -0.796406 -0.795742 -0.795049 -0.794328 -0.793579 -0.792801 -0.791995 -0.791161 -0.790298 -0.789407 -0.788488 -0.787540 -0.786564 -0.785559 -0.784527 -0.783465 -0.782376 -0.781258 -0.780111 -0.778937 -0.777733 -0.776502 -0.775242 -0.773954 -0.772637 -0.771292 -0.769918 -0.768517 -0.767086 -0.765628 -0.764141 -0.762625 -0.761081 -0.759509 -0.757909 -0.756280 -0.754622 -0.752936 -0.751222 -0.749479 -0.747708 -0.745909 -0.744080 -0.742223 -0.740337 -0.738423 -0.736479 -0.734507 -0.732506 -0.730476 -0.728416 -0.726327 -0.724210 -0.722063 -0.719886 -0.717680 -0.715445 -0.713180 -0.710886 -0.708561 -0.706208 -0.703824 -0.701411 -0.698967 -0.696494 -0.693991 -0.691457 -0.688894 -0.686300 -0.683676 -0.681022 -0.678337 -0.675622 -0.672877 -0.670101 -0.667294 -0.664456 -0.661588 -0.658689 -0.655759 -0.652798 -0.649807 -0.646784 -0.643730 -0.640645 -0.637528 -0.634380 -0.631201 -0.627991 -0.624749 -0.621476 -0.618170 -0.614834 -0.611465 -0.608065 -0.604633 -0.601169 -0.597673 -0.594145 -0.590585 -0.586993 -0.583370 -0.579717 -0.576034 -0.572322 -0.568582 -0.564815 -0.561020 -0.557200 -0.553354 -0.549483 -0.545588 -0.541669 -0.537727 -0.533763 -0.529777 -0.525769 -0.521740 -0.517691 -0.513622 -0.509534 -0.505427 -0.501301 -0.497158 -0.492998 -0.488821 -0.484628 -0.480419 -0.476196 -0.471958 -0.467706 -0.463441 -0.459162 -0.454872 -0.450569 -0.446256 -0.441931 -0.437597 -0.433253 -0.428899 -0.424538 -0.420168 -0.415790 -0.411406 -0.407016 -0.402619 -0.398217 -0.393810 -0.389400 -0.384985 -0.380567 -0.376147 -0.371724 -0.367300 -0.362875 -0.358449 -0.354024 -0.349599 -0.345175 -0.340752 -0.336332 -0.331915 -0.327501 -0.323091 -0.318685 -0.314284 -0.309888 -0.305496 -0.301109 -0.296727 -0.292349 -0.287976 -0.283607 -0.279243 -0.274883 -0.270527 -0.266175 -0.261828 -0.257485 -0.253146 -0.248810 -0.244479 -0.240152 -0.235828 -0.231509 -0.227193 -0.222881 -0.218572 -0.214267 -0.209966 -0.205668 -0.201373 -0.197082 -0.192794 -0.188509 -0.184228 -0.179950 -0.175675 -0.171402 -0.167133 -0.162867 -0.158604 -0.154343 -0.150086 -0.145831 -0.141579 -0.137329 -0.133082 -0.128837 -0.124595 -0.120355 -0.116118 -0.111883 -0.107650 -0.103419 -0.099191 -0.094964 -0.090740 -0.086518 -0.082297 -0.078079 -0.073862 -0.069647 -0.065433 -0.061222 -0.057011 -0.052803 -0.048596 -0.044390 -0.040186 -0.035983 -0.031781 -0.027581 -0.023382 -0.019183 -0.014986 -0.010790 -0.006595 -0.002401 0.001793 0.005985 0.010177 0.014368 0.018559 0.022749 0.026938 0.031127 0.035316 0.039504 0.043692 0.047880 0.052067 0.056254 0.060441 0.064629 0.068816 0.073003 0.077190 0.081378 0.085566 0.089754 0.093942 0.098131 0.102320 0.106510 0.110700 0.114891 0.119083 0.123275 0.127468 0.131662 0.135856 0.140051 0.144247 0.148444 0.152642 0.156840 0.161040 0.165240 0.169442 0.173644 0.177847 0.182051 0.186255 0.190460 0.194665 0.198871 0.203076 0.207282 0.211488 0.215694 0.219900 0.224105 0.228311 0.232515 0.236720 0.240923 0.245126 0.249329 0.253530 0.257730 0.261929 0.266128 0.270324 0.274520 0.278714 0.282906 0.287097 0.291287 0.295474 0.299659 0.303843 0.308024 0.312203 0.316380 0.320555 0.324727 0.328897 0.333064 0.337228 0.341389 0.345548 0.349703 0.353856 0.358005 0.362151 0.366294 0.370434 0.374571 0.378704 0.382833 0.386960 0.391082 0.395201 0.399317 0.403428 0.407536 0.411640 0.415740 0.419836 0.423928 0.428015 0.432099 0.436178 0.440253 0.444323 0.448388 0.452449 0.456505 0.460557 0.464603 0.468645 0.472681 0.476712 0.480738 0.484758 0.488773 0.492783 0.496787 0.500785 0.504777 0.508764 0.512744 0.516719 0.520688 0.524650 0.528606 0.532556 0.536499 0.540436 0.544366 0.548289 0.552206 0.556115 0.560018 0.563914 0.567802 0.571684 0.575558 0.579425 0.583284 0.587136 0.590980 0.594816 0.598645 0.602466 0.606280 0.610086 0.613885 0.617676 0.621460 0.625236 0.629005 0.632767 0.636521 0.640268 0.644008 0.647741 0.651466 0.655185 0.658896 0.662600 0.666297 0.669987 0.673671 0.677347 0.681016 0.684679 0.688335 0.691983 0.695626 0.699261 0.702890 0.706512 0.710127 0.713736 0.717338 0.720934 0.724523 0.728106 0.731682 0.735252 0.738816 0.742373 0.745924 0.749469 0.753007 0.756540 0.760066 0.763585 0.767097 0.770602 0.774100 0.777589 0.781070 0.784543 0.788006 0.791460 0.794904 0.798338 0.801762 0.805175 0.808577 0.811968 0.815347 0.818713 0.822068 0.825409 0.828737 0.832052 0.835353 0.838640 0.841912 0.845169 0.848411 0.851638 0.854849 0.858043 0.861221 0.864382 0.867526 0.870652 0.873760 0.876850 0.879922 0.882974 0.886007 0.889020 0.892012 0.894983 0.897933 0.900861 0.903767 0.906649 0.909509 0.912344 0.915155 0.917942 0.920703 0.923438 0.926147 0.928829 0.931484 0.934111 0.936709 0.939280 0.941821 0.944332 0.946813 0.949263 0.951682 0.954070 0.956426 0.958749 0.961038 0.963295 0.965517 0.967704 0.969857 0.971974 0.974055 0.976100 0.978108 0.980078 0.982010 0.983904 0.985759 0.987574 0.989350 0.991085 0.992780 0.994433 0.996044 0.997613 0.999139 1.000622 1.002061 1.003456 1.004806 1.006111 1.007370 1.008583 1.009749 1.010868 1.011940 1.012963 1.013938 1.014864 1.015740 1.016566 1.017341 1.018065 1.018738 1.019359 1.019927 1.020443 1.020904 1.021312 1.021666 1.021964 1.022207 1.022395 1.022525 1.022599 1.022616 1.022575 1.022475 1.022316 1.022099 1.021821 1.021483 1.021085 1.020625 1.020104 1.019520 1.018874 1.018164 1.017391 1.016553 1.015651 1.014684 1.013651 1.012552 1.011387 1.010154 1.008854 1.007486 1.006050 1.004544 1.002969 1.001324 0.999608 0.997822 0.995964 0.994034 0.992031 0.989956 0.987808 0.985585 0.983289 0.980917 0.978470 0.975947 0.973348 0.970672 0.967919 0.965089 0.962180 0.959192 0.956125 0.952978 0.949752 0.946444 0.943055 0.939585 0.936033 0.932398 0.928680 0.924878 0.920993 0.917022 0.912967 0.908827 0.904600 0.900287 0.895886 0.891399 0.886823 0.882159 0.877406 0.872564 0.867632 0.862609 0.857496 0.852291 0.846995 0.841606 0.836124 0.830549 0.824880 0.819117 0.813260 0.807307 0.801258 0.795113 0.788872 0.782533 0.776098 0.769564 0.762932 0.756201 0.749371 0.742442 0.735413 0.728284 0.721054 0.713723 0.706290 0.698756 0.691119 0.683380 0.675538 0.667592 0.659542 0.651388 0.643130 0.634766 0.626300 0.617748 0.609134 0.600483 0.591817 0.583162 0.574539 0.565973 0.557488 0.549107 0.540855 0.532754 0.524828 0.517102 0.509599 0.502342 0.495355 0.488663 0.482288 0.476255 0.470586 0.465307 0.460440 0.455998 0.451974 0.448361 0.445148 0.442327 0.439890 0.437827 0.436130 0.434790 0.433798 0.433146 0.432824 0.432825 0.433138 0.433756 0.434670 0.435870 0.437349 0.439096 0.441105 0.443365 0.445868 0.448605 0.451568 0.454747 0.458135 0.461721 0.465498 0.469456 0.473587 0.477882 0.482333 0.486930 0.491664 0.496528 0.501511 0.506607 0.511805 0.517097 0.522476 0.527931 0.533454 0.539037 0.544671 0.550348 0.556058 0.561794 0.567546 0.573305 0.579064 0.584814 0.590545 0.596250 0.601920 0.607545 0.613118 0.618629 0.624071 0.629434 0.634709 0.639889 0.644964 0.649927 0.654767 0.659477 0.664048 0.668471 0.672738 0.676840 0.680768 0.684514 0.688069 0.691424 0.694572 0.697502 0.700207 0.702678 0.704906 0.706882 0.708601 0.710063 0.711273 0.712234 0.712951 0.713428 0.713669 0.713677 0.713458 0.713015 0.712352 0.711473 0.710382 0.709083 0.707581 0.705879 0.703981 0.701892 0.699615 0.697155 0.694516 0.691701 0.688715 0.685562 0.682245 0.678770 0.675139 0.671358 0.667429 0.663358 0.659148 0.654803 0.650327 0.645724 0.640999 0.636154 0.631193 0.626121 0.620942 0.615659 0.610276 0.604797 0.599225 0.593566 0.587822 0.581997 0.576096 0.570121 0.564078 0.557970 0.551800 0.545573 0.539292 0.532962 0.526586 0.520168 0.513712 0.507221 0.500701 0.494153 0.487583 0.480995 0.474391 0.467776 0.461154 0.454529 0.447904 0.441284 0.434673 0.428077 0.421499 0.414944 0.408417 0.401923 0.395466 0.389051 0.382681 0.376362 0.370099 0.363894 0.357754 0.351683 0.345684 0.339763 0.333924 0.328171 0.322509 0.316943 0.311477 0.306114 0.300858 0.295709 0.290668 0.285736 0.280915 0.276205 0.271607 0.267123 0.262754 0.258500 0.254363 0.250343 0.246443 0.242662 0.239002 0.235465 0.232056 0.228780 0.225644 0.222652 0.219812 0.217128 0.214607 0.212253 0.210074 0.208075 0.206261 0.204639 0.203214 0.201991 0.200978 0.200179 0.199600 0.199247 0.199127 0.199244 0.199604 0.200213 0.201078 0.202203 0.203595 0.205260 0.207202 0.209429 0.211945 0.214757 0.217870 0.221290 0.225023 0.229075 0.233451 0.238157 0.243200 0.248584 0.254316 0.260401 0.266845 0.273655 0.280835 0.288391 0.296330 0.304657 0.313351 0.322356 0.331661 0.341255 0.351131 0.361278 0.371687 0.382349 0.393254 0.404393 0.415756 0.427335 0.439119 0.451099 0.463267 0.475612 0.488125 0.500796 0.513617 0.526578 0.539670 0.552882 0.566207 0.579634 0.593153 0.606757 0.620434 0.634176 0.647974 0.661818 0.675698 0.689605 0.703531 0.717464 0.731397 0.745319 0.759222 0.773095 0.786930 0.800717 0.814447 0.828110 0.841696 0.855198 0.868604 0.881906 0.895094 0.908159 0.921092 0.933883 0.946523 0.959002 0.971310 0.983440 0.995380 1.007123 1.018659 1.029978 1.041073 1.051933 1.062551 1.072916 1.083020 1.092854 1.102409 1.111676 1.120646 1.129317 1.137690 1.145768 1.153553 1.161047 1.168252 1.175171 1.181806 1.188159 1.194231 1.200027 1.205546 1.210792 1.215767 1.220474 1.224913 1.229088 1.233000 1.236652 1.240046 1.243185 1.246069 1.248702 1.251086 1.253223 1.255115 1.256764 1.258173 1.259343 1.260277 1.260977 1.261446 1.261684 1.261696 1.261482 1.261045 1.260387 1.259510 1.258418 1.257110 1.255591 1.253862 1.251924 1.249782 1.247436 1.244889 1.242143 1.239200 1.236062 1.232732 1.229212 1.225503 1.221609 1.217531 1.213272 1.208833 1.204217 1.199427 1.194463 1.189329 1.184026 1.178558 1.172925 1.167130 1.161176 1.155065 1.148800 1.142382 1.135816 1.129104 1.122248 1.115252 1.108117 1.100847 1.093444 1.085912 1.078252 1.070468 1.062562 1.054537 1.046396 1.038142 1.029776 1.021302 1.012723 1.004041 0.995259 0.986380 0.977406 0.968340 0.959185 0.949944 0.940619 0.931213 0.921729 0.912169 0.902536 0.892834 0.883064 0.873230 0.863340 0.853398 0.843412 0.833388 0.823333 0.813251 0.803151 0.793038 0.782918 0.772799 0.762685 0.752584 0.742502 0.732446 0.722421 0.712433 0.702491 0.692597 0.682754 0.672965 0.663229 0.653550 0.643929 0.634367 0.624865 0.615427 0.606052 0.596743 0.587502 0.578330 0.569229 0.560200 0.551245 0.542365 0.533563 0.524840 0.516197 0.507637 0.499160 0.490768 0.482464 0.474248 0.466123 0.458089 0.450149 0.442303 0.434551 0.426891 0.419323 0.411847 0.404461 0.397166 0.389961 0.382846 0.375821 0.368886 0.362040 0.355284 0.348618 0.342040 0.335552 0.329152 0.322842 0.316620 0.310487 0.304442 0.298486 0.292618 0.286838 0.281146 0.275541 0.270023 0.264591 0.259245 0.253983 0.248805 0.243709 0.238693 0.233756 0.228895 0.224110 0.219397 0.214757 0.210187 0.205685 0.201250 0.196883 0.192580 0.188343 0.184169 0.180058 0.176008 0.172019 0.168090 0.164220 0.160408 0.156653 0.152953 0.149309 0.145719 0.142181 0.138696 0.135262 0.131878 0.128544 0.125257 0.122018 0.118826 0.115678 0.112575 0.109516 0.106499 0.103523 0.100588 0.097693 0.094836 0.092017 0.089235 0.086488 0.083776 0.081098 0.078453 0.075840 0.073257 0.070705 0.068181 0.065686 0.063218 0.060775 0.058358 0.055966 0.053596 0.051249 0.048922 0.046617 0.044330 0.042062 0.039812 0.037578 0.035359 0.033155 0.030965 0.028787 0.026622 0.024468 0.022327 0.020199 0.018082 0.015978 0.013886 0.011807 0.009741 0.007687 0.005645 0.003617 0.001601 -0.000403 -0.002393 -0.004370 -0.006335 -0.008287 -0.010225 -0.012151 -0.014063 -0.015963 -0.017849 -0.019722 -0.021581 -0.023427 -0.025260 -0.027080 -0.028885 -0.030678 -0.032457 -0.034222 -0.035973 -0.037711 -0.039435 -0.041145 -0.042841 -0.044523 -0.046192 -0.047846 -0.049486 -0.051113 -0.052725 -0.054322 -0.055906 -0.057475 -0.059030 -0.060571 -0.062097 -0.063608 -0.065105 -0.066588 -0.068055 -0.069509 -0.070947 -0.072371 -0.073779 -0.075173 -0.076552 -0.077916 -0.079265 -0.080599 -0.081918 -0.083221 -0.084510 -0.085783 -0.087041 -0.088283 -0.089511 -0.090722 -0.091918 -0.093099 -0.094264 -0.095413 -0.096547 -0.097665 -0.098767 -0.099854 -0.100924 -0.101979 -0.103017 -0.104040 -0.105047 -0.106038 -0.107013 -0.107972 -0.108915 -0.109842 -0.110753 -0.111648 -0.112527 -0.113390 -0.114237 -0.115067 -0.115881 -0.116679 -0.117461 -0.118227 -0.118977 -0.119710 -0.120427 -0.121127 -0.121812 -0.122479 -0.123131 -0.123766 -0.124385 -0.124988 -0.125574 -0.126144 -0.126698 -0.127236 -0.127757 -0.128262 -0.128751 -0.129224 -0.129681 -0.130121 -0.130546 -0.130954 -0.131346 -0.131722 -0.132082 -0.132426 -0.132754 -0.133066 -0.133362 -0.133642 -0.133906 -0.134154 -0.134386 -0.134602 -0.134802 -0.134986 -0.135154 -0.135307 -0.135443 -0.135564 -0.135669 -0.135758 -0.135832 -0.135889 -0.135931 -0.135957 -0.135967 -0.135962 -0.135941 -0.135904 -0.135852 -0.135784 -0.135700 -0.135600 -0.135485 -0.135355 -0.135209 -0.135047 -0.134869 -0.134677 -0.134468 -0.134244 -0.134005 -0.133750 -0.133480 -0.133194 -0.132893 -0.132576 -0.132244 -0.131897 -0.131534 -0.131156 -0.130763 -0.130354 -0.129930 -0.129491 -0.129036 -0.128566 -0.128081 -0.127581 -0.127065 -0.126534 -0.125988 -0.125427 -0.124851 -0.124259 -0.123653 -0.123031 -0.122394 -0.121743 -0.121076 -0.120394 -0.119697 -0.118985 -0.118258 -0.117517 -0.116760 -0.115989 -0.115202 -0.114401 -0.113585 -0.112755 -0.111909 -0.111049 -0.110174 -0.109285 -0.108381 -0.107462 -0.106529 -0.105581 -0.104619 -0.103642 -0.102651 -0.101645 -0.100625 -0.099591 -0.098542 -0.097479 -0.096401 -0.095309 -0.094203 -0.093083 -0.091948 -0.090799 -0.089636 -0.088459 -0.087268 -0.086063 -0.084844 -0.083610 -0.082363 -0.081102 -0.079826 -0.078537 -0.077234 -0.075917 -0.074586 -0.073242 -0.071883 -0.070511 -0.069125 -0.067725 -0.066312 -0.064885 -0.063444 -0.061990 -0.060523 -0.059044 -0.057553 -0.056050 -0.054537 -0.053013 -0.051479 -0.049935 -0.048383 -0.046822 -0.045253 -0.043677 -0.042094 -0.040504 -0.038907 -0.037306 -0.035699 -0.034088 -0.032472 -0.030853 -0.029231 -0.027606 -0.025978 -0.024349 -0.022719 -0.021088 -0.019457 -0.017826 -0.016196 -0.014567 -0.012939 -0.011314 -0.009691 -0.008072 -0.006456 -0.004844 -0.003237 -0.001635 -0.000038 0.001552 0.003136 0.004714 0.006283 0.007845 0.009398 0.010942 0.012477 0.014002 0.015516 0.017020 0.018512 0.019993 0.021461 0.022916 0.024358 0.025786 0.027200 0.028599 0.029983 0.031351 0.032703 0.034039 0.035357 0.036657 0.037940 0.039203 0.040448 0.041674 0.042880 0.044067 0.045235 0.046382 0.047509 0.048616 0.049702 0.050768 0.051812 0.052836 0.053838 0.054819 0.055778 0.056715 0.057630 0.058523 0.059393 0.060240 0.061065 0.061866 0.062644 0.063398 0.064129 0.064836 0.065519 0.066177 0.066811 0.067420 0.068004 0.068563 0.069097 0.069605 0.070087 0.070544 0.070974 0.071378 0.071755 0.072106 0.072430 0.072727 0.072996 0.073238 0.073452 0.073638 0.073796 0.073925 0.074026 0.074098 0.074142 0.074156 0.074141 0.074096 0.074021 0.073917 0.073782 0.073618 0.073422 0.073196 0.072939 0.072650 0.072331 0.071979 0.071596 0.071181 0.070734 0.070255 0.069744 0.069201 0.068626 0.068020 0.067382 0.066713 0.066013 0.065282 0.064520 0.063727 0.062904 0.062051 0.061167 0.060254 0.059310 0.058337 0.057335 0.056303 0.055242 0.054152 0.053033 0.051885 0.050709 0.049505 0.048273 0.047012 0.045724 0.044408 0.043065 0.041694 0.040296 0.038872 0.037420 0.035942 0.034437 0.032906 0.031349 0.029765 0.028156 0.026522 0.024862 0.023176 0.021465 0.019730 0.017969 0.016184 0.014375 0.012541 0.010683 0.008801 0.006895 0.004966 0.003013 0.001037 -0.000963 -0.002985 -0.005030 -0.007098 -0.009188 -0.011301 -0.013436 -0.015592 -0.017771 -0.019971 -0.022192 -0.024435 -0.026698 -0.028982 -0.031287 -0.033612 -0.035957 -0.038322 -0.040707 -0.043112 -0.045536 -0.047979 -0.050441 -0.052922 -0.055421 -0.057939 -0.060475 -0.063030 -0.065601 -0.068191 -0.070798 -0.073422 -0.076064 -0.078722 -0.081396 -0.084088 -0.086795 -0.089518 -0.092258 -0.095013 -0.097783 -0.100569 -0.103370 -0.106185 -0.109016 -0.111860 -0.114720 -0.117593 -0.120480 -0.123381 -0.126295 -0.129223 -0.132163 -0.135117 -0.138083 -0.141062 -0.144053 -0.147057 -0.150072 -0.153099 -0.156138 -0.159187 -0.162249 -0.165321 -0.168403 -0.171497 -0.174600 -0.177714 -0.180838 -0.183972 -0.187115 -0.190268 -0.193429 -0.196600 -0.199780 -0.202968 -0.206164 -0.209369 -0.212582 -0.215803 -0.219031 -0.222267 -0.225510 -0.228760 -0.232016 -0.235280 -0.238550 -0.241826 -0.245108 -0.248396 -0.251691 -0.254991 -0.258298 -0.261610 -0.264929 -0.268254 -0.271585 -0.274922 -0.278266 -0.281616 -0.284972 -0.288335 -0.291704 -0.295079 -0.298461 -0.301849 -0.305244 -0.308645 -0.312053 -0.315467 -0.318888 -0.322315 -0.325749 -0.329190 -0.332637 -0.336091 -0.339552 -0.343019 -0.346493 -0.349974 -0.353462 -0.356957 -0.360459 -0.363967 -0.367483 -0.371005 -0.374534 -0.378071 -0.381614 -0.385165 -0.388722 -0.392286 -0.395858 -0.399436 -0.403022 -0.406615 -0.410215 -0.413822 -0.417436 -0.421057 -0.424685 -0.428321 -0.431964 -0.435613 -0.439271 -0.442935 -0.446606 -0.450285 -0.453971 -0.457665 -0.461365 -0.465073 -0.468789 -0.472511 -0.476241 -0.479978 -0.483723 -0.487475 -0.491234 -0.495001 -0.498775 -0.502557 -0.506346 -0.510142 -0.513946 -0.517758 -0.521577 -0.525403 -0.529237 -0.533078 -0.536927 -0.540784 -0.544648 -0.548520 -0.552399 -0.556286 -0.560180 -0.564083 -0.567992 -0.571910 -0.575834 -0.579765 -0.583700 -0.587640 -0.591584 -0.595530 -0.599477 -0.603426 -0.607374 -0.611321 -0.615266 -0.619208 -0.623147 -0.627081 -0.631009 -0.634931 -0.638846 -0.642752 -0.646650 -0.650537 -0.654414 -0.658278 -0.662131 -0.665969 -0.669793 -0.673602 -0.677394 -0.681170 -0.684927 -0.688665 -0.692384 -0.696082 -0.699758 -0.703412 -0.707042 -0.710648 -0.714229 -0.717784 -0.721312 -0.724812 -0.728283 -0.731725 -0.735136 -0.738515 -0.741863 -0.745177 -0.748457 -0.751702 -0.754911 -0.758083 -0.761218 -0.764314 -0.767370 -0.770386 -0.773361 -0.776294 -0.779183 -0.782029 -0.784830 -0.787585 -0.790294 -0.792955 -0.795567 -0.798130 -0.800644 -0.803106 -0.805516 -0.807873 -0.810176 -0.812425 -0.814618 -0.816754 -0.818834 -0.820855 -0.822817 -0.824718 -0.826559 -0.828339 -0.830055 -0.831708 -0.833296 -0.834819 -0.836276 -0.837665 -0.838987 -0.840239 -0.841422 -0.842533 -0.843573 -0.844541 -0.845435 -0.846255 -0.847000 -0.847668 -0.848260 -0.848773 -0.849208 -0.849563 -0.849838 -0.850031 -0.850142 -0.850169 -0.850112 -0.849970 -0.849743 -0.849428 -0.849026 -0.848535 -0.847954 -0.847284 -0.846521 -0.845667 -0.844719 -0.843678 -0.842542 -0.841310 -0.839981 -0.838554 -0.837030 -0.835405 -0.833681 -0.831855 -0.829928 -0.827897 -0.825763 -0.823524 -0.821179 -0.818728 -0.816170 -0.813503 -0.810727 -0.807841 -0.804844 -0.801735 -0.798513 -0.795178 -0.791728 -0.788163 -0.784481 -0.780682 -0.776765 -0.772729 -0.768573 -0.764297 -0.759898 -0.755377 -0.750733 -0.745964 -0.741070 -0.736050 -0.730903 -0.725628 -0.720223 -0.714691 -0.709032 -0.703253 -0.697358 -0.691352 -0.685240 -0.679025 -0.672713 -0.666307 -0.659814 -0.653236 -0.646578 -0.639845 -0.633041 -0.626170 -0.619237 -0.612247 -0.605203 -0.598111 -0.590974 -0.583797 -0.576584 -0.569340 -0.562070 -0.554777 -0.547466 -0.540142 -0.532809 -0.525471 -0.518133 -0.510799 -0.503475 -0.496164 -0.488872 -0.481604 -0.474363 -0.467155 -0.459984 -0.452855 -0.445773 -0.438743 -0.431768 -0.424854 -0.418005 -0.411227 -0.404523 -0.397899 -0.391359 -0.384908 -0.378550 -0.372291 -0.366134 -0.360085 -0.354148 -0.348329 -0.342630 -0.337059 -0.331618 -0.326313 -0.321148 -0.316128 -0.311258 -0.306542 -0.301986 -0.297593 -0.293368 -0.289317 -0.285444 -0.281753 -0.278250 -0.274938 -0.271823 -0.268909 -0.266201 -0.263703 -0.261421 -0.259359 -0.257522 -0.255914 -0.254540 -0.253405 -0.252513 -0.251869 -0.251478 -0.251345 -0.251474 -0.251869 -0.252536 -0.253479 -0.254703 -0.256213 -0.258013 -0.260108 -0.262502 -0.265201 -0.268209 -0.271530 -0.275170 -0.279133 -0.283424 -0.288047 -0.293006 -0.298279 -0.303819 -0.309576 -0.315498 -0.321538 -0.327644 -0.333769 -0.339896 -0.346023 -0.352151 -0.358280 -0.364410 -0.370540 -0.376672 -0.382804 -0.388937 -0.395070 -0.401205 -0.407341 -0.413477 -0.419615 -0.425753 -0.431893 -0.438033 -0.444174 -0.450317 -0.456461 -0.462605 -0.468751 -0.474898 -0.481046 -0.487196 -0.493346 -0.499498 -0.505651 -0.511805 -0.517961 -0.524117 -0.530276 -0.536435 -0.542596 -0.548758 -0.554922 -0.561087 -0.567253 -0.573421 -0.579591 -0.585761 -0.591934 -0.598108 -0.604283 -0.610460 -0.616639 -0.622819 -0.629000 -0.635183 -0.641367 -0.647553 -0.653740 -0.659928 -0.666117 -0.672308 -0.678500 -0.684694 -0.690889 -0.697085 -0.703282 -0.709480 -0.715680 -0.721880 -0.728082 -0.734285 -0.740489 -0.746694 -0.752901 -0.759108 -0.765316 -0.771526 -0.777736 -0.783947 -0.790159 -0.796373 -0.802587 -0.808802 -0.815018 -0.821234 -0.827452 -0.833670 -0.839890 -0.846110 -0.852330 -0.858552 -0.864774 -0.870997 -0.877221 -0.883445 -0.889670 -0.895896 -0.902122 -0.908349 -0.914577 -0.920805 -0.927033 -0.933263 -0.939492 -0.945722 -0.951953 -0.958184 -0.964416 -0.970647 -0.976880 -0.983112 -0.989346 -0.995579 -1.001813 -1.008047 -1.014281 -1.020516 -1.026751 -1.032986 -1.039221 -1.045457 -1.051692 -1.057928 -1.064164 -1.070400 -1.076637 -1.082873 -1.089109 -1.095346 -1.101582 -1.107819 -1.114055 -1.120291 -1.126528 -1.132764 -1.139000 -1.145237 -1.151473 -1.157709 -1.163944 -1.170180 -1.176415 -1.182650 -1.188885 -1.195120 -1.201354 -1.207589 -1.213822 -1.220056 -1.226289 -1.232522 -1.238754 -1.244986 -1.251218 -1.257449 -1.263680 -1.269910 -1.276140 -1.282369 -1.288598 -1.294826 -1.301054 -1.307281 -1.313508 -1.319733 -1.325959 -1.332183 -1.338407 -1.344630 -1.350853 -1.357075 -1.363296 -1.369516 -1.375735 -1.381954 -1.388172 -1.394389 -1.400605 -1.406820 -1.413035 -1.419248 -1.425460 -1.431672 -1.437883 -1.444092 -1.450301 -1.456508 -1.462715 -1.468920 -1.475125 -1.481328 -1.487530 -1.493731 -1.499931 -1.506130 -1.512327 -1.518524 -1.524719 -1.530913 -1.537105 -1.543296 -1.549486 -1.555675 -1.561862 -1.568048 -1.574233 -1.580416 -1.586598 -1.592778 -1.598957 -1.605134 -1.611310 -1.617485 -1.623658 -1.629829 -1.635999 -1.642167 -1.648333 -1.654498 -1.660662 -1.666823 -1.672983 -1.679142 -1.685298 -1.691453 -1.697606 -1.703758 -1.709907 -1.716055 -1.722201 -1.728345 -1.734487 -1.740628 -1.746766 -1.752903 -1.759037 -1.765170 -1.771301 -1.777430 -1.783556 -1.789681 -1.795804 -1.801924 -1.808043 -1.814159 -1.820273 -1.826386 -1.832495 -1.838603 -1.844709 -1.850812 -1.856914 -1.863012 -1.869109 -1.875203 -1.881296 -1.887385 -1.893473 -1.899558 -1.905640 -1.911721 -1.917799 -1.923874 -1.929947 -1.936018 -1.942086 -1.948151 -1.954214 -1.960274 -1.966332 -1.972388 -1.978440 -1.984490 -1.990538 -1.996583 -2.002625 -2.008664 -2.014701 -2.020735 -2.026766 -2.032795 -2.038820 -2.044843 -2.050863 -2.056880 -2.062895 -2.068906 -2.074915 -2.080920 -2.086923 -2.092923 -2.098920 -2.104914 -2.110904 -2.116892 -2.122877 -2.128859 -2.134837 -2.140813 -2.146785 -2.152754 -2.158720 -2.164683 -2.170643 -2.176599 -2.182553 -2.188503 -2.194449 -2.200393 -2.206333 -2.212270 -2.218203 -2.224134 -2.230060 -2.235984 -2.241904 -2.247820 -2.253733 -2.259643 -2.265549 -2.271451 -2.277351 -2.283246 -2.289138 -2.295026 -2.300911 -2.306792 -2.312670 -2.318544 -2.324414 -2.330280 -2.336143 -2.342002 -2.347858 -2.353709 -2.359557 -2.365401 -2.371241 -2.377077 -2.382910 -2.388738 -2.394563 -2.400384 -2.406200 -2.412013 -2.417822 -2.423627 -2.429428 -2.435225 -2.441018 -2.446806 -2.452591 -2.458372 -2.464148 -2.469920 -2.475688 -2.481452 -2.487212 -2.492968 -2.498719 -2.504466 -2.510209 -2.515948 -2.521682 -2.527412 -2.533137 -2.538859 -2.544575 -2.550288 -2.555996 -2.561699 -2.567399 -2.573093 -2.578783 -2.584469 -2.590150 -2.595827 -2.601499 -2.607166 -2.612829 -2.618487 -2.624141 -2.629790 -2.635434 -2.641074 -2.646708 -2.652339 -2.657964 -2.663585 -2.669200 -2.674811 -2.680418 -2.686019 -2.691615 -2.697207 -2.702794 -2.708375 -2.713952 -2.719524 -2.725091 -2.730653 -2.736210 -2.741762 -2.747309 -2.752851 -2.758387 -2.763919 -2.769445 -2.774967 -2.780483 -2.785994 -2.791500 -2.797001 -2.802496 -2.807986 -2.813471 -2.818951 -2.824425 -2.829894 -2.835357 -2.840816 -2.846269 -2.851716 -2.857158 -2.862595 -2.868026 -2.873452 -2.878872 -2.884286 -2.889695 -2.895098 -2.900496 -2.905887 -2.911272 -2.916651 -2.922024 -2.927391 -2.932751 -2.938105 -2.943452 -2.948792 -2.954126 -2.959453 -2.964773 -2.970086 -2.975392 -2.980691 -2.985983 -2.991267 -2.996544 -3.001813 -3.007075 -3.012328 -3.017575 -3.022813 -3.028043 -3.033266 -3.038480 -3.043686 -3.048883 -3.054073 -3.059253 -3.064426 -3.069589 -3.074744 -3.079890 -3.085027 -3.090155 -3.095274 -3.100384 -3.105484 -3.110575 -3.115656 -3.120728 -3.125790 -3.130842 -3.135884 -3.140916 -3.145938 -3.150948 -3.155949 -3.160938 -3.165916 -3.170883 -3.175838 -3.180782 -3.185714 -3.190634 -3.195542 -3.200438 -3.205321 -3.210192 -3.215049 -3.219894 -3.224726 -3.229544 -3.234349 -3.239140 -3.243917 -3.248680 -3.253429 -3.258163 -3.262883 -3.267588 -3.272277 -3.276952 -3.281611 -3.286254 -3.290882 -3.295493 -3.300088 -3.304667 -3.309229 -3.313774 -3.318302 -3.322813 -3.327306 -3.331781 -3.336239 -3.340678 -3.345099 -3.349502 -3.353886 -3.358251 -3.362596 -3.366923 -3.371230 -3.375517 -3.379784 -3.384031 -3.388258 -3.392464 -3.396649 -3.400814 -3.404957 -3.409079 -3.413179 -3.417258 -3.421314 -3.425349 -3.429360 -3.433349 -3.437315 -3.441255 -3.445171 -3.449060 -3.452923 -3.456758 -3.460566 -3.464344 -3.468092 -3.471811 -3.475498 -3.479155 -3.482781 -3.486377 -3.489942 -3.493477 -3.496981 -3.500455 -3.503898 -3.507311 -3.510694 -3.514047 -3.517370 -3.520663 -3.523925 -3.527158 -3.530360 -3.533533 -3.536676 -3.539789 -3.542873 -3.545927 -3.548951 -3.551945 -3.554910 -3.557846 -3.560752 -3.563629 -3.566476 -3.569294 -3.572083 -3.574843 -3.577573 -3.580275 -3.582947 -3.585591 -3.588205 -3.590791 -3.593348 -3.595876 -3.598375 -3.600846 -3.603288 -3.605701 -3.608086 -3.610443 -3.612771 -3.615070 -3.617342 -3.619585 -3.621799 -3.623986 -3.626144 -3.628275 -3.630377 -3.632452 -3.634498 -3.636517 -3.638507 -3.640470 -3.642405 -3.644313 -3.646193 -3.648045 -3.649870 -3.651667 -3.653437 -3.655179 -3.656894 -3.658582 -3.660243 -3.661876 -3.663483 -3.665062 -3.666614 -3.668139 -3.669637 -3.671109 -3.672553 -3.673971 -3.675362 -3.676726 -3.678064 -3.679375 -3.680660 -3.681918 -3.683150 -3.684355 -3.685534 -3.686686 -3.687813 -3.688913 -3.689987 -3.691035 -3.692057 -3.693053 -3.694023 -3.694967 -3.695886 -3.696778 -3.697645 -3.698486 -3.699302 -3.700092 -3.700856 -3.701595 -3.702308 -3.702996 -3.703659 -3.704296 -3.704909 -3.705496 -3.706058 -3.706594 -3.707106 -3.707593 -3.708055 -3.708492 -3.708904 -3.709291 -3.709654 -3.709991 -3.710305 -3.710593 -3.710857 -3.711097 -3.711312 -3.711503 -3.711670 -3.711812 -3.711930 -3.712023 -3.712093 -3.712139 -3.712160 -3.712158 -3.712131 -3.712081 -3.712007 -3.711909 -3.711787 -3.711642 -3.711473 -3.711280 -3.711064 -3.710824 -3.710561 -3.710275 -3.709965 -3.709632 -3.709275 -3.708896 -3.708493 -3.708067 -3.707619 -3.707147 -3.706652 -3.706134 -3.705594 -3.705031 -3.704445 -3.703836 -3.703205 -3.702551 -3.701874 -3.701175 -3.700454 -3.699710 -3.698944 -3.698156 -3.697345 -3.696512 -3.695657 -3.694780 -3.693881 -3.692960 -3.692018 -3.691053 -3.690068 -3.689061 -3.688033 -3.686984 -3.685914 -3.684823 -3.683712 -3.682580 -3.681428 -3.680256 -3.679063 -3.677851 -3.676619 -3.675367 -3.674096 -3.672805 -3.671495 -3.670165 -3.668817 -3.667450 -3.666064 -3.664659 -3.663236 -3.661795 -3.660335 -3.658858 -3.657362 -3.655849 -3.654318 -3.652769 -3.651203 -3.649620 -3.648019 -3.646402 -3.644767 -3.643116 -3.641447 -3.639758 -3.638048 -3.636315 -3.634559 -3.632778 -3.630970 -3.629134 -3.627270 -3.625374 -3.623447 -3.621486 -3.619490 -3.617458 -3.615388 -3.613280 -3.611131 -3.608941 -3.606707 -3.604429 -3.602105 -3.599733 -3.597313 -3.594843 -3.592322 -3.589748 -3.587119 -3.584435 -3.581694 -3.578895 -3.576036 -3.573116 -3.570133 -3.567087 -3.563975 -3.560797 -3.557550 -3.554234 -3.550847 -3.547389 -3.543856 -3.540249 -3.536565 -3.532803 -3.528963 -3.525041 -3.521038 -3.516952 -3.512781 -3.508524 -3.504180 -3.499746 -3.495223 -3.490608 -3.485900 -3.481097 -3.476199 -3.471204 -3.466110 -3.460917 -3.455622 -3.450224 -3.444723 -3.439116 -3.433402 -3.427580 -3.421648 -3.415606 -3.409454 -3.403200 -3.396854 -3.390425 -3.383922 -3.377354 -3.370731 -3.364061 -3.357354 -3.350619 -3.343866 -3.337102 -3.330338 -3.323583 -3.316845 -3.310135 -3.303461 -3.296832 -3.290258 -3.283748 -3.277311 -3.270955 -3.264691 -3.258528 -3.252474 -3.246539 -3.240732 -3.235063 -3.229539 -3.224172 -3.218969 -3.213940 -3.209094 -3.204440 -3.199988 -3.195746 -3.191725 -3.187932 -3.184378 -3.181070 -3.178020 -3.175235 -3.172725 -3.170499 -3.168567 -3.166937 -3.165618 -3.164621 -3.163953 -3.163625 -3.163645 -3.164021 -3.164755 -3.165842 -3.167276 -3.169052 -3.171166 -3.173610 -3.176377 -3.179458 -3.182848 -3.186537 -3.190519 -3.194786 -3.199331 -3.204145 -3.209222 -3.214555 -3.220135 -3.225955 -3.232009 -3.238288 -3.244786 -3.251494 -3.258407 -3.265515 -3.272812 -3.280291 -3.287944 -3.295764 -3.303743 -3.311874 -3.320149 -3.328562 -3.337105 -3.345771 -3.354551 -3.363439 -3.372428 -3.381510 -3.390678 -3.399923 -3.409240 -3.418621 -3.428057 -3.437543 -3.447070 -3.456631 -3.466218 -3.475825 -3.485444 -3.495068 -3.504689 -3.514300 -3.523893 -3.533462 -3.542998 -3.552495 -3.561945 -3.571340 -3.580674 -3.589938 -3.599127 -3.608231 -3.617244 -3.626159 -3.634968 -3.643663 -3.652238 -3.660685 -3.668996 -3.677165 -3.685183 -3.693044 -3.700740 -3.708264 -3.715609 -3.722766 -3.729729 -3.736490 -3.743042 -3.749378 -3.755490 -3.761370 -3.767013 -3.772415 -3.777574 -3.782491 -3.787163 -3.791591 -3.795772 -3.799706 -3.803392 -3.806828 -3.810015 -3.812949 -3.815632 -3.818061 -3.820236 -3.822156 -3.823819 -3.825224 -3.826371 -3.827258 -3.827885 -3.828250 -3.828352 -3.828191 -3.827765 -3.827073 -3.826115 -3.824888 -3.823393 -3.821628 -3.819592 -3.817284 -3.814703 -3.811848 -3.808683 -3.805093 -3.800948 -3.796120 -3.790480 -3.783898 -3.776247 -3.767398 -3.757221 -3.745589 -3.732372 -3.717441 -3.700668 -3.681924 -3.661080 -3.638008 -3.612579 -3.584664 -3.554134 -3.520860 -3.484714 -3.445567 -3.403290 -3.357755 -3.308833 -3.256394 -3.200311 -3.140454 -3.076694 -3.008904 -2.936954 -2.860715 -2.780059 -2.694857 -2.604980 -2.510299 -2.410686 -2.306011 -2.196147 -2.080965 -1.958056 -1.805603 -1.591971 -1.285446 