1.515582 1.515582 1.515582 1.515582 1.515582 1.515582 1.515582 1.515582 1.515582 1.355682 1.693608 1.707623 1.786244 1.816613 1.809237 1.801806 1.815254 1.829239 1.974463 1.973964 1.973472 1.972457 1.968159 1.975643 1.972526 1.966291 1.962578 1.973875 1.978222 1.984549 1.980581 1.976988 1.984281 2.021999 2.018350 2.012420 2.006754 2.007099 2.002730 2.003816 2.001267 2.014968 2.007909 2.002637 1.998659 1.995816 1.999550 1.999528 1.998399 2.002518 2.011345 2.011245 2.008907 2.015247 2.019916 2.014126 2.026113 2.026485 2.021804 2.032410 2.036270 2.039990 2.044143 2.039058 2.045524 2.052340 2.049706 2.053124 2.045937 2.068546 2.068793 2.063506 2.060684 2.061851 2.059131 2.058261 2.056153 2.062694 2.069191 2.068005 2.066390 2.066320 2.059456 2.064694 2.071295 2.073555 2.071036 2.068904 2.075208 2.071347 2.066926 2.062141 2.058770 2.054836 2.050787 2.044571 2.060871 2.060861 2.059847 2.074364 2.072823 2.080556 2.075064 2.073346 2.071659 2.064305 2.066084 2.068398 2.067791 2.063966 2.068477 2.066763 2.065010 2.058119 2.054064 2.054098 2.065340 2.064588 2.061854 2.069807 2.068007 2.068945 2.069686 2.063102 2.063971 2.066355 2.070745 2.067094 2.073038 2.068104 2.064728 2.059687 2.058494 2.055328 2.052546 2.050728 2.048415 2.048979 2.046072 2.044832 2.038986 2.033824 2.039292 2.035176 2.033418 2.032963 2.032772 2.027254 2.028981 2.028374 2.026376 2.022534 2.031188 2.026193 2.019827 2.021976 2.019124 2.014767 2.013167 2.027078 2.028713 2.027233 2.030824 2.026680 2.022115 2.019069 2.017781 2.022364 2.017053 2.013439 2.012958 2.015048 2.012145 2.008804 2.012149 2.009578 2.011544 2.015494 2.013165 2.019488 2.025406 2.023893 2.023817 2.024946 2.025855 2.022696 2.022999 2.020809 2.024465 2.025650 2.021145 2.020116 2.024620 2.023215 2.021524 2.020257 2.015877 2.015988 2.012281 2.014129 2.018059 2.021683 2.030128 2.032926 2.034796 2.033737 2.040093 2.040428 2.038772 2.040482 2.038566 2.048107 2.053967 2.054930 2.057427 2.053455 2.051376 2.048955 2.044925 2.046526 2.051787 2.046629 2.052223 2.054916 2.051859 2.048770 2.051601 2.052805 2.060751 2.070862 2.068981 2.063995 2.066538 2.067221 2.078548 2.081125 2.077672 2.078289 2.078190 2.082732 2.091548 2.090496 2.092344 2.091001 2.093810 2.091703 2.095813 2.094123 2.094972 2.097956 2.092430 2.094547 2.102810 2.099760 2.100860 2.101977 2.105309 2.108344 2.108074 2.105874 2.113776 2.113101 2.113846 2.108525 2.119914 2.128572 2.128221 2.132459 2.127547 2.127215 2.124180 2.128334 2.127836 2.123826 2.121074 2.120271 2.115930 2.118064 2.112705 2.109957 2.119677 2.121983 2.122533 2.118401 2.118943 2.125448 2.127213 2.129711 2.130774 2.147276 2.148893 2.147819 2.146322 2.153421 2.153770 2.166664 2.175684 2.178458 2.187467 2.191458 2.193848 2.193655 2.198384 2.194618 2.208512 2.210569 2.206084 2.202005 2.200150 2.201762 2.203043 2.196439 2.194998 2.202359 2.197554 2.194528 2.200790 2.198859 2.195885 2.203185 2.217666 2.215435 2.217269 2.219083 2.227581 2.225449 2.220793 2.233763 2.238678 2.249629 2.257443 2.266835 2.268039 2.261554 2.255658 2.250181 2.247257 2.241597 2.246471 2.248997 2.248144 2.244279 2.251865 2.247537 2.246260 2.248318 2.251498 2.246619 2.245302 2.243482 2.244450 2.244891 2.245619 2.246045 2.245829 2.239621 2.233362 2.229288 2.236233 2.231039 2.231824 2.231117 2.237468 2.248933 2.247576 2.247095 2.250444 2.249380 2.253472 2.256529 2.255600 2.258518 2.261571 2.272820 2.273457 2.274658 2.270921 2.269257 2.266815 2.265958 2.260363 2.263463 2.268943 2.276033 2.272344 2.275994 2.274014 2.275849 2.274056 2.274770 2.274538 2.274895 2.269380 2.273579 2.269897 2.273850 2.275152 2.272090 2.280500 2.288290 2.290314 2.286277 2.287745 2.286222 2.283154 2.279050 2.277487 2.272613 2.278749 2.281390 2.276792 2.274542 2.280771 2.287261 2.292119 2.289535 2.292067 2.293265 2.298666 2.301245 2.303919 2.303142 2.299955 2.296402 2.293286 2.298801 2.299306 2.306043 2.311334 2.312493 2.319521 2.314410 2.313020 2.307516 2.304033 2.306513 2.302538 2.300747 2.296313 2.297189 2.296893 2.298086 2.306286 2.304812 2.306706 2.308355 2.304398 2.302951 2.303291 2.304954 2.299693 2.296738 2.289686 2.295089 2.292884 2.306779 2.312177 2.314504 2.321443 2.319006 2.327373 2.324463 2.321114 2.328514 2.327703 2.328629 2.326483 2.326543 2.320164 2.317532 2.319391 2.318444 2.319039 2.315749 2.310207 2.308566 2.303000 2.306953 2.304951 2.300992 2.295933 2.298258 2.295062 2.289415 2.287181 2.287154 2.282335 2.281381 2.283516 2.277521 2.275730 2.274534 2.273338 2.274599 2.273228 2.274976 2.270840 2.278515 2.273946 2.282503 2.290976 2.289239 2.286429 2.284599 2.285729 2.285162 2.296054 2.307841 2.303115 2.301567 2.295647 2.296142 2.292205 2.294816 2.294845 2.295858 2.289367 2.293717 2.306008 2.302873 2.298233 2.303611 2.305930 2.304555 2.305190 2.313187 2.311468 2.305537 2.302719 2.297572 2.292750 2.290712 2.287239 2.287722 2.290274 2.287390 2.291763 2.289489 2.297799 2.295191 2.290181 2.287282 2.282539 2.282540 2.282824 2.280137 2.284332 2.282141 2.277648 2.281759 2.276795 2.275500 2.276619 2.273469 2.270163 2.267296 2.268449 2.273681 2.270388 2.270460 2.274358 2.270286 2.273095 2.273827 2.270185 2.266854 2.263448 2.261471 2.259163 2.259056 2.255849 2.260402 2.257249 2.255925 2.254113 2.251846 2.247561 2.244694 2.242545 2.243802 2.241813 2.243919 2.239719 2.236706 2.243260 2.244776 2.237987 2.238075 2.235475 2.230701 2.228125 2.236808 2.230457 2.232947 2.229649 2.224617 2.223767 2.224627 2.229348 2.232006 2.229231 2.241349 2.243056 2.241744 2.245348 2.248564 2.255450 2.254261 2.253238 2.255735 2.249462 2.251581 2.249336 2.253723 2.246481 2.244160 2.240321 2.240381 2.238247 2.233854 2.230199 2.228963 2.232163 2.233751 2.237679 2.240534 2.233537 2.234101 2.236777 2.230690 2.230766 2.229034 2.228593 2.226314 2.226680 2.232257 2.233873 2.237319 2.240546 2.246521 2.242873 2.238719 2.236417 2.233070 2.230955 2.231891 2.233020 2.229963 2.226287 2.235990 2.233137 2.238947 2.248712 2.244095 2.246569 2.245616 2.258147 2.259289 2.267363 2.271174 2.267629 2.263702 2.269907 2.267846 2.268164 2.265388 2.262206 2.265783 2.261753 2.265873 2.262769 2.259297 2.263567 2.264018 2.264947 2.260859 2.259672 2.264397 2.262334 2.259953 2.260356 2.262996 2.260273 2.256359 2.257996 2.254256 2.248984 2.250634 2.248041 2.244662 2.243838 2.239584 2.234277 2.231529 2.228460 2.236348 2.235992 2.247430 2.246894 2.250118 2.246598 2.248092 2.244473 2.244180 2.247522 2.243964 2.245873 2.238579 2.233961 2.241419 2.241964 2.238291 2.239363 2.252501 2.250081 2.261178 2.260307 2.258075 2.261308 2.257594 2.257332 2.253554 2.250351 2.254445 2.256273 2.259705 2.262257 2.260255 2.266892 2.267208 2.273916 2.268876 2.266246 2.266883 2.269409 2.279706 2.284417 2.282055 2.289074 2.289589 2.291944 2.289669 2.290817 2.284425 2.293824 2.292207 2.289119 2.292999 2.301398 2.299676 2.299091 2.297427 2.301182 2.298803 2.304737 2.314285 2.317798 2.319237 2.314708 2.308941 2.310597 2.309056 2.312934 2.315873 2.313855 2.315375 2.312207 2.310933 2.306777 2.305833 2.300184 2.308806 2.309516 2.312283 2.311773 2.312022 2.307281 2.305989 2.304649 2.304040 2.303888 2.305122 2.303553 2.302959 2.305323 2.302362 2.308273 2.310574 2.315847 2.315955 2.309596 2.314148 2.316740 2.317077 2.313070 2.325988 2.324220 2.328482 2.327221 2.329111 2.321981 2.329724 2.330448 2.327874 2.322345 2.320966 2.318385 2.316091 2.312453 2.313772 2.311303 2.311231 2.304807 2.311002 2.313783 2.317567 2.329368 2.328164 2.327519 2.341037 2.341138 2.347642 2.347842 2.362557 2.359122 2.358546 2.359909 2.356242 2.364093 2.363524 2.366093 2.363970 2.367962 2.366026 2.370668 2.368032 2.363951 2.378265 2.372944 2.374705 2.381289 2.379051 2.377043 2.379749 2.381470 2.373749 2.376654 2.377908 2.377804 2.372356 2.375551 2.372495 2.369501 2.371423 2.370343 2.367709 2.365196 2.365990 2.365097 2.371158 2.368360 2.364845 2.358606 2.356993 2.355436 2.355071 2.353809 2.359131 2.363089 2.361990 2.383764 2.391819 2.387056 2.380926 2.378073 2.382131 2.379582 2.373918 2.374905 2.373823 2.369450 2.373218 2.371508 2.367922 2.365358 2.360233 2.360325 2.359415 2.361264 2.364839 2.361820 2.361710 2.359209 2.355674 2.348230 2.345274 2.345155 2.341080 2.342441 2.342497 2.342927 2.352028 2.349108 2.350187 2.351463 2.352425 2.351093 2.354819 2.358057 2.357555 2.357501 2.356269 2.354258 2.358194 2.364890 2.362500 2.360236 2.366031 2.372264 2.372600 2.370927 2.368474 2.368397 2.364097 2.363876 2.369958 2.371636 2.370278 2.369854 2.370833 2.373324 2.374116 2.372897 2.368563 2.369442 2.365697 2.368375 2.363501 2.369107 2.367153 2.365921 2.360401 2.356978 2.357469 2.353351 2.356932 2.351353 2.348680 2.346261 2.341346 2.352365 2.360500 2.358609 2.352313 2.360567 2.355382 2.360459 2.357226 2.355439 2.360042 2.360156 2.366797 2.365148 2.366459 2.364007 2.364383 2.371450 2.374283 2.373722 2.377492 2.379860 2.377428 2.372722 2.376197 2.371564 2.368270 2.368296 2.373273 2.367688 2.363216 2.363669 2.365743 2.365057 2.360290 2.365342 2.364363 2.366535 2.363444 2.364572 2.363377 2.370083 2.366386 2.364903 2.357315 2.359883 2.361532 2.361618 2.359625 2.356901 2.356288 2.358006 2.361557 2.360419 2.363994 2.361950 2.369945 2.371303 2.374470 2.373788 2.368348 2.362080 2.359668 2.353812 2.354710 2.355193 2.351018 2.350892 2.351361 2.350787 2.347735 2.345286 2.346555 2.348776 2.345743 2.344391 2.343361 2.339945 2.344276 2.355277 2.360113 2.356805 2.353049 2.356330 2.353411 2.358288 2.357600 2.353152 2.345330 2.341162 2.335426 2.336649 2.337479 2.332423 2.327396 2.331605 2.331167 2.328734 2.336231 2.337638 2.332442 2.328590 2.329092 2.325365 2.319451 2.313331 2.311436 2.308106 2.312689 2.307855 2.306275 2.305279 2.302931 2.296267 2.293034 2.287035 2.283019 2.277261 2.273854 2.275540 2.278779 2.272946 2.273222 2.268804 2.270888 2.270308 2.268545 2.271806 2.271212 2.272468 2.267254 2.262036 2.259250 2.257915 2.256169 2.262410 2.262699 2.263597 2.267655 2.276779 2.281591 2.281013 2.281251 2.276800 2.272962 2.272965 2.274522 2.277932 2.282630 2.287746 2.282144 2.283706 2.284238 2.285486 2.279209 2.283636 2.286377 2.304834 2.308229 2.315107 2.322607 2.320121 2.316851 2.319212 2.325483 2.330393 2.327290 2.326207 2.329174 2.332491 2.335713 2.330921 2.333633 2.335856 2.333396 2.335225 2.330622 2.336498 2.336077 2.334941 2.329019 2.339820 2.341894 2.336740 2.333891 2.333525 2.336955 2.337913 2.341224 2.341679 2.337998 2.337611 2.352169 2.353926 2.350485 2.355123 2.351071 2.357296 2.364198 2.366356 2.366936 2.365333 2.361855 2.370388 2.364573 2.364468 2.371879 2.379688 2.375804 2.376164 2.371153 2.370396 2.374810 2.375916 2.372613 2.377359 2.384766 2.378885 2.378267 2.380332 2.379240 2.376298 2.373880 2.376665 2.371636 2.375964 2.375436 2.370738 2.364704 2.368022 2.366003 2.365641 2.376110 2.378199 2.379482 2.378880 2.381055 2.376526 2.371885 2.368970 2.372843 2.373967 2.384045 2.380966 2.385702 2.388538 2.393849 2.390524 2.395345 2.392706 2.390700 2.393382 2.396814 2.392259 2.390838 2.387471 2.390753 2.399929 2.396503 2.394245 2.393611 2.390781 2.390244 2.388469 2.385254 2.383444 2.383949 2.381998 2.384388 2.381688 2.378358 2.382154 2.376115 2.371481 2.368323 2.361996 2.363068 2.361046 2.361398 2.365190 2.362229 2.362044 2.357724 2.355264 2.350958 2.353031 2.353531 2.350617 2.355366 2.353325 2.352339 2.350871 2.345360 2.358402 2.353868 2.352954 2.355429 2.352091 2.349348 2.342200 2.343174 2.342996 2.341530 2.350902 2.349099 2.350896 2.350588 2.351748 2.354269 2.349977 2.348817 2.351703 2.345756 2.352215 2.360647 2.361032 2.360321 2.355203 2.354851 2.356461 2.357066 2.352524 2.352075 2.353362 2.352458 2.353225 2.351747 2.353806 2.350935 2.368345 2.366360 2.362928 2.357072 2.364742 2.362188 2.360330 2.359364 2.355952 2.352319 2.353567 2.358649 2.354517 2.352234 2.360923 2.359767 2.368120 2.362672 2.356930 2.359596 2.359858 2.360048 2.355505 2.353713 2.352166 2.349894 2.350470 2.352236 2.353860 2.360835 2.365818 2.363326 2.361205 2.368138 2.363284 2.360109 2.361580 2.364257 2.364801 2.363354 2.367478 2.369518 2.369978 2.372977 2.374294 2.374065 2.373189 2.376017 2.372189 2.369316 2.364048 2.361278 2.360336 2.353026 2.350256 2.346832 2.353062 2.363856 2.363000 2.362910 2.361980 2.360156 2.355631 2.353560 2.347646 2.346092 2.342135 2.335564 2.332193 2.329847 2.334212 2.331269 2.332696 2.333719 2.327971 2.324255 2.326657 2.325661 2.327197 2.325362 2.326979 2.329029 2.327707 2.325903 2.326125 2.320824 2.315644 2.316237 2.312874 2.313574 2.309741 2.305452 2.300786 2.297659 2.300714 2.295674 2.289388 2.297988 2.296048 2.295030 2.299170 2.296315 2.293564 2.292249 2.295861 2.298866 2.297066 2.295331 2.296154 2.293119 2.294698 2.290108 2.282956 2.285038 2.284078 2.280634 2.276114 2.273051 2.271853 2.269419 2.271684 2.269051 2.264713 2.259393 2.263074 2.266002 2.266870 2.268125 2.275574 2.280722 2.278051 2.273090 2.268755 2.266642 2.263615 2.263028 2.259065 2.254604 2.252995 2.255834 2.251825 2.248389 2.249577 2.254000 2.261125 2.266711 2.266665 2.260888 2.258781 2.256302 2.249517 2.261399 2.261484 2.254672 2.252907 2.261839 2.253859 2.253368 2.255826 2.252419 2.250359 2.243435 2.240707 2.242793 2.241776 2.246341 2.243645 2.240498 2.235558 2.232401 2.232319 2.230075 2.230231 2.226937 2.228538 2.229129 2.238461 2.238276 2.240201 2.241318 2.238402 2.237981 2.235790 2.233110 2.230135 2.233071 2.230670 2.226954 2.227208 2.230205 2.235685 2.236308 2.236283 2.240303 2.239214 2.235374 2.230178 2.228858 2.222794 2.219798 2.221345 2.217978 2.212964 2.207758 2.203253 2.200415 2.201365 2.199669 2.195201 2.197891 2.194352 2.191329 2.196276 2.189932 2.192866 2.193707 2.188272 2.185400 2.180526 2.181158 2.188506 2.189692 2.184182 2.180298 2.180047 2.175824 2.176590 2.174790 2.171853 2.170899 2.173530 2.173655 2.175835 2.170656 2.172555 2.181494 2.175303 2.172620 2.171336 2.175726 2.175915 2.174886 2.172548 2.168787 2.171502 2.170407 2.168919 2.165209 2.160665 2.155895 2.153199 2.152838 2.145902 2.143318 2.143518 2.138442 2.144492 2.152295 2.148974 2.149737 2.146249 2.143609 2.147840 2.144328 2.139372 2.139174 2.136946 2.131617 2.131700 2.133429 2.134878 2.130807 2.131766 2.129987 2.126582 2.124290 2.118887 2.115809 2.112753 2.109879 2.110371 2.106410 2.113836 2.118624 2.123340 2.120757 2.127248 2.134061 2.134555 2.133537 2.133778 2.142226 2.146349 2.142466 2.145639 2.145929 2.147524 2.147339 2.152395 2.155705 2.159548 2.165707 2.183928 2.195194 2.195480 2.200049 2.200176 2.199726 2.205019 2.207283 2.209753 2.213080 2.217649 2.215904 2.212466 2.208820 2.210543 2.206160 2.211032 2.208433 2.206200 2.210563 2.205118 2.198601 2.198834 2.198708 2.199496 2.195728 2.209664 2.216747 2.224072 2.222931 2.221580 2.226495 2.230426 2.232828 2.234063 2.233396 2.239855 2.234882 2.236795 2.235424 2.232207 2.233857 2.230855 2.232381 2.227569 2.234271 2.233770 2.237464 2.243549 2.243535 2.241060 2.240340 2.241192 2.241363 2.237929 2.233432 2.232434 2.232176 2.239053 2.237267 2.239964 2.244928 2.248815 2.250962 2.246914 2.245745 2.242520 2.239680 2.237758 2.237784 2.240461 2.238676 2.241919 2.234507 2.232006 2.228865 2.226876 2.225973 2.226891 2.229550 2.227206 2.221862 2.220350 2.224357 2.219153 2.221089 2.220968 2.229448 2.227223 2.224419 2.223276 2.217686 2.218081 2.212241 2.212316 2.208756 2.205030 2.202307 2.202096 2.195980 2.205144 2.202322 2.208543 2.204693 2.211370 2.209987 2.214272 2.215131 2.213962 2.211974 2.214124 2.215762 2.216913 2.216534 2.212804 2.215452 2.218837 2.215220 2.214414 2.213511 2.211419 2.219240 2.218786 2.215318 2.211617 2.208007 2.206363 2.205937 2.206255 2.204029 2.206720 2.205636 2.199844 2.201980 2.202215 2.196291 2.193877 2.195249 2.194358 2.191131 2.193490 2.190931 2.190478 2.188726 2.191182 2.196624 2.200286 2.198120 2.197911 2.201692 2.197910 2.199288 2.195316 2.191639 2.186720 2.185221 2.190765 2.196616 2.190693 2.190140 2.188579 2.181785 2.189994 2.187672 2.184743 2.185901 2.182695 2.191147 2.186083 2.184226 2.182618 2.185152 2.181189 2.185344 2.179175 2.200275 2.197898 2.197268 2.197412 2.199077 2.201684 2.196878 2.193562 2.188100 2.184065 2.185194 2.189695 2.187572 2.188299 2.190152 2.190067 2.189867 2.190904 2.192178 2.196841 2.198511 2.207228 2.207235 2.207818 2.207464 2.210398 2.210462 2.211139 2.207030 2.204791 2.203707 2.205716 2.210462 2.207525 2.201624 2.199067 2.196322 2.192173 2.188211 2.192502 2.193125 2.194857 2.198182 2.197379 2.194107 2.195446 2.194962 2.194078 2.192230 2.196021 2.196205 2.191564 2.188868 2.189953 2.186964 2.186308 2.187017 2.185735 2.180994 2.181546 2.177574 2.179209 2.179340 2.181398 2.183195 2.182828 2.180713 2.177080 2.171588 2.174127 2.172479 2.171540 2.174314 2.171859 2.169538 2.166099 2.166230 2.163501 2.179932 2.177077 2.174668 2.170792 2.183723 2.188424 2.182634 2.183613 2.181656 2.189623 2.191189 2.190938 2.189486 2.191221 2.198174 2.194694 2.191409 2.190454 2.191325 2.188440 2.186817 2.196534 2.196385 2.193722 2.193744 2.196497 2.198600 2.203726 2.207282 2.205049 2.207712 2.203120 2.203718 2.201471 2.197616 2.200523 2.207738 2.203232 2.200102 2.205685 2.207677 2.206848 2.209900 2.208585 2.213200 2.209865 2.209195 2.212481 2.212081 2.215307 2.217805 2.214385 2.211727 2.210569 2.211188 2.208371 2.210238 2.210756 2.210797 2.213243 2.218112 2.220869 2.227771 2.224756 2.231603 2.229312 2.228155 2.225713 2.228808 2.228759 2.225428 2.223164 2.219366 2.217710 2.212747 2.213067 2.210187 2.208723 2.203489 2.220665 2.215415 2.210639 2.212709 2.212280 2.213256 2.212730 2.215153 2.213137 2.210738 2.213871 2.216541 2.221920 2.237647 2.239018 2.246955 2.244755 2.245784 2.248687 2.249272 2.246419 2.242440 2.246394 2.243211 2.245601 2.250712 2.252549 2.246644 2.244391 2.242973 2.245633 2.243439 2.244866 2.245230 2.260487 2.256815 2.268943 2.264139 2.270503 2.277136 2.272299 2.270946 2.269136 2.272654 2.276840 2.274521 2.273010 2.285491 2.288091 2.283689 2.279443 2.278181 2.276888 2.276402 2.272893 2.275092 2.273177 2.274770 2.277609 2.283340 2.291609 2.299935 2.301612 2.308971 2.319006 2.320770 2.321311 2.331722 2.335463 2.341401 2.356343 2.365081 2.365350 2.369947 2.370955 2.370108 2.376479 2.371301 2.367793 2.383111 2.380465 2.380759 2.392237 2.387829 2.392093 2.393073 2.390610 2.388770 2.382811 2.384734 2.400846 2.402662 2.399889 2.407295 2.421181 2.416254 2.415038 2.424520 2.425018 2.427825 2.431118 2.438199 2.442450 2.451166 2.449974 2.453184 2.448567 2.451689 2.467557 2.463591 2.461608 2.467858 2.471186 2.468267 2.476181 2.479230 2.487064 2.489647 2.489115 2.483878 2.482939 2.481679 2.484849 2.483215 2.491561 2.519150 2.515496 2.521200 2.523859 2.522543 2.538873 2.547746 2.554065 2.548283 2.545221 2.546141 2.546164 2.552051 2.548365 2.553889 2.548039 2.549330 2.554604 2.553273 2.563443 2.567912 2.566319 2.574848 2.576160 2.574715 2.578136 2.585713 2.586631 2.586536 2.593809 2.587760 2.588390 2.589053 2.584891 2.584242 2.585140 2.588134 2.586128 2.592631 2.595760 2.594135 2.601958 2.607287 2.613354 2.612520 2.607581 2.621792 2.623303 2.621773 2.620071 2.622357 2.617588 2.618410 2.621718 2.627301 2.623750 2.629161 2.628301 2.638108 2.632955 2.636015 2.644745 2.639533 2.635679 2.636737 2.634904 2.634944 2.632907 2.629635 2.636211 2.632651 2.629273 2.631364 2.631730 2.629653 2.629464 2.631766 2.634589 2.628308 2.636834 2.632704 2.632028 2.632633 2.627173 2.628546 2.642221 2.636835 2.634831 2.633610 2.632749 2.628314 2.623688 2.619399 2.615639 2.614395 2.626154 2.628945 2.629343 2.627778 2.631168 2.624734 2.617563 2.623541 2.616375 2.615555 2.614348 2.613398 2.618878 2.620029 2.619567 2.617492 2.617192 2.617399 2.614665 2.614881 2.608489 2.604457 2.599297 2.597619 2.594020 2.588839 2.582563 2.578599 2.577909 2.577653 2.576238 2.573292 2.571250 2.574126 2.575004 2.573967 2.570092 2.568819 2.565870 2.570221 2.571203 2.572855 2.570334 2.567192 2.563996 2.561523 2.561374 2.555234 2.557002 2.553984 2.547693 2.549389 2.543192 2.541170 2.535617 2.530827 2.538053 2.536752 2.532868 2.527888 2.524775 2.522531 2.516625 2.517116 2.511484 2.507015 2.507316 2.514135 2.516388 2.517787 2.520709 2.515261 2.509265 2.511405 2.508503 2.506564 2.501705 2.494885 2.487926 2.485343 2.485316 2.486922 2.480589 2.483741 2.486336 2.484000 2.489273 2.484762 2.487480 2.488749 2.486243 2.486531 2.487089 2.483846 2.485775 2.486249 2.490590 2.499421 2.499589 2.498077 2.512532 2.511096 2.507832 2.501551 2.497712 2.496009 2.497072 2.492547 2.487972 2.481758 2.478770 2.471999 2.468276 2.468028 2.464537 2.463983 2.462385 2.456013 2.459579 2.457883 2.452686 2.450712 2.452001 2.449117 2.451557 2.452348 2.453171 2.447508 2.446235 2.444070 2.443261 2.437087 2.443208 2.447146 2.442759 2.435964 2.432067 2.434903 2.439743 2.443424 2.445701 2.441256 2.441654 2.442302 2.441041 2.437643 2.441483 2.444821 2.442694 2.456104 2.455357 2.451678 2.452386 2.456250 2.453634 2.452815 2.455769 2.453249 2.448707 2.446434 2.442580 2.442729 2.442573 2.445654 2.438312 2.438065 2.439532 2.434363 2.434835 2.437383 2.441605 2.438524 2.438777 2.435551 2.434189 2.431291 2.426457 2.419951 2.431966 2.432896 2.432878 2.437408 2.435303 2.430333 2.438807 2.443573 2.440118 2.433512 2.431700 2.433387 2.435743 2.431474 2.431784 2.427536 2.423748 2.420671 2.415023 2.421056 2.419347 2.423608 2.418603 2.426423 2.428805 2.429764 2.425580 2.426360 2.422145 2.423139 2.416825 2.425164 2.427945 2.427415 2.422882 2.424321 2.421854 2.421340 2.419905 2.415479 2.417508 2.415365 2.410070 2.406230 2.401361 2.397490 2.393959 2.398055 2.397373 2.399510 2.414104 2.415941 2.414636 2.415286 2.411922 2.407510 2.409957 2.411512 2.420040 2.422088 2.419702 2.423213 2.430393 2.427964 2.429433 2.426149 2.430463 2.426904 2.422092 2.419837 2.429804 2.429048 2.432578 2.435980 2.438659 2.439194 2.439336 2.446680 2.448914 2.446652 2.443651 2.444782 2.442873 2.438336 2.435461 2.432067 2.429853 2.425736 2.427172 2.436813 2.449361 2.451012 2.447998 2.449560 2.449502 2.442586 2.438806 2.434171 2.431646 2.428634 2.423210 2.418566 2.418874 2.413606 2.410988 2.409245 2.405176 2.398163 2.392303 2.392603 2.391862 2.388989 2.387740 2.386937 2.386697 2.386142 2.382264 2.377792 2.377763 2.387835 2.389293 2.392203 2.393435 2.390153 2.390243 2.382041 2.377707 2.378285 2.384275 2.385561 2.398775 2.399386 2.397360 2.392382 2.397992 2.391366 2.385987 2.385994 2.385802 2.382409 2.377529 2.379063 2.383366 2.384797 2.396123 2.390612 2.386246 2.392809 2.394541 2.397399 2.390359 2.389545 2.391756 2.392049 2.390315 2.392020 2.390913 2.396475 2.398913 2.401127 2.407379 2.404626 2.403593 2.408638 2.414028 2.415619 2.426389 2.437766 2.440739 2.434131 2.429986 2.427929 2.426722 2.423585 2.421598 2.418044 2.417327 2.421041 2.419391 2.420804 2.418051 2.425466 2.432132 2.431591 2.431954 2.432451 2.440783 2.442244 2.443537 2.441312 2.447373 2.453592 2.451825 2.447549 2.446522 2.446447 2.442800 2.445651 2.443629 2.442425 2.443053 2.439544 2.434017 2.434097 2.440438 2.435243 2.441807 2.449282 2.450683 2.448692 2.451212 2.460222 2.461331 2.465249 2.464016 2.458855 2.456705 2.453645 2.457920 2.453710 2.455049 2.452656 2.452881 2.452861 2.452069 2.452172 2.448891 2.447993 2.451590 2.457774 2.465757 2.462969 2.459086 2.464419 2.471808 2.477935 2.478276 2.481942 2.475755 2.472388 2.473473 2.488711 2.486878 2.486982 2.482233 2.482729 2.475455 2.470051 2.463122 2.457441 2.454977 2.463295 2.463145 2.457918 2.458690 2.452874 2.456594 2.451625 2.458328 2.457616 2.451895 2.463210 2.464934 2.461834 2.457301 2.454966 2.453396 2.458115 2.458529 2.454436 2.450062 2.444883 2.444838 2.440582 2.442740 2.438723 2.438040 2.433562 2.430652 2.423451 2.417322 2.417613 2.413656 2.416013 2.414177 2.410198 2.405972 2.404242 2.405478 2.412632 2.415347 2.413033 2.409604 2.409486 2.407161 2.407490 2.403048 2.401706 2.401823 2.401032 2.400542 2.399332 2.396911 2.395557 2.394511 2.394618 2.392411 2.392079 2.386665 2.389028 2.385955 2.387995 2.388814 2.383260 2.381581 2.378825 2.384213 2.382944 2.389487 2.383433 2.381043 2.382159 2.385755 2.388104 2.391119 2.389072 2.389799 2.392297 2.399745 2.397533 2.394190 2.393870 2.390644 2.386048 2.388628 2.385715 2.390575 2.392340 2.389276 2.401033 2.397334 2.402642 2.398546 2.395674 2.390986 2.393460 2.392838 2.389587 2.391741 2.391468 2.390920 2.390980 2.399289 2.401719 2.397014 2.402372 2.406455 2.405725 2.413778 2.421377 2.424899 2.429050 2.430606 2.429326 2.431339 2.440527 2.438184 2.435609 2.449074 2.443190 2.466591 2.462849 2.460217 2.455920 2.454124 2.451142 2.445084 2.452740 2.450080 2.453247 2.458499 2.455067 2.451277 2.457146 2.455418 2.451106 2.449636 2.445550 2.440816 2.437203 2.432762 2.424699 2.419808 2.421197 2.431345 2.428334 2.426935 2.431162 2.440441 2.439377 2.444896 2.442774 2.448488 2.444121 2.443387 2.442706 2.447074 2.444415 2.451924 2.454232 2.451929 2.459738 2.455347 2.454018 2.462033 2.465999 2.473005 2.470486 2.470384 2.465950 2.462151 2.457597 2.454966 2.447459 2.444835 2.442770 2.438741 2.436005 2.435158 2.440501 2.438216 2.438812 2.435987 2.433393 2.437582 2.437656 2.437795 2.440350 2.454301 2.448538 2.446164 2.444145 2.442747 2.442460 2.445444 2.459280 2.458722 2.463867 2.465892 2.475842 2.473925 2.472222 2.473647 2.469645 2.472293 2.468045 2.462260 2.462239 2.457610 2.453824 2.447920 2.448698 2.445392 2.441474 2.445403 2.447516 2.445199 2.449565 2.448023 2.446041 2.441984 2.436277 2.431417 2.425760 2.421185 2.422946 2.424674 2.419515 2.417799 2.414602 2.413651 2.412863 2.413007 2.413804 2.417221 2.416271 2.421316 2.418372 2.417529 2.416493 2.411004 2.408564 2.407681 2.402062 2.408738 2.407730 2.402621 2.403333 2.398587 2.393736 2.390834 2.389208 2.393471 2.392146 2.388812 2.390544 2.384202 2.379168 2.382514 2.384803 2.395272 2.400842 2.402379 2.400887 2.395925 2.398643 2.396713 2.399317 2.405188 2.406258 2.405740 2.406046 2.400637 2.394243 2.391225 2.387650 2.384891 2.383498 2.376587 2.371923 2.376057 2.371838 2.368704 2.361735 2.358834 2.360675 2.361638 2.362521 2.359483 2.354247 2.352845 2.358851 2.360008 2.361822 2.359790 2.358524 2.363466 2.365886 2.367127 2.359654 2.356973 2.360952 2.357256 2.356265 2.355519 2.351743 2.347811 2.351246 2.346340 2.342877 2.341645 2.339619 2.337255 2.334035 2.328526 2.327485 2.325313 2.328642 2.322652 2.321439 2.321323 2.317949 2.322460 2.330738 2.334027 2.328919 2.329247 2.324310 2.321878 2.318265 2.317980 2.314134 2.317449 2.312596 2.311730 2.315466 2.321786 2.316524 2.313614 2.319400 2.333445 2.337055 2.343409 2.338764 2.333362 2.331617 2.333014 2.332153 2.325013 2.325770 2.329004 2.328852 2.331458 2.334815 2.341909 2.354435 2.352565 2.355983 2.370729 2.373091 2.368103 2.361690 2.360255 2.359244 2.353158 2.358491 2.363940 2.367785 2.364302 2.370525 2.370492 2.366974 2.377864 2.382103 2.379094 2.375062 2.374510 2.378506 2.376313 2.373638 2.369780 2.365754 2.364509 2.366927 2.362738 2.358279 2.355682 2.351626 2.345616 2.339698 2.337664 2.332894 2.333564 2.327105 2.326134 2.321951 2.316381 2.316690 2.320109 2.323846 2.321593 2.335106 2.336556 2.334656 2.335535 2.330204 2.329316 2.322638 2.321510 2.317970 2.316425 2.312309 2.312947 2.309795 2.306995 2.302053 2.299114 2.294494 2.290445 2.291506 2.287467 2.284530 2.280477 2.286592 2.287786 2.287273 2.282775 2.277969 2.275325 2.272785 2.272190 2.270869 2.269759 2.262796 2.260149 2.259974 2.271196 2.272035 2.274373 2.269386 2.265394 2.264909 2.275502 2.272353 2.265674 2.262878 2.257070 2.250293 2.251953 2.248509 2.256196 2.250992 2.257866 2.260453 2.253669 2.250132 2.247338 2.246159 2.242465 2.240165 2.244116 2.241366 2.236977 2.233638 2.246732 2.244196 2.247502 2.244553 2.239077 2.238992 2.238274 2.237958 2.236382 2.236104 2.246065 2.243975 2.245570 2.238242 2.237740 2.235033 2.229636 2.222643 2.226310 2.231770 2.231873 2.237825 2.241239 2.238296 2.236515 2.241894 2.243007 2.236863 2.235852 2.238636 2.250517 2.247345 2.246016 2.245549 2.245677 2.244717 2.243803 2.242912 2.240374 2.244619 2.240611 2.241740 2.245585 2.252013 2.249744 2.251935 2.245960 2.248946 2.256615 2.256178 2.260371 2.260639 2.255902 2.261625 2.264885 2.269217 2.267529 2.263699 2.264160 2.260693 2.265082 2.265425 2.259685 2.259487 2.266051 2.264450 2.265716 2.271406 2.266264 2.265892 2.266307 2.264626 2.277037 2.278747 2.275148 2.272676 2.276722 2.273268 2.273488 2.276400 2.275112 2.283907 2.290390 2.293612 2.294474 2.295673 2.300535 2.297861 2.293415 2.292183 2.288936 2.291374 2.292047 2.291292 2.291962 2.291960 2.288155 2.295932 2.292825 2.287001 2.297763 2.291827 2.288341 2.285157 2.286064 2.280177 2.277152 2.274781 2.276583 2.277277 2.282628 2.283101 2.280986 2.287548 2.285774 2.281322 2.280667 2.279482 2.276663 2.275833 2.280809 2.278800 2.282534 2.279327 2.279238 2.279820 2.281213 2.282584 2.288727 2.283452 2.279500 2.281775 2.284719 2.285431 2.284746 2.285585 2.284950 2.280908 2.284040 2.281683 2.288151 2.284229 2.279071 2.282540 2.285786 2.285273 2.290026 2.287435 2.286115 2.297709 2.295524 2.292828 2.290493 2.286123 2.284200 2.278831 2.292982 2.298338 2.309277 2.305440 2.303189 2.302982 2.307611 2.308763 2.307503 2.305450 2.303005 2.308699 2.309200 2.308671 2.304591 2.304276 2.302060 2.303204 2.308377 2.308471 2.314538 2.309936 2.307586 2.306950 2.309170 2.305666 2.301068 2.299813 2.301971 2.304975 2.304043 2.302405 2.301904 2.299692 2.299163 2.301127 2.293870 2.298302 2.293657 2.296193 2.308280 2.310570 2.307070 2.305394 2.305521 2.311371 2.304845 2.308804 2.306308 2.310873 2.309516 2.309071 2.328161 2.330927 2.330944 2.333104 2.335446 2.332099 2.330210 2.326575 2.324460 2.332695 2.340746 2.337580 2.344357 2.338388 2.344421 2.344545 2.341387 2.349038 2.349759 2.357646 2.358388 2.351221 2.347530 2.344812 2.343227 2.342736 2.343432 2.344684 2.339052 2.340386 2.342151 2.337840 2.345414 2.342793 2.340805 2.350229 2.350582 2.351483 2.344062 2.338672 2.333614 2.333790 2.331919 2.334931 2.334431 2.328443 2.327044 2.332658 2.333114 2.331933 2.329788 2.334127 2.334757 2.350191 2.357516 2.352824 2.353861 2.352224 2.353623 2.354441 2.357521 2.357168 2.361082 2.359654 2.356771 2.354031 2.354246 2.351048 2.350600 2.346685 2.340942 2.344416 2.345499 2.344903 2.354667 2.355503 2.357323 2.357708 2.355643 2.355864 2.359277 2.355769 2.347897 2.347108 2.346208 2.349319 2.355709 2.358724 2.355968 2.362721 2.361669 2.360777 2.363575 2.359828 2.362478 2.363067 2.366373 2.361009 2.357253 2.354015 2.356035 2.352923 2.349693 2.355465 2.356706 2.357636 2.355605 2.355558 2.357189 2.352983 2.349189 2.349508 2.346263 2.347365 2.342606 2.343138 2.340497 2.338306 2.332607 2.325320 2.334427 2.333655 2.333322 2.327797 2.324892 2.322026 2.332346 2.332116 2.332671 2.334325 2.331955 2.332728 2.341400 2.344359 2.337674 2.337830 2.336382 2.334439 2.330229 2.333727 2.331785 2.335196 2.332395 2.330243 2.325273 2.320300 2.322679 2.323810 2.321188 2.319256 2.323166 2.320509 2.314916 2.314790 2.310019 2.312516 2.308994 2.311022 2.307516 2.305664 2.302390 2.303414 2.303441 2.309920 2.305413 2.300531 2.303084 2.302710 2.304440 2.308118 2.321006 2.320893 2.318401 2.315068 2.312708 2.315183 2.312061 2.310492 2.320199 2.325303 2.323589 2.330704 2.326666 2.327250 2.319432 2.316855 2.311016 2.314464 2.308039 2.304407 2.304254 2.300925 2.303229 2.308430 2.318230 2.312653 2.315339 2.313537 2.313108 2.312197 2.312094 2.311431 2.310096 2.310611 2.309703 2.311678 2.310157 2.318984 2.313417 2.317390 2.316519 2.316155 2.323456 2.318641 2.323296 2.331527 2.340512 2.346164 2.346189 2.345925 2.354866 2.354053 2.348551 2.347285 2.344414 2.348204 2.344966 2.338623 2.337565 2.337950 2.334721 2.330347 2.329613 2.325850 2.322647 2.318003 2.313093 2.322100 2.322065 2.321513 2.326434 2.326266 2.325678 2.324673 2.332598 2.329248 2.333372 2.337197 2.335699 2.334442 2.333023 2.329510 2.327815 2.329472 2.326390 2.323489 2.318590 2.325677 2.325899 2.325175 2.321039 2.313279 2.317962 2.319869 2.317172 2.314893 2.309656 2.308503 2.307327 2.301661 2.299831 2.297248 2.296674 2.291960 2.292713 2.301036 2.299549 2.296454 2.290318 2.287391 2.282787 2.281486 2.282458 2.282253 2.283917 2.281921 2.278785 2.276750 2.270174 2.266673 2.263699 2.261434 2.261307 2.262558 2.258086 2.255300 2.257096 2.258699 2.262628 2.264993 2.260767 2.259767 2.269125 2.273189 2.276749 2.272578 2.272050 2.275074 2.274853 2.272179 2.269875 2.278379 2.276880 2.275799 2.275425 2.279144 2.278664 2.274840 2.274934 2.272374 2.277093 2.277803 2.273529 2.277190 2.274626 2.280250 2.280090 2.278658 2.274090 2.277737 2.279851 2.275503 2.281416 2.282469 2.281965 2.281923 2.280568 2.281669 2.281269 2.280334 2.278513 2.277232 2.277176 2.278358 2.278828 2.277041 2.280500 2.278162 2.280245 2.277195 2.285189 2.281635 2.291150 2.290254 2.300269 2.303470 2.310159 2.315888 2.316690 2.322981 2.319397 2.319992 2.328175 2.330887 2.331073 2.331369 2.341391 2.337303 2.334519 2.337468 2.336159 2.333904 2.327501 2.334412 2.330739 2.333812 2.335397 2.331306 2.332179 2.334542 2.334890 2.335500 2.332596 2.329702 2.331534 2.331356 2.332760 2.340274 2.335506 2.331326 2.328769 2.329154 2.328280 2.325072 2.323744 2.319190 2.314750 2.313948 2.317249 2.317285 2.313431 2.316874 2.315820 2.315875 2.317724 2.319425 2.318990 2.323506 2.324139 2.332883 2.329776 2.323895 2.322945 2.327246 2.327886 2.326269 2.324661 2.323059 2.330474 2.330801 2.326504 2.321060 2.322263 2.320642 2.317324 2.319150 2.320947 2.322192 2.333261 2.334798 2.329864 2.332414 2.332112 2.330830 2.331343 2.331363 2.329320 2.336440 2.335140 2.333409 2.332473 2.330121 2.324348 2.323220 2.320450 2.314664 2.311466 2.309916 2.313422 2.316888 2.330734 2.332529 2.331107 2.328214 2.327784 2.332790 2.328729 2.344003 2.342331 2.342873 2.342288 2.342447 2.338882 2.335721 2.332147 2.333541 2.334518 2.337707 2.337934 2.335653 2.333095 2.330482 2.333177 2.332559 2.330082 2.329198 2.323994 2.322647 2.324888 2.320857 2.320573 2.319181 2.318443 2.317517 2.328114 2.332214 2.334180 2.338981 2.335187 2.329116 2.331833 2.341582 2.338708 2.336058 2.342548 2.340550 2.338083 2.344028 2.345882 2.349825 2.350978 2.351789 2.347291 2.342965 2.341700 2.337636 2.336748 2.335405 2.341492 2.337881 2.335999 2.335544 2.333828 2.334067 2.337560 2.336183 2.343211 2.338552 2.337929 2.335220 2.336049 2.333218 2.329500 2.328491 2.327150 2.324022 2.324006 2.327250 2.327325 2.324988 2.330298 2.329374 2.330141 2.326212 2.326775 2.324667 2.328784 2.333932 2.334213 2.345322 2.340350 2.337445 2.338082 2.333007 2.328618 2.330013 2.329968 2.329284 2.324473 2.316466 2.314157 2.320176 2.317003 2.311868 2.317621 2.320854 2.318231 2.331539 2.325074 2.330211 2.323689 2.323059 2.323323 2.324838 2.322621 2.316176 2.312880 2.310399 2.311051 2.311193 2.310621 2.320818 2.321424 2.316336 2.310998 2.306245 2.303722 2.307293 2.299522 2.298102 2.292037 2.297137 2.294133 2.290373 2.288865 2.287628 2.281648 2.276311 2.275361 2.272718 2.271150 2.267211 2.269676 2.269300 2.261383 2.259276 2.254893 2.252451 2.253781 2.250724 2.266556 2.265328 2.266928 2.268394 2.268561 2.268836 2.260818 2.264402 2.270905 2.282688 2.290962 2.289551 2.291108 2.286206 2.287738 2.286455 2.285293 2.283141 2.280437 2.275021 2.270194 2.266079 2.271372 2.275685 2.275578 2.276120 2.276531 2.288519 2.286109 2.289704 2.288904 2.296241 2.289394 2.298681 2.307155 2.300511 2.299281 2.293845 2.287711 2.283616 2.279693 2.272601 2.270077 2.276793 2.271223 2.280200 2.278298 2.274806 2.272431 2.271794 2.266466 2.274982 2.272374 2.276748 2.276656 2.273650 2.275156 2.273915 2.273987 2.276013 2.273472 2.267322 2.262925 2.262945 2.265632 2.262039 2.259344 2.262496 2.260735 2.264198 2.263869 2.264759 2.264091 2.267642 2.267782 2.264088 2.265318 2.260684 2.260015 2.260266 2.268336 2.261964 2.261488 2.264439 2.261283 2.266218 2.263942 2.263581 2.262182 2.262227 2.259646 2.256447 2.257699 2.256477 2.252287 2.249243 2.250764 2.248099 2.248921 2.248819 2.250180 2.251026 2.261022 2.266535 2.270767 2.283311 2.295059 2.293969 2.291202 2.296957 2.291225 2.291064 2.288439 2.295615 2.297967 2.297559 2.306760 2.304503 2.310452 2.307374 2.305476 2.302547 2.303893 2.305295 2.300304 2.295596 2.300255 2.294168 2.294304 2.291694 2.299946 2.293499 2.302953 2.302981 2.304837 2.306247 2.306363 2.319065 2.321769 2.327078 2.329362 2.331746 2.330972 2.334338 2.330661 2.331234 2.335742 2.338421 2.338143 2.333190 2.341945 2.350797 2.345270 2.342962 2.340856 2.333891 2.343547 2.340430 2.339798 2.342277 2.347851 2.348291 2.356535 2.360409 2.359264 2.368955 2.378027 2.378612 2.379169 2.375701 2.374988 2.377205 2.375952 2.373368 2.374613 2.375679 2.370784 2.372047 2.366126 2.360031 2.360970 2.359163 2.358603 2.366656 2.366298 2.367036 2.362184 2.363332 2.365248 2.368682 2.366292 2.367139 2.367372 2.371269 2.370873 2.369043 2.374170 2.378171 2.376448 2.372757 2.368670 2.372555 2.372169 2.375105 2.368804 2.375841 2.378319 2.376142 2.374143 2.371827 2.369555 2.363848 2.362050 2.360610 2.361430 2.367730 2.368767 2.367162 2.372515 2.372220 2.367351 2.367074 2.366196 2.365386 2.366122 2.365329 2.364146 2.365841 2.368759 2.368343 2.369651 2.374770 2.368931 2.364280 2.360923 2.360489 2.368417 2.370015 2.367568 2.370148 2.367493 2.367533 2.374031 2.378172 2.374738 2.373441 2.373315 2.366267 2.363028 2.356377 2.353257 2.348301 2.343281 2.338744 2.336473 2.340791 2.334878 2.337896 2.340099 2.335460 2.332632 2.329579 2.328439 2.323935 2.322888 2.324191 2.321616 2.322188 2.326741 2.328138 2.325499 2.323965 2.321980 2.328846 2.324644 2.327048 2.326578 2.326047 2.325432 2.329572 2.339694 2.343520 2.340331 2.335699 2.343829 2.340265 2.336983 2.336260 2.333879 2.332507 2.333636 2.332111 2.327859 2.326406 2.324494 2.319880 2.318154 2.316178 2.313356 2.318862 2.320715 2.319422 2.319435 2.314640 2.313353 2.313516 2.313595 2.314615 2.327320 2.328823 2.325620 2.326122 2.327582 2.324363 2.323333 2.321020 2.318858 2.319167 2.327866 2.331534 2.326675 2.329120 2.332071 2.329041 2.327717 2.326752 2.339881 2.344764 2.342086 2.345558 2.338520 2.335104 2.330837 2.325793 2.328288 2.328365 2.337242 2.340420 2.336349 2.336391 2.341327 2.336880 2.330269 2.329671 2.332960 2.329845 2.327072 2.320483 2.314436 2.310358 2.317988 2.322416 2.320040 2.322168 2.321270 2.320145 2.321521 2.318036 2.316270 2.311784 2.309670 2.304124 2.299990 2.298043 2.295470 2.298950 2.294108 2.299250 2.303718 2.306331 2.309001 2.304878 2.306686 2.307487 2.304656 2.302019 2.296134 2.292801 2.294358 2.295036 2.303602 2.302338 2.304398 2.303043 2.296297 2.291480 2.289162 2.289609 2.286378 2.286753 2.283709 2.282108 2.282253 2.281180 2.279052 2.273867 2.272624 2.278866 2.279967 2.280341 2.283434 2.282486 2.278005 2.277110 2.275375 2.271245 2.265839 2.262044 2.262775 2.266496 2.263449 2.262368 2.257436 2.256278 2.252666 2.259241 2.255624 2.248874 2.246304 2.245720 2.261920 2.265134 2.260235 2.264146 2.265662 2.267657 2.268599 2.269966 2.274790 2.274032 2.273552 2.271970 2.269936 2.273464 2.272134 2.274055 2.273864 2.279087 2.276246 2.275376 2.281275 2.279732 2.279098 2.277056 2.280572 2.285029 2.282241 2.280808 2.279168 2.277068 2.273106 2.267320 2.268488 2.271815 2.271117 2.269549 2.272479 2.276494 2.273837 2.285552 2.287651 2.288985 2.284093 2.289851 2.291262 2.286976 2.287266 2.289133 2.285497 2.281442 2.288524 2.287131 2.284408 2.282387 2.288447 2.281470 2.283384 2.285986 2.283002 2.277986 2.276559 2.277770 2.282550 2.276787 2.274987 2.271301 2.272873 2.275577 2.272626 2.269059 2.264709 2.267285 2.262506 2.266705 2.267220 2.266856 2.265708 2.268833 2.268071 2.274058 2.273898 2.278724 2.285499 2.280933 2.281045 2.279630 2.273861 2.267580 2.273588 2.282138 2.276587 2.274821 2.278028 2.282481 2.280016 2.284058 2.279729 2.278377 2.281124 2.279729 2.280191 2.294270 2.294038 2.292612 2.294239 2.293909 2.289140 2.295207 2.303253 2.306951 2.305155 2.296846 2.294673 2.295627 2.292493 2.289733 2.291684 2.286779 2.284480 2.278241 2.279191 2.284638 2.286210 2.289238 2.288245 2.288053 2.288596 2.299088 2.295455 2.294994 2.298833 2.304363 2.311719 2.311942 2.308992 2.309820 2.310239 2.313002 2.313884 2.319312 2.321886 2.331670 2.329336 2.331503 2.328131 2.336470 2.334296 2.337283 2.336661 2.341702 2.340325 2.344306 2.345701 2.339494 2.333172 2.330678 2.327244 2.324012 2.319260 2.319569 2.317473 2.320154 2.326926 2.319619 2.327783 2.326975 2.324176 2.327169 2.327780 2.326511 2.325595 2.325756 2.320644 2.322377 2.319468 2.317220 2.317080 2.314317 2.317738 2.319653 2.317623 2.314091 2.313364 2.314276 2.318153 2.322213 2.322130 2.321947 2.317016 2.315212 2.323352 2.322812 2.323006 2.325962 2.321053 2.330510 2.334322 2.328544 2.322576 2.318115 2.315708 2.313307 2.314927 2.315949 2.311205 2.317389 2.321499 2.321237 2.332105 2.333791 2.333799 2.328315 2.324447 2.327348 2.329691 2.334023 2.333788 2.334092 
