-1.022515 -0.959219 -0.896237 0.796776 -2.401550 -2.339502 0.982920 2.674690 2.735809 2.918330 2.378233 -0.698930 -1.608112 0.615909 5.027600 -0.959636 -0.264472 -3.010633 -0.534092 -2.409391 1.485340 -0.111724 0.262152 -0.039886 0.814230 4.073326 0.869993 2.525974 0.082333 0.942654 0.536188 2.266704 -0.573087 1.712263 -0.731311 -1.262497 2.392733 -0.245193 -3.164450 -0.340571 -0.208969 -1.648432 -1.516576 0.681128 -4.317146 0.753750 -0.149738 -2.735651 1.067252 0.586768 -2.429361 3.210188 0.246631 -2.277739 -1.794881 -0.643249 -0.551525 -1.081051 -2.595993 -3.113935 -2.034609 -1.446566 1.974120 2.196423 1.490649 1.329987 -1.435967 0.017820 1.649970 0.742848 -0.164462 4.554097 -3.619976 -6.167055 1.103253 -0.906585 0.010413 0.472357 0.693630 -2.873147 -2.557867 -1.182838 2.372269 -1.220784 -0.902702 -2.481794 -1.096183 -2.586398 -1.429748 -4.757858 -1.618822 1.176562 -2.861726 1.115093 2.457068 -1.215648 1.059894 -3.575572 1.308190 -0.158500 -0.151689 0.600888 -2.451334 3.171238 -1.042569 -0.177942 -0.342620 -1.310516 -3.333534 -0.404964 2.248907 -0.624522 -0.610920 0.193947 -1.034720 -2.395368 -2.970671 -0.708944 1.773548 1.937559 -2.076720 1.070076 1.194000 -0.373846 -5.188858 2.003894 1.618441 1.918854 0.667497 0.118595 -1.312556 4.783923 -0.205025 0.189469 2.887209 0.422085 -0.137998 -4.376459 4.288619 5.025983 1.542968 1.341072 0.614682 -0.944544 1.374315 0.934813 0.226179 1.039166 2.290258 -1.588768 1.361795 1.322611 1.134825 0.405321 0.740937 1.884153 1.188813 -2.200131 -2.480917 0.082105 1.137857 1.722334 -0.598060 1.699120 -0.289332 3.827230 -2.169601 -3.809088 -2.874687 0.970621 -1.023253 3.922203 -0.968250 -1.266816 3.091781 1.530496 -2.284325 -1.111567 -1.110487 -1.764432 1.436557 -2.374076 0.184836 1.672702 -1.567676 2.513801 0.390064 0.314915 1.603698 -0.260342 -1.849467 -1.032516 2.404708 4.394334 -2.254486 2.661407 0.608161 -2.423322 0.152240 -1.159696 1.475074 -3.141376 2.819744 1.705024 0.020737 -1.255490 -1.050469 2.098753 1.105943 1.856175 1.269502 -3.857829 -0.475292 1.734711 -0.722862 -2.536413 -1.714412 1.585678 -1.219250 -0.525473 1.811567 -0.319156 1.268361 -1.830717 0.836431 -1.573091 2.113138 0.853210 -2.313563 -0.069947 -2.713345 -0.482720 -2.218184 0.063772 3.998522 0.885952 0.842688 -3.052938 0.532091 -1.485037 -1.107060 -1.778435 -0.058204 0.277180 0.457039 0.755127 1.503479 -0.236072 0.331614 0.332575 3.215869 -0.150825 1.622119 1.264512 -3.432968 -0.409864 1.749121 0.506409 2.880770 2.061967 0.042820 -1.065967 0.399310 2.178424 0.979403 1.948839 1.140962 0.738935 -2.370407 2.560476 -1.525677 3.849750 1.922038 0.146874 -0.188962 -0.621932 -0.485337 -1.749151 0.102152 -5.362954 -2.663807 -0.852945 0.798032 -1.862394 2.827089 0.409167 0.911864 -0.613950 -0.926000 0.373173 -0.231011 -0.771018 0.861411 0.381530 -2.809622 0.205502 0.546171 -1.415803 -3.044641 -0.368162 0.625166 -0.205596 1.671473 1.739760 -1.920587 2.526405 -0.927847 -2.192379 -0.448201 1.088309 1.294707 -2.520046 0.563802 -2.631011 -0.160352 1.621478 -1.988035 -3.776324 3.784306 2.102689 1.394443 1.686005 -0.764722 0.797924 -0.665896 -4.824388 2.395913 -2.862122 0.400048 -1.758629 1.404187 0.656902 2.747064 0.957402 -1.947929 -1.622480 -1.112310 -0.067153 4.300909 -0.623866 -3.633248 1.304658 1.667156 -0.638344 -1.825148 -1.038986 1.215644 3.288874 -0.375933 0.333150 0.530385 -0.920621 -0.516478 -1.602706 -0.129455 -3.067337 -0.832603 2.629612 -1.508530 -0.834612 0.119983 3.665859 0.415181 -0.914601 -1.894200 1.512070 1.998108 -0.058715 1.892512 -0.197010 -0.254283 -1.403223 -1.924806 -1.875627 4.227423 -2.668327 1.378875 -1.914280 0.947322 1.985609 2.255519 -1.605275 1.904464 -0.448250 1.252413 0.833000 -0.440426 2.432049 -1.531110 -0.601104 -2.037078 1.821147 -1.120984 2.276707 3.318947 -0.759243 -0.211157 2.654811 -1.196861 0.402555 0.309791 -0.208718 2.061366 -1.390118 -0.519045 1.379000 3.025384 -3.022268 -0.157572 0.091852 -0.651522 2.215043 3.775911 0.754533 3.964090 0.739086 1.341412 -3.706375 1.157475 1.257433 1.414803 -2.819647 0.087564 0.234517 -1.126494 1.328542 -0.255232 -0.951317 3.680825 -2.115473 1.807894 -0.083354 -1.132348 -1.195250 -3.609543 -1.307674 2.849404 -1.749738 0.076599 2.164169 -1.050374 0.984972 -1.516479 0.637857 2.489987 -1.699361 0.115234 1.874749 -1.638804 -1.239854 -3.301918 -0.793947 4.660706 -2.043182 1.560416 -0.080553 0.729188 -2.744895 0.925938 -1.515353 0.969967 0.070653 0.039656 -0.133427 -0.972121 -0.265151 0.058151 -1.722002 -1.778080 1.575558 -1.057785 0.626780 0.920472 1.086495 -0.857095 1.784419 -1.990281 1.476502 0.668960 1.903455 -2.352598 -0.889081 -0.489272 1.282668 -2.747249 1.370279 0.411081 0.006539 0.102177 -2.274805 1.555933 -0.705224 -2.197198 1.394054 0.809868 4.798982 1.954963 2.460725 -2.612385 -0.774538 2.689286 -0.337741 1.870274 -0.727186 -2.275154 0.330524 1.252848 0.765123 0.378521 0.289980 -0.102854 4.844787 3.548646 2.690284 -2.421418 2.741754 0.207671 -3.116148 -0.971285 0.510886 0.462839 -1.522497 1.442059 -0.394511 -1.595927 1.104367 0.945260 3.099190 1.750226 -1.751361 4.104203 3.413231 -0.691695 -0.045911 -0.982020 -1.443193 1.755658 -0.489259 -2.665206 -1.829576 0.881176 -2.903530 -0.137931 3.118064 1.519077 -2.483785 -0.556686 3.301758 -1.402766 -0.831691 2.983770 -1.846929 -1.756423 -0.411906 1.466938 1.808234 -1.739536 0.780051 0.584215 -2.778542 1.514255 2.782320 2.847740 -1.573593 1.641676 -0.171132 0.095513 1.796562 -0.306578 -0.992980 2.556020 0.162698 1.802377 0.085971 -2.620724 -0.186422 -6.476404 0.041565 -1.056761 -1.473584 -0.302254 2.176914 3.177691 -0.345989 -0.561764 0.307000 -0.133508 0.942604 1.827676 -0.965248 0.867397 -2.135792 -0.664003 2.926967 1.914138 0.670580 0.680450 -0.763267 1.274475 1.240593 -3.818385 2.140953 -2.206270 4.584055 -0.618860 0.466433 -1.360494 -1.570269 -1.242025 -0.722530 0.295115 -0.573645 0.843419 -2.437929 -1.055555 2.986905 2.039268 4.297696 -1.659381 -0.539341 1.516675 -0.267637 -0.538849 1.375900 0.294981 -0.275019 -2.954285 0.330234 -0.019033 -0.249288 -3.632505 -0.597135 0.656847 -1.564182 2.223639 -1.362768 0.670022 -4.269771 1.188567 1.790403 0.847853 1.595157 -1.516147 -0.851698 1.618767 -3.514384 -0.898399 -2.512759 -0.790762 -3.162790 -0.200409 -0.545993 -1.969229 -1.237652 -1.870720 1.693825 -0.841978 -3.952120 0.631211 0.339465 1.194392 2.584795 -0.985191 -2.225167 0.727733 -0.983739 0.466127 1.576480 0.643768 -0.011336 -2.567157 0.613533 2.065427 -0.554076 -2.206624 -1.285643 -4.563476 -0.104899 -1.970610 4.807858 2.281062 0.354052 0.932412 0.585237 2.171620 0.166183 3.176005 -0.195091 -2.139521 -2.912005 1.875107 -2.674784 -1.817781 1.858626 -0.748002 0.409834 -0.563493 1.675212 2.541629 0.357386 -1.072757 -0.260800 -0.445085 2.655463 -1.812377 0.517615 0.180443 1.814410 -0.481996 -2.736141 -3.369779 2.557337 5.474509 -1.771135 0.867666 1.400937 -0.594881 -1.544234 0.183810 -0.719435 -3.226253 -2.627540 1.516297 1.857590 -0.633651 -1.263691 3.231181 0.481668 2.113319 -1.422809 -0.740687 -1.127315 4.162828 0.481686 0.600939 2.172883 -1.183546 -2.313445 -2.166852 1.554047 3.062940 1.201509 2.506543 0.708454 1.146592 0.182443 2.613698 -1.760998 -3.132057 2.270174 -2.345976 0.973806 -0.590039 -0.083335 1.384043 -1.588904 0.717634 -4.146193 0.138845 2.864966 -0.324664 1.095771 -0.064065 0.061142 0.554098 0.886447 -0.998714 5.578671 3.079112 -2.739551 0.664114 -1.772211 -1.654436 0.475284 -3.085291 1.829640 0.545825 0.257495 -0.988975 3.646905 -2.503504 -2.741680 -0.081504 1.446329 0.953210 -2.506127 -1.431806 0.885743 0.456616 -1.085225 -0.226346 -0.429295 2.554553 -1.847240 2.579029 -1.592034 2.491053 -0.232039 -0.978383 -0.984325 -0.205809 0.594890 2.121925 -2.201619 -1.018525 -0.521024 -1.835918 -2.964039 -0.233355 2.348628 -0.883591 -2.130490 -0.620009 -0.248950 -1.972332 2.265150 -2.108720 -0.104252 -0.343730 6.613461 -2.749800 -0.619169 3.286805 -4.075324 0.074676 0.717353 -3.662067 -1.482185 2.493108 -0.546384 -0.328783 -2.882079 -2.901181 -0.658621 1.008272 -0.065233 -0.413596 1.306980 1.025338 1.071776 1.405399 -0.300066 1.414427 0.826459 -4.431726 0.484686 -1.602514 3.367283 -0.099575 0.578599 0.342681 -0.599900 -2.013508 -2.337079 1.240948 4.886535 2.247697 1.748189 -2.716657 1.044254 2.598152 -1.515538 3.562544 1.917150 -2.551856 -1.311567 0.111742 -0.129402 -0.419466 -1.983522 -3.014127 0.939107 3.466412 0.318513 0.508588 -0.534666 5.011254 -3.460094 -1.395376 -2.649519 1.377514 0.853056 -0.862269 0.845327 1.062773 2.274638 -1.158920 0.036171 1.669528 0.812970 3.276612 2.277617 1.628055 1.497421 0.131185 -0.995727 -0.270900 -0.466136 -2.404741 1.274068 5.253546 -5.163169 0.898220 2.831967 2.083449 2.434531 -0.678001 -1.836563 -0.977883 4.146000 0.601971 -1.260883 1.044576 2.733458 -0.255153 -0.962638 0.000869 -0.015838 2.737585 3.196947 -1.136161 3.031337 0.705626 -0.578907 -4.860228 1.125650 1.253486 0.030723 2.749822 0.578680 2.198290 -2.825495 -0.334167 3.197534 0.041661 -3.894893 -1.937712 3.458406 -0.282652 1.527388 -3.395299 -4.474901 -1.285835 0.892449 6.005618 2.794035 -3.004456 0.994059 -1.571558 -1.951205 -1.194368 -1.000159 -3.476273 0.454701 -1.879594 -0.934338 2.535650 1.977075 -0.396144 0.398214 -2.469436 0.400539 2.992295 -0.096463 -1.959681 2.392862 -0.127907 3.351523 -1.235925 -2.989854 -0.244269 -0.084279 0.933366 0.191456 1.757341 1.010196 -0.636044 -1.374204 -1.777492 0.470704 1.429556 0.337227 0.018205 1.876970 -1.904523 1.086108 -0.735508 -1.737980 1.810506 -0.657963 0.920528 -1.154419 -0.216230 -0.145681 0.212618 -0.028439 1.794667 2.439780 1.584204 -0.430885 5.367971 3.386524 2.409859 5.133809 -2.525733 -0.886746 -1.706077 -3.931822 -3.125932 -2.282368 -0.686431 -1.196647 -2.631164 -1.197230 -0.470711 2.993402 -3.242030 0.086496 -0.017992 1.789305 -1.304649 1.518866 3.937543 -0.720030 -0.380258 -5.902480 -1.353320 0.128862 -0.440247 3.472313 -2.913372 -1.587027 2.827661 2.101942 -2.254174 2.479886 -0.181004 1.586387 -2.841740 4.111009 -1.409713 -0.461943 -0.584117 -2.756919 -0.643923 -1.945542 -3.127437 1.060685 1.864841 -0.933649 -2.085591 2.646329 -3.189582 -1.835363 -1.145135 -3.790827 0.034999 1.302678 0.288841 -0.136651 -1.263724 1.357199 -0.718423 1.294200 -5.917825 -1.611819 -4.857687 -2.933461 0.166460 -0.140649 -1.114818 1.148806 -0.745111 -1.646415 -4.069934 -2.122916 -1.868832 -1.906274 -0.431316 2.568314 -2.214759 -1.058272 1.374736 -2.059701 -1.591064 -5.867629 1.248600 -0.399093 -0.803735 0.376095 -2.587710 -0.135567 -1.475285 -2.518490 -1.911509 -1.452077 -0.026990 -0.576094 -0.751648 -2.178253 -2.884708 -0.185802 1.192563 -1.610086 3.523313 0.161790 0.149551 0.076915 0.637012 1.671080 0.831346 3.451286 0.280335 0.210063 -1.343642 -0.424536 1.016420 1.959025 0.556501 0.201572 3.444946 2.215686 3.024700 0.432709 0.782043 2.184682 -1.843250 0.374181 0.149989 -0.132441 2.707247 1.617798 4.216404 1.042646 4.476758 -0.168243 2.123442 1.367471 1.173286 -1.316380 2.739378 1.465068 -2.386480 0.232974 2.329183 2.811453 2.983790 0.506326 -0.776779 1.659857 2.979922 -4.824663 0.388058 0.457000 -4.852686 -1.912199 -3.999097 -1.044114 0.204341 -3.365716 -2.155953 0.428802 -3.067199 2.823179 3.214913 -1.276978 -2.488912 -0.695966 6.331472 -6.630754 4.068068 -3.783070 -7.003861 -4.934809 4.105922 -0.521404 -4.686012 -4.313571 -0.045922 -0.752438 -0.878680 -0.635976 -2.073718 1.679641 0.921703 0.467240 0.253466 0.459681 -2.985231 -1.789465 -2.777525 -0.380237 -1.062419 0.597287 1.635605 -2.313290 -1.257223 1.271255 3.926067 3.441081 0.321886 -2.581000 2.286273 1.466008 3.779766 -2.955471 1.837236 -0.423914 -0.254136 2.850592 1.907979 -2.383744 -1.271918 3.005227 1.611272 3.644621 -0.813475 1.657247 2.847763 2.045414 2.819884 -1.188935 -0.396052 4.831319 1.253072 0.509997 -0.930452 0.079482 -0.051357 1.555458 2.546322 -0.201996 1.601846 -0.141702 -3.018414 -0.048905 -3.120359 2.522495 1.047927 0.479671 1.927408 0.212652 0.535473 -0.921716 -1.871275 0.376163 1.554054 2.191881 -0.455596 -3.114828 -1.325538 -2.160847 0.030632 6.037588 -3.254152 -2.161039 1.082385 -3.624615 0.526433 -2.786319 2.910360 -2.310664 -1.271160 -0.662823 -1.705384 0.304832 -4.681132 0.245164 1.450399 0.525735 3.193231 -0.836640 -0.195934 -2.951525 -1.330427 -2.797248 -0.572851 -2.747929 -0.585770 0.932663 -2.698807 1.589030 -1.908098 0.442280 0.115719 0.118958 1.332582 0.799715 0.492141 0.437709 -1.135532 -0.602469 1.214076 0.524700 -0.022524 -0.036046 3.338882 -2.822142 1.710479 -1.906462 -1.278815 -1.093544 -0.727338 0.605680 4.982217 -3.601338 1.263923 3.077132 -1.136093 0.719248 2.545034 -0.364059 4.368876 -1.816663 -2.592061 1.901981 1.419416 -2.976587 1.396994 2.555988 1.153293 0.846600 1.258637 0.990853 -0.814902 -1.782649 5.401651 1.304257 -1.116451 2.930300 0.807598 -1.071825 1.440087 1.233884 0.282381 0.112505 1.980161 -2.088061 -1.113921 -0.360362 -1.930396 -1.589923 3.753579 0.352617 1.627187 -0.057163 2.282835 -1.560726 2.767091 -3.128979 -0.575887 2.630943 -0.156672 1.226573 2.735472 -1.117785 2.825183 -0.794641 -0.322775 -3.651491 1.050046 -1.517805 0.193057 -0.005145 1.584503 2.760203 0.542488 -2.319002 2.230345 -1.706988 0.307229 1.612938 -0.881839 -0.880095 -1.797098 0.825036 0.358946 -3.001948 -1.981031 1.829270 -0.757259 2.599007 -1.460940 0.912665 -0.862724 0.004880 -1.678044 -2.852325 2.742969 4.483544 -3.960215 -2.067166 -0.615237 1.333885 -1.173015 -2.352270 1.299157 0.303009 3.537804 -2.353908 -0.936857 -0.362041 -3.291379 -0.752569 -0.938238 1.897631 0.498341 -1.017971 -1.762670 1.091009 -2.391896 3.266758 1.612079 2.274892 -0.283709 -0.997045 -0.069458 0.238335 1.651087 3.834520 0.406091 -2.854316 0.503412 -0.794139 1.046747 1.949338 -0.709818 -2.406643 0.436574 -2.673897 -0.129223 -1.973553 0.092330 5.964348 0.432466 -4.314837 -0.271935 2.247159 -0.518417 2.500858 -1.993354 1.610021 -0.517388 -1.193449 -2.337702 0.243175 -1.877964 -4.927794 -0.218025 -0.606156 -0.923089 -0.754924 1.400420 -2.376192 -4.489992 -2.537219 -0.310412 -2.800426 -2.582625 -2.187230 -0.150274 1.381270 -2.150604 0.464841 0.407926 -4.557987 0.270507 -4.960872 -2.171067 0.947516 -1.458562 -0.000278 1.668844 -3.378522 -0.221290 1.854303 -2.188067 1.122031 -2.769111 2.877902 -0.301226 0.187130 1.695129 -5.111903 0.101338 1.549126 2.210557 -1.175287 0.965222 0.850031 -2.359994 0.570103 2.125983 -2.461146 -0.451190 4.545080 -0.534880 -0.458406 3.591717 1.126995 0.634275 2.471867 1.813313 4.065768 -3.682736 -0.248233 -1.735606 0.525516 1.254199 2.057413 0.852962 -2.482203 -0.780585 -1.480639 -2.630867 0.986774 3.077883 2.751703 -3.234247 0.502961 -1.982708 0.836052 -1.307326 -2.980033 0.237264 1.182417 -1.119229 2.657107 0.610033 -0.761291 1.593519 -1.711147 -3.028209 0.776158 -1.601193 1.401467 0.447521 -2.722856 0.077844 -1.010206 1.211736 -2.910338 2.690779 -0.411499 -0.544233 -0.247970 1.926109 -2.036688 0.468630 1.949043 2.683101 1.319680 1.173674 1.189487 -3.687640 1.334692 -4.041925 4.910644 -1.142519 -1.089919 0.786648 1.137527 -0.475660 0.099512 0.279401 -0.139305 1.055935 -2.612797 3.035738 3.415776 -0.833582 -3.436298 -3.160240 2.970592 -2.008106 1.304634 -1.517210 -2.868726 1.550949 -1.639838 4.032767 2.277029 1.498765 1.185255 -0.264208 -1.178518 -0.563184 2.713189 -2.099449 2.878440 -1.597249 -0.738047 1.401005 -1.775261 0.517349 3.345385 0.280603 3.314385 -2.655959 4.030178 1.196805 -2.001943 -1.171523 -2.452420 -0.477200 0.639416 -1.840364 0.196504 -1.739199 1.051403 -2.253451 -2.832787 -1.971620 -0.164972 0.707544 1.463172 -0.992818 -0.291028 2.004777 0.384569 -1.093020 2.522210 -0.368006 2.645338 3.108991 -2.579313 0.375041 -0.922247 -0.190670 -0.504793 2.389825 0.928749 -3.054690 0.058811 2.273309 -1.711448 0.664520 1.932473 0.964426 0.362448 0.583415 -2.455185 0.241653 0.135755 3.250932 -0.207130 -0.217038 1.730265 -1.690277 1.079634 -2.308413 -1.648206 1.687117 -1.234576 0.556376 -1.450127 0.956877 2.591012 -2.988010 -1.384532 -2.565910 -0.363695 -0.851426 -1.273175 1.914523 2.515993 0.302380 4.491762 0.289919 -0.468732 0.154224 1.773655 0.536394 -0.294462 1.086977 -2.531150 0.374699 -0.955892 2.838708 -1.810066 0.430610 1.740447 -0.513458 -1.729131 -0.686392 -2.172366 0.179626 1.132363 0.324685 -0.146126 -1.575062 1.218333 -0.494897 1.521490 4.083349 2.244894 -0.064387 3.899853 -0.195927 -2.452532 2.078081 -0.605853 0.695972 -0.277855 -0.419270 1.423025 -0.529494 -4.495329 0.993405 -1.572198 0.361120 -0.531564 0.824834 1.935191 -1.727378 1.459750 1.577350 1.073373 0.929514 2.118964 -0.434283 -3.334746 -1.814223 2.170374 -0.914899 -0.841064 -0.850938 -2.280104 0.408337 3.704254 0.634337 0.559008 0.530567 0.922388 -0.548380 -1.644309 -1.073135 -4.505476 -0.145960 4.028512 -1.576361 0.826136 -0.709170 0.478853 1.186373 -0.579920 -1.965863 -0.212679 -1.005127 -0.820770 0.715530 1.963874 1.352680 -0.192867 -0.939102 -1.613484 -2.574559 1.336008 -0.170954 2.215917 2.447621 -6.348129 0.626192 0.985735 -2.464607 -1.585690 -2.105495 0.940265 -0.169557 -0.389433 -1.217492 1.062462 1.031733 1.175339 0.746323 0.372410 -0.015038 0.126223 1.743109 -2.152711 -2.889364 -1.783689 0.090115 -0.577378 -0.896428 2.210027 4.381845 -1.911170 0.226994 -2.337642 -1.116783 0.709105 1.094747 -0.467596 0.642435 0.228946 -2.195941 -2.111600 0.854321 3.297446 -0.388436 0.999284 0.429429 -1.185661 -1.549173 -1.952880 0.315432 1.038823 2.921725 -1.897458 -0.992205 -0.050524 -1.072646 -0.191624 1.339053 -3.280705 0.928130 1.540420 -0.732313 1.576372 -0.440653 0.239282 2.230294 2.850868 0.259813 0.227570 0.294769 0.573718 -1.117019 -0.506998 -0.581245 4.121218 -1.237505 1.279096 -3.779623 1.523609 2.730825 3.173020 -1.459311 4.340275 -0.747792 -4.173790 -0.168324 1.462155 1.530838 0.378815 -0.302060 1.892235 -3.347627 0.750583 -0.614034 -2.429302 -1.841999 -3.624250 -1.324389 -1.408125 -1.572560 -0.811284 -0.686962 -0.214901 -1.481353 -0.847747 -2.176896 -1.723721 -1.478110 1.716930 2.006865 2.611621 1.944163 -1.100916 0.530383 -0.456430 -0.274439 2.651386 -1.253503 0.278542 0.064998 0.131920 0.895867 -2.344331 2.188731 -2.156511 -0.207418 -0.220406 0.727219 -2.953921 -0.004277 -0.054213 0.029651 -5.043380 0.403694 2.775875 0.865513 0.513719 -0.879502 1.408364 -0.184144 -1.387259 -0.340903 0.585909 2.771639 1.249678 2.450764 -1.076389 -1.485538 -1.439723 2.531514 4.187653 1.551761 -2.612001 0.678044 -0.822771 1.911848 1.583357 -0.916228 -0.811104 0.767857 1.933880 -0.136184 -3.203553 0.211400 -0.106370 1.334874 -4.124514 -4.397666 -1.334401 1.427992 1.991942 -0.588435 1.293857 -0.308865 2.099337 -0.745702 -1.753508 -1.083428 1.567571 0.087016 2.924770 3.146241 -4.161041 0.476415 -3.484543 4.514391 -2.441862 0.273617 -1.663889 1.040623 -0.679863 1.878074 1.538187 -0.050237 -1.619833 1.385833 3.555235 0.318428 -0.099564 0.387588 0.283586 -0.850021 3.123481 5.137758 1.068726 -0.658313 0.575236 2.568007 0.444471 0.461042 0.421201 1.269619 2.124349 -0.175468 -1.168362 -3.387750 -0.259918 -0.088319 2.404013 -0.768184 -1.108658 1.270154 2.803719 2.487916 -2.420810 0.694729 -2.442747 -2.006647 -1.179509 -1.976297 -0.452374 2.133558 4.202344 0.144385 -0.580564 3.099178 1.019914 -2.012994 -1.062911 -3.121557 -3.025130 0.339748 2.662401 1.153135 -0.788241 -0.958183 0.895955 -1.897936 -0.762539 0.712387 0.569268 -0.732647 2.479203 -1.475975 -1.657410 0.084542 -1.025164 1.029846 -3.290571 1.921291 5.610696 -2.535770 1.323262 -1.194103 -1.829658 -1.519604 0.058229 -2.123686 0.288300 -1.140584 0.821715 -0.939151 -1.447184 0.079582 0.493138 -3.274306 2.804195 -0.950638 3.512620 -2.622824 0.149616 -1.878569 -1.159706 -0.230523 2.657920 0.415667 -0.104199 -1.997522 1.302590 2.774641 -1.047280 1.352786 0.996265 -0.030038 -2.920938 2.999794 -3.019834 -2.388618 0.391971 1.280054 0.462177 0.201805 0.237323 -0.681965 -0.476643 -1.080870 -2.477652 1.329522 -0.148007 2.459537 -0.126848 -3.268594 -0.781136 -0.096992 -0.011730 -0.106192 2.135007 -0.858936 2.247539 0.504848 -0.627339 0.695971 -2.553948 -3.122503 -0.483467 1.428065 -0.024349 -1.009573 -1.922748 -0.579462 0.287441 2.364102 -0.029809 -2.051117 -1.562292 0.417502 -0.081324 -0.184216 -1.871077 0.437695 -1.457243 0.779345 -4.104130 -4.530345 -1.286941 2.957160 0.840552 0.001463 -1.601254 1.359711 -0.125408 -0.820991 -0.002193 1.006274 1.081772 -1.480821 3.769848 1.033271 0.584807 1.721278 -0.078107 0.570849 -1.265862 5.144406 -0.161637 0.310772 -2.113108 -1.429935 -0.108332 -0.175412 -0.454048 2.759923 0.300717 0.543604 -1.013234 -1.398523 2.977679 0.216952 1.457731 1.020367 1.445885 -1.974605 2.337094 5.298882 0.113227 3.614613 3.053645 0.288623 -0.212672 0.019752 0.614436 1.491965 -1.534680 -2.477930 -0.282086 1.203903 -2.469309 -1.160774 2.573791 1.255967 0.722960 1.003385 2.635426 -1.229452 -0.415006 0.648575 1.795881 -0.965435 2.425946 4.740028 -0.342667 -1.138496 -0.909665 -1.812973 0.929488 -3.446869 -1.173083 -1.719682 0.756799 -0.767527 -0.404139 0.539418 2.479153 -1.375261 -0.071095 -3.296075 -2.353731 -2.082667 4.437798 -1.227992 3.674179 -2.191231 1.042672 0.673184 -0.682096 0.239402 -1.911904 -7.520432 0.178743 1.610885 0.528921 0.124739 0.237943 -0.511796 0.780280 1.261179 -1.753504 -1.807750 2.890247 1.042697 0.404290 0.462761 0.757188 -1.869825 -2.156788 -0.748310 -0.966149 1.335872 -0.023816 0.999617 -4.017888 2.702031 -0.359660 -3.309438 0.216972 4.208398 -1.474058 0.564149 1.756979 0.096819 -2.869346 3.967248 -1.959084 -1.452465 0.250928 2.856324 1.626214 -2.574510 -1.039618 -1.302403 0.404666 2.630240 2.653237 1.301546 -1.077658 -1.721433 -1.570530 0.962148 2.328523 -2.568966 -0.460248 0.938747 3.575614 -3.628127 1.591250 -1.459501 -1.178108 1.252377 -2.799810 -0.670146 0.807941 2.608722 -0.511318 -2.125926 1.440415 -0.439816 3.125335 -0.780324 0.518883 -1.181455 0.229437 -2.303722 -2.947346 1.239907 2.140370 0.492514 0.827625 0.364321 1.009844 -0.454770 -0.974883 3.106054 -0.297454 -0.641640 -1.892832 -1.495127 -4.046434 0.609304 -2.972381 0.926371 0.000227 -0.485368 0.024098 -2.906619 -1.478143 3.069136 -0.514159 1.522083 0.478157 0.058517 3.812185 -2.142750 1.122514 -3.555393 0.409329 -4.277938 -2.127456 -1.775259 -0.714026 -2.948334 1.604520 -0.950944 -1.632249 2.419298 0.497454 0.143379 -4.428276 0.017915 1.789994 -1.608593 0.658331 1.868639 0.595243 1.139542 -2.076666 1.323731 -2.462230 -3.570367 -3.835702 2.922776 0.682481 -0.500057 -1.936241 0.944152 -2.132847 -1.965622 -0.853721 2.303360 -3.305524 0.520861 -0.059489 2.980615 0.530164 -0.597731 0.467687 0.747316 0.247552 -1.130920 -1.562154 -1.385485 -0.078091 1.459416 0.786127 -1.171117 -0.436745 -1.551373 2.677337 -3.214231 -2.480489 3.000934 0.845149 -3.054907 1.731868 -0.635995 1.516320 -3.744730 2.971482 -1.411724 1.200706 0.860044 -1.211054 0.595963 -0.842956 4.112338 0.193939 2.586396 2.526663 1.156553 4.696741 0.359993 -2.873494 4.019111 -1.384368 2.520519 -0.350864 0.743317 2.316627 -0.506942 -2.757272 0.751697 -1.733332 -2.556967 0.964602 -1.637695 1.291045 -1.143789 -2.389866 1.020653 0.539301 0.599487 -0.904065 0.428197 0.404373 -0.335870 1.704500 1.217183 -1.012750 -0.294674 1.649612 -1.949102 -1.427382 -2.602131 -2.173387 2.918624 2.801470 -0.095588 1.843486 1.466060 0.478051 1.275962 1.476311 -0.711099 -6.087543 -1.053934 -1.145306 1.329144 -1.303449 0.455714 0.421141 -1.097257 1.886502 0.537687 -0.012933 0.069592 2.618540 0.063127 -1.867711 0.720422 0.647575 1.949884 -0.029440 -0.014976 3.386601 -1.530047 -0.455625 1.853407 -0.852407 -2.093652 0.125976 -1.669095 -3.077129 -0.928591 0.933747 -1.589184 -3.013728 1.512029 -3.990818 0.455085 2.129154 0.983845 2.035366 -3.706133 1.471561 1.443344 2.061095 -1.098965 -1.208009 -1.001075 -0.959686 0.730986 2.401156 -0.877404 2.719213 -1.476759 -0.146708 0.447588 0.246999 3.344492 -1.618806 -1.321162 -2.202752 1.273799 -0.495317 -3.765347 -2.406153 -2.107754 2.503637 1.501242 -0.972334 -1.872724 0.245574 0.649583 2.689140 -3.070558 -2.053840 2.750667 -0.534680 1.426169 2.901534 -0.116010 0.393539 -0.903260 -1.094344 -0.602152 0.259873 -0.216409 2.378799 -2.296606 -1.130298 1.275584 -3.775995 1.454696 2.398429 -5.803131 -0.351661 0.576382 0.092551 0.034105 3.182745 -3.937080 -0.847580 1.315891 -1.903692 -1.677660 1.737446 0.276320 1.441523 0.742247 1.609527 2.870887 0.541141 -0.189308 -2.940503 -0.595590 -2.549920 4.020116 1.725581 -0.979231 1.305658 1.533822 0.186469 1.342216 1.091262 2.328255 2.048248 -1.982487 2.479477 -0.172805 0.069628 -0.968274 2.806280 4.797241 -0.620777 0.057868 -0.684660 1.057271 -0.633042 -0.284040 -1.820728 -0.383178 3.856267 -2.454782 0.433175 -0.755778 -0.594405 -3.267535 -0.323853 1.161433 4.520017 -1.331056 1.756689 -1.705282 -0.331822 0.343156 2.309083 0.958552 0.044985 -0.568055 1.709360 1.080828 -3.441401 -1.627693 0.561226 2.824647 2.928589 0.206751 0.522004 0.631071 -0.548266 0.896116 -0.839434 -4.207577 -3.403552 1.839882 0.269896 1.376360 -0.637179 0.170556 2.268389 -0.998369 0.428780 -1.266548 1.598187 -2.860298 -0.433756 1.231714 2.039702 -0.502242 2.368128 -1.356764 -0.188185 -3.422078 3.173058 1.017625 0.011930 -1.822062 -0.752691 2.648636 0.525864 0.824997 -2.103599 -1.715426 1.970491 -2.380775 0.230922 -0.139553 -2.431442 0.232296 -4.602527 -0.843512 2.255434 2.064856 2.969741 0.346383 -2.441130 1.016834 2.568003 2.231049 1.243934 2.059165 0.930932 0.674841 1.278336 -1.618192 4.035008 0.602315 3.705048 -0.831529 -0.202236 1.768617 1.359562 4.350550 0.041951 -0.083774 2.145433 -3.680083 -3.094208 -0.094159 -2.722508 -2.499008 2.540460 1.028797 1.980796 0.111281 1.532003 -3.021389 0.550018 0.618226 -0.152396 -1.175867 -1.160994 1.880250 -3.733281 -0.082552 0.742573 -1.493259 -2.467562 0.216390 -2.115703 3.117914 -1.976378 0.963046 0.568082 -4.302189 1.334123 1.030881 -1.544375 -2.550249 -0.524877 -0.680508 2.387854 1.495165 -1.832602 0.632503 -0.894308 -1.701478 -2.254416 -0.165398 -2.676661 0.685987 -0.101735 1.485163 2.414659 -2.806059 0.951013 1.208537 -0.961304 -3.624524 -1.068056 -1.590674 1.363585 0.222558 0.336794 -3.153062 -3.054260 -2.927611 3.335581 -0.505101 0.709759 -0.362688 2.773173 -1.317111 0.357928 0.979943 -2.468589 -0.159087 -0.231505 -0.932276 0.533236 -1.981874 0.613256 0.404965 -1.213686 1.472227 -0.872662 -0.543930 -0.349665 -0.538875 1.199571 0.373476 -1.463810 2.645230 1.442824 -0.388501 0.247264 0.349803 -4.672214 -1.119198 0.580135 2.919792 -2.382819 1.770713 -0.521155 3.266893 -0.627131 -0.884453 -5.303041 1.521360 -1.675090 1.904044 1.774902 0.629602 -1.460857 -2.993022 2.362355 -1.256858 -1.202782 -0.850751 0.050309 -0.802332 4.225244 0.888940 -0.453903 1.823509 -2.944615 -1.205098 -0.551600 0.533251 1.107006 1.256146 0.564511 0.659830 -0.768786 0.710915 0.869907 -1.024838 -0.855945 2.233179 0.588896 -1.460277 -2.247653 -1.097309 -0.719674 1.173895 2.184549 0.831426 0.129175 -1.257344 1.450865 -0.347250 1.615580 -0.707401 2.530271 4.410800 4.223558 -0.276931 -0.653389 5.132121 0.256632 0.641443 0.906932 -0.169597 -3.857037 -0.551809 1.244140 0.276075 -0.343069 -3.162161 3.038499 1.722605 2.832712 -2.512852 0.391442 3.449247 -1.181200 3.027907 -1.159809 -1.243542 2.743038 1.581743 -1.955422 -0.878431 -4.049919 -0.624364 0.871830 1.838188 0.495234 -1.637699 -3.981890 1.657729 1.027749 -4.136801 -5.727479 4.253420 1.075256 -1.288104 3.058372 -3.140218 -1.803510 -0.009233 0.382232 -1.626772 -4.990126 1.431377 0.101522 2.653650 0.289590 0.365080 0.594298 -0.567062 -1.314420 -1.905092 -0.180073 -2.407345 -3.751154 -0.869242 0.401984 1.308991 -4.012594 1.339665 -2.514496 0.149691 0.343676 -1.576228 1.783189 2.333351 0.977582 2.890047 -1.368695 -0.063618 -2.800142 -1.326805 2.268749 -2.926973 2.579165 -0.722247 -0.733199 0.122244 2.160081 -1.754096 -2.174934 -1.355127 0.540902 -0.504329 -2.084645 0.020041 1.154313 3.724083 -0.653505 0.299909 2.045655 1.300564 -3.686316 0.145506 -0.575813 3.855648 -1.481363 1.069141 0.337579 -2.997474 -1.071582 3.283723 2.836615 -0.254829 3.052310 -1.432321 4.437309 1.510399 -1.671100 1.133392 -1.033443 -2.491191 -1.163660 -1.306862 3.539011 -0.342899 -0.086141 -1.306114 1.131792 -0.645138 0.265734 0.078949 2.995520 1.068415 -0.718638 1.525223 2.767025 -1.541343 1.617550 1.050834 2.083398 -2.119830 0.846448 1.966151 -0.627205 -1.789210 -0.545215 0.918026 -1.202340 0.999393 -2.759710 -0.066657 -0.295150 -0.036384 1.577790 -0.767640 -2.193024 0.787183 1.834763 -3.742261 1.433498 0.372105 3.247088 1.730740 -3.450697 -1.470406 -0.569180 -0.505999 1.555480 -1.429744 1.980367 -4.204260 -0.290218 3.376912 1.697204 -2.290407 -2.294575 -1.519050 -0.804944 2.520739 1.093056 0.078247 -0.074310 -1.348806 1.494094 1.215839 2.323698 -2.026102 -2.658821 0.197543 3.206903 -0.278592 0.106358 -0.123043 1.643537 -0.560170 -1.260076 -2.151810 1.968244 0.456163 0.189159 -0.069384 -0.057173 1.623680 2.981806 -3.066120 0.584422 -1.382727 0.879396 2.011613 0.863195 0.111520 -1.264096 1.120850 -0.480752 -3.342503 -3.232280 1.179359 1.354648 0.271744 1.494935 -0.883329 -1.721531 1.580177 2.812034 -0.126466 4.878770 10.464844 5.569112 2.578688 3.273102 -3.223393 3.290775 2.333171 4.162658 1.440184 3.628650 0.307253 -0.235508 -2.366120 -3.337439 -1.707749 0.365527 0.651832 -3.732759 0.840029 -4.608174 -5.197965 -0.658519 -0.643931 -2.716116 -1.830996 1.432315 -2.836007 -1.405029 -0.469407 -3.426696 1.469293 -2.723391 -0.114284 2.886250 4.321251 5.602350 -2.824479 1.161705 0.111929 2.320512 -3.340047 -0.148770 2.200764 -2.567938 1.643264 -0.543117 -0.320700 0.286435 -1.215828 1.231178 0.630031 -3.184792 3.407446 1.434832 -2.342440 -0.859303 -0.359192 -1.786823 2.426084 -3.993087 -0.439075 0.782534 5.202937 -3.787773 0.298177 0.037062 -0.997624 1.060589 -2.442983 -1.712730 -1.189589 2.127240 1.042753 2.137289 -0.547136 -1.262001 -3.573784 1.951162 0.681600 -6.318414 2.607659 0.683634 -1.475293 2.607902 3.001517 2.028911 -1.516281 -0.338885 0.539363 3.461827 -4.864186 0.834162 -0.223647 -1.793378 0.503402 -2.970198 -1.748101 -0.966801 -4.285039 -2.207373 -0.262921 0.840037 -6.369378 -0.477574 -0.555167 -0.303161 4.374809 0.693347 0.453245 0.701026 2.393229 2.082600 2.957843 3.287906 2.140348 -0.278805 0.504376 0.674932 0.640831 -4.647145 -2.637110 -0.296442 -0.687790 -0.978029 -0.950947 -0.744443 2.995484 -3.142333 -1.283022 2.591166 1.399131 0.660202 -1.299709 2.566001 -3.149406 0.064304 1.738293 4.201896 0.335014 3.653060 0.610746 -2.007920 -0.705721 1.833406 2.431670 -0.563270 -0.710127 -1.938721 -2.604231 1.969917 1.068618 -4.534726 0.534145 -4.831229 0.713291 -1.664666 0.524912 -1.762703 -2.789161 -0.061509 -1.431934 -1.078819 1.023467 0.175552 -1.561004 0.690803 -1.112731 -2.029240 0.375679 0.152218 -0.117469 -0.386106 -1.912081 -0.949973 0.983307 -2.725441 -1.567960 -1.227437 -4.165121 -2.677633 -0.341619 0.946403 -0.045113 -0.353016 0.013511 -1.331898 -5.307271 2.139865 0.782221 -1.707280 -1.657514 -2.782155 0.015586 -1.782048 2.227951 -2.260171 0.073991 -3.440779 -0.095440 -0.385058 -0.349893 -0.727790 1.047353 -3.008174 0.133902 -0.185289 -1.580387 0.344723 -0.055571 1.366673 0.590319 0.255937 2.042745 -0.361367 0.015805 1.810179 0.960390 2.121572 1.088660 0.760989 -1.003993 1.265932 0.875590 -1.141474 0.751127 1.903403 -0.751285 -2.051012 2.150946 -0.342565 1.319519 0.632832 -1.089737 0.912822 2.175045 1.339710 0.916149 0.521194 -0.988161 2.813157 0.033479 0.163841 -0.095458 -1.659978 2.214319 -2.064184 1.992128 2.652961 -3.394244 1.459280 1.063869 -0.910383 1.099556 -2.749946 -1.488319 0.344345 -0.094493 -0.185946 -0.487284 -0.334263 1.569679 0.898638 -2.428784 0.328516 1.717840 -2.338877 1.731317 0.828176 -2.769972 -0.139665 3.275131 -4.537807 -2.767870 1.366287 -0.936630 -1.278391 -1.026152 -0.603183 -2.302718 -1.547539 -2.347247 3.159325 -0.471161 1.316162 0.607980 -0.826449 1.351743 -2.026516 -4.408333 3.708540 1.339193 -2.866487 -0.476662 3.104011 2.006619 -3.528057 0.084948 1.948282 -0.963703 0.797815 -1.160576 -0.940770 -0.884377 -0.490450 -0.217512 2.844675 3.028521 -4.501554 0.845280 0.819317 -0.974415 3.957817 -1.032038 2.575508 -1.913169 0.981431 0.995591 -0.980995 0.863981 2.183365 0.866375 2.368214 3.113177 -2.366606 -0.983848 -0.257498 1.603036 3.538461 0.060419 0.019409 -1.410870 1.298839 2.914761 0.193885 1.681795 -2.290885 1.925585 2.898665 0.274503 -1.381342 2.676108 6.557145 0.956674 0.943643 3.105103 -0.902461 2.984701 2.200727 1.455463 0.488824 0.395657 -0.972361 1.284367 4.021505 2.647019 1.480748 -0.205427 -1.048876 -0.181561 0.095547 3.142657 2.924642 -0.210812 -1.462787 -0.172104 2.166805 -1.706596 2.168546 -0.571571 4.213629 -0.883940 0.113425 0.525948 -0.770860 1.172803 -3.979132 2.095276 -2.365481 1.288346 -2.573202 0.250837 -1.550512 -0.643103 -2.204398 -1.080404 1.920048 1.067481 -1.346173 -0.418528 -3.216006 -3.280983 -0.452315 -2.267038 -0.723051 0.239941 3.115212 0.321734 -0.725908 0.675159 -0.416000 -0.175592 -1.750832 -1.650580 1.393913 0.179377 1.631458 -1.957486 -0.579843 1.788015 -0.145214 -0.104064 -1.826201 0.080584 -0.352838 -0.375510 -1.766528 0.549926 0.185046 0.261890 0.218477 -1.261870 -0.890007 1.090984 0.648908 1.921223 -2.217317 -1.139221 -0.573933 -1.810571 -1.288758 2.061062 -0.981512 2.216757 -1.789758 1.224013 -0.647708 0.145296 0.163887 -3.343275 0.658934 1.629079 0.523511 0.270940 -1.133441 1.429835 -5.362937 -1.325538 0.565277 -0.703042 0.041153 -0.278247 3.100133 -1.096221 0.219601 -0.405434 3.158424 -3.276773 -2.264448 1.383073 0.205205 -0.623184 -1.714993 -2.330496 0.097926 -3.210482 -0.204793 -0.833493 -1.338594 1.864105 2.762137 -1.188713 1.397559 0.036793 -0.981220 -3.901662 -0.842111 1.788401 -0.317813 2.518850 -1.517348 -0.494178 2.214963 0.777751 0.971293 1.960821 -3.991184 0.338598 1.563634 -0.536325 0.942023 2.363138 -2.957009 1.507673 -0.048772 -1.313843 5.008402 3.063874 1.912690 -1.967388 0.073807 2.446042 -0.052008 -2.964816 0.847313 1.088472 3.365145 -2.662968 -0.786786 1.561566 -0.368541 -1.380139 -0.788839 -2.767997 0.449080 3.053148 0.491565 0.228896 -0.887431 2.155061 0.258106 -1.052201 -0.761610 1.902946 2.162607 1.201734 2.803338 -2.393347 2.518229 -0.766993 0.012878 2.777753 1.014120 0.161228 3.155102 -2.053632 1.048453 1.125942 3.061569 -0.073531 1.323506 -0.589937 -0.605301 3.079820 0.804121 3.748264 0.871329 -0.478114 -3.045476 1.636435 -0.491291 3.720605 0.211457 1.659095 -3.655220 0.157797 1.078773 3.894090 -2.751122 -3.714160 0.624222 0.054002 1.423396 2.742370 0.369382 -1.289885 -0.132009 1.164668 -2.647126 1.000332 1.803238 -1.321039 -1.135113 -1.650314 -3.821713 -0.921295 -0.502539 -2.555712 -1.283455 -1.270075 0.595493 1.934952 -1.213471 -1.701842 2.499735 -4.582038 0.098356 -3.745973 0.210703 0.407963 -1.700801 -0.641779 -1.927029 -2.194975 -1.023870 -0.880052 -2.678204 -1.292816 -3.068432 0.991615 -2.869705 5.001843 0.150069 -2.771042 -1.095550 -3.501566 -2.492424 -1.086455 1.617817 -1.959166 -0.515868 -2.663942 -0.828947 0.054695 0.450357 -0.170816 0.585409 -1.781096 1.970846 -1.862401 1.053081 0.869701 -2.517470 1.672069 2.382135 2.980810 -1.642194 -0.627213 -1.185159 -0.751028 1.294013 3.765785 3.099286 -3.353314 0.219317 -2.038013 4.201417 -2.230485 -1.687599 1.313139 1.427826 0.877051 -0.674841 -1.151157 -0.339185 -1.778867 2.601348 4.104924 0.021043 -0.136523 2.273393 -2.227663 1.037014 -0.550627 1.094284 -2.248178 -2.251226 -1.572881 3.279038 -1.062096 -1.750670 4.167050 -1.826486 0.729590 -0.915323 -3.689620 -1.525101 1.252037 0.761833 -0.398506 -0.319606 0.743892 0.908999 -0.060840 -1.041356 0.417787 2.775590 1.340824 0.725445 -0.774210 -1.446674 1.339638 -0.296503 -0.236052 -1.079714 0.128176 1.346490 0.799417 -2.067851 0.819646 0.881929 -0.779079 -2.218425 1.435722 -1.412610 -0.034200 -1.522545 -2.346447 0.016945 -3.341737 1.344104 0.211572 1.137887 2.289181 -0.112257 -2.193019 2.378544 2.102129 -0.232747 -0.695488 -3.948021 0.194511 1.093561 0.877624 2.158261 -0.507516 -2.713059 0.493498 -0.713175 1.108167 1.118800 3.343751 -1.301929 0.985799 -1.169050 0.140950 -2.881636 -0.497799 -1.208105 0.788272 -0.256632 -0.319081 -2.936870 0.623242 2.910937 -1.063934 -2.536696 -2.188627 -2.134949 1.119422 1.910509 1.262121 2.238894 0.620836 -1.194808 1.906652 1.662219 -2.591678 -1.191470 0.056336 0.966265 0.093112 0.684962 -1.918158 -0.908938 -1.551412 0.767476 -2.078382 3.968866 -3.061584 -0.517278 0.357085 2.673256 -2.380110 -1.514426 0.813983 -2.008334 -0.684545 -0.673185 0.748209 -1.498312 2.605868 1.212677 -2.237435 0.527062 -2.793513 2.750340 0.839176 1.675562 2.552960 0.007984 -1.634400 -0.104408 -1.023941 -2.510675 1.684923 -1.753238 -0.668597 -1.064252 0.088244 -0.586313 0.045071 -0.794042 -0.914554 -1.508033 1.721008 1.963398 -0.683548 1.622637 -1.371277 -1.518794 -0.491368 1.157326 3.173239 -1.070209 -0.948600 -1.996378 0.933864 -1.716591 0.690691 0.082276 0.697407 1.437874 2.505472 0.644302 2.684778 2.753472 -0.357606 0.114093 -1.603386 -3.166964 3.240571 -0.521278 -2.326148 -0.364365 -1.153110 -1.302962 0.773772 2.602557 -3.845906 2.817165 3.656431 4.326361 -0.063235 -1.920974 1.858695 1.117464 -2.199690 -2.079459 -0.006298 0.459948 -3.523631 1.650262 0.139190 1.991032 -1.255259 -1.619220 2.084650 0.206019 3.281720 1.793904 -0.347782 0.550628 -0.398983 -0.449686 4.434328 0.545786 -0.323045 0.704122 -0.684877 0.280980 0.471868 -0.433464 -2.303090 -2.338774 1.580767 0.155446 1.207644 -0.642590 0.066686 -2.397428 2.541946 2.075786 0.686554 -1.828772 1.718416 -1.893562 -1.055224 -1.721864 -1.152520 3.405545 -1.748844 2.303289 1.186338 -0.278853 0.904611 -0.358907 -2.565345 -1.107164 -3.049046 -2.879001 3.029597 -1.813856 0.488780 -0.934582 -2.228387 2.647459 0.082391 -1.161311 -2.463402 0.777374 0.333559 -0.300188 -0.926805 1.363484 -0.505555 -1.315262 -0.494129 0.535469 -0.447218 -0.923215 -0.543805 -2.024218 2.023023 -3.012598 -1.650594 0.070508 -3.784635 -2.997481 0.322169 1.736990 0.246413 -1.242250 0.499594 -0.984632 1.669646 0.053437 -2.300984 0.596899 -0.403657 -0.256102 1.388042 -1.805815 0.825690 -0.922585 0.204747 -1.961023 1.064945 0.408825 -0.543260 1.594370 -0.271702 -1.158301 -1.959323 -0.727886 0.528719 2.430866 -0.563504 0.691370 -4.162195 -0.071318 -0.795667 -2.012503 -0.286870 4.467653 -0.841630 2.140587 -0.653257 2.616483 -0.425052 0.665089 -0.646948 -2.527908 0.782471 -0.724344 0.875721 0.413032 1.096731 0.301598 -0.521576 2.177309 -0.746503 0.455112 1.114731 1.850157 -0.401629 -3.067694 0.825260 2.418618 -3.085522 2.385266 -0.905509 2.010280 1.054291 0.041388 1.155797 -1.240548 0.667679 -1.534901 -1.628781 -0.357984 -1.458085 0.438550 0.158044 2.229491 -2.748013 2.177614 0.610366 1.857577 2.639598 -0.468475 -0.069822 1.129720 -1.182809 -2.209892 -1.665288 3.559437 1.350566 -2.919076 -0.045895 -0.091557 -2.397067 -0.930689 -0.431857 1.870393 -0.223641 -0.009057 0.247152 0.182111 -0.204904 0.575356 -2.485279 0.820569 2.940096 -1.833021 -1.447217 -1.125057 0.161122 -1.301826 -0.378483 4.560561 1.557796 -2.048623 0.846068 -2.075649 0.839944 0.716717 -2.637101 -1.330138 0.759755 -0.555626 0.851493 -2.303930 0.823041 2.164801 -1.087643 -0.196499 0.191202 0.274296 -0.316140 1.476242 1.491769 -1.013410 -1.693219 1.348979 2.458286 2.860101 -1.447515 2.068984 -3.242965 -1.609147 1.274165 0.475805 -5.064088 -2.013689 -0.926212 1.785128 1.192740 1.311020 -0.135237 -0.159947 1.907419 -3.386045 0.643159 -0.704968 -1.444296 1.463767 0.693824 -3.582273 2.286292 -1.676973 -0.616732 2.077162 2.654570 -0.205657 -0.024703 0.225460 1.859608 -2.993922 -2.759666 1.011622 2.335980 1.204428 -1.968548 -0.823120 -0.167720 2.609897 1.398820 -2.497400 0.590332 -0.340243 -1.811276 0.009814 -0.251679 -0.312520 -0.647698 -1.140676 -0.851529 0.188763 1.746105 0.504615 4.436398 1.241045 2.529419 -0.993266 1.363163 -0.759013 