1.687867 1.687867 1.687867 1.687867 1.687867 1.687867 1.687867 1.687867 1.687867 1.265845 1.260253 1.254681 1.249836 1.691179 1.732621 1.730098 1.723791 1.729626 1.752175 1.750903 1.745175 1.778288 1.772290 1.770219 1.767873 1.763847 1.757531 1.752747 1.749985 1.746917 1.739718 1.737410 1.751685 1.750221 1.820656 1.824656 1.835269 1.836731 1.836976 1.834133 1.837424 1.843354 1.860195 1.874823 1.887606 1.887284 1.884677 1.877142 1.870682 1.890555 1.887178 1.879484 1.877549 1.876060 1.882807 1.883587 1.896318 1.893964 1.887358 1.891043 1.888138 1.883741 1.892687 1.906557 1.917314 1.918134 1.918657 1.921260 1.920873 1.917562 1.933879 1.934939 1.940419 1.937053 1.937135 1.936433 1.941672 1.936658 1.935595 1.934816 1.929435 1.929375 1.926894 1.923293 1.918964 1.919775 1.925074 1.925883 1.935764 1.930472 1.924528 1.925501 1.923020 1.921427 1.937528 1.931305 1.938254 1.935354 1.939089 1.948694 1.947722 1.944287 1.952453 1.947009 1.950933 1.945831 1.946150 1.948221 1.947505 1.945034 1.939119 1.944290 1.952561 1.946304 1.946564 1.958413 1.957625 1.954741 1.955697 1.951127 1.954674 1.967981 1.972930 1.974377 1.973698 1.978977 1.979929 1.977734 1.981698 1.981586 1.983979 1.981022 1.977708 1.981223 1.979118 1.975742 1.973236 1.979342 1.972967 1.967359 1.963114 1.973763 1.973698 1.975344 1.970909 1.975344 1.975254 1.968031 1.963203 1.961122 1.955333 1.955466 1.956390 1.953334 1.948633 1.951572 1.948651 1.946422 1.946676 1.957739 1.955954 1.957542 1.963054 1.959817 1.965207 1.961234 1.958142 1.965965 1.962742 1.961849 1.958185 1.956728 1.951240 1.946267 1.952292 1.950550 1.952578 1.947079 1.944084 1.942297 1.936546 1.941620 1.945666 1.941739 1.939946 1.938643 1.941861 1.937190 1.931810 1.929937 1.929702 1.931060 1.931708 1.931601 1.926702 1.934036 1.932102 1.931772 1.931467 1.931832 1.936978 1.936691 1.932049 1.931438 1.928554 1.933666 1.930135 1.927228 1.929790 1.923920 1.928624 1.933922 1.936289 1.935548 1.933677 1.929241 1.928589 1.932520 1.931132 1.924582 1.924906 1.925752 1.937321 1.935942 1.936173 1.930408 1.925102 1.926091 1.924252 1.926616 1.927071 1.929230 1.926985 1.927011 1.925422 1.923634 1.924501 1.925667 1.927126 1.928508 1.924531 1.923021 1.924273 1.926659 1.921995 1.925113 1.924153 1.922574 1.926726 1.925443 1.921614 1.921732 1.921589 1.921630 1.920361 1.921613 1.919967 1.915231 1.910644 1.910962 1.909662 1.904707 1.903917 1.907967 1.906463 1.905090 1.904782 1.912850 1.915346 1.914823 1.921073 1.921321 1.916037 1.911523 1.910839 1.905992 1.905163 1.906753 1.906050 1.902890 1.902269 1.900043 1.896717 1.896223 1.892160 1.900759 1.897811 1.901018 1.901874 1.900673 1.896330 1.901739 1.900211 1.898637 1.907765 1.913166 1.915168 1.921013 1.920189 1.913571 1.911157 1.909618 1.913381 1.912888 1.918374 1.922747 1.922305 1.926828 1.925668 1.925330 1.923012 1.919361 1.915480 1.910925 1.909314 1.905370 1.914777 1.919655 1.924998 1.924618 1.924198 1.928795 1.925414 1.929693 1.930788 1.927402 1.932094 1.928836 1.926060 1.923662 1.925385 1.926363 1.924018 1.926171 1.924516 1.921443 1.920777 1.918570 1.915977 1.912468 1.910059 1.909767 1.907676 1.907548 1.904187 1.903338 1.907133 1.910364 1.904970 1.909418 1.909082 1.908923 1.909730 1.909144 1.909629 1.905466 1.901877 1.899728 1.896746 1.893077 1.891651 1.889038 1.890006 1.886480 1.888166 1.887636 1.885945 1.887637 1.881709 1.877471 1.875626 1.876692 1.877975 1.883683 1.884706 1.886679 1.882902 1.882111 1.878142 1.879546 1.881621 1.879961 1.880624 1.879226 1.881415 1.881277 1.880364 1.878059 1.879633 1.878219 1.872455 1.874235 1.878090 1.873920 1.874941 1.876815 1.874363 1.874991 1.875295 1.873361 1.869548 1.865655 1.866005 1.867420 1.864855 1.862775 1.858966 1.856607 1.852430 1.852059 1.852913 1.848806 1.853811 1.853739 1.856643 1.853956 1.849073 1.847269 1.847211 1.844920 1.847641 1.847916 1.855744 1.851165 1.847846 1.848482 1.853856 1.862405 1.866710 1.867273 1.865003 1.862675 1.870375 1.868548 1.877160 1.885074 1.881444 1.885282 1.885435 1.886560 1.884015 1.880850 1.874577 1.874024 1.873445 1.872236 1.875945 1.878696 1.880781 1.876787 1.875941 1.872613 1.870005 1.868361 1.866870 1.866308 1.864388 1.862618 1.861608 1.859389 1.857579 1.855667 1.849301 1.848012 1.845178 1.838775 1.834879 1.834946 1.837073 1.841592 1.841733 1.840855 1.835832 1.833015 1.836877 1.842190 1.840640 1.837664 1.847184 1.848762 1.853171 1.850740 1.852942 1.854195 1.855320 1.865226 1.864152 1.868579 1.864694 1.866087 1.865531 1.865786 1.866430 1.862828 1.861364 1.856553 1.858028 1.852361 1.851807 1.851663 1.849327 1.847201 1.850229 1.851781 1.855303 1.866604 1.862572 1.864444 1.867846 1.866527 1.864452 1.867685 1.865715 1.860782 1.859172 1.856257 1.854683 1.850387 1.846197 1.843099 1.851174 1.856081 1.855946 1.852776 1.848141 1.852332 1.849114 1.849090 1.844388 1.839873 1.839111 1.839097 1.849889 1.851156 1.853596 1.855163 1.858547 1.859543 1.862551 1.861097 1.855711 1.851345 1.852107 1.854277 1.850441 1.845705 1.843775 1.841718 1.839912 1.837791 1.835846 1.849839 1.850891 1.857491 1.859278 1.856497 1.856095 1.851911 1.864353 1.865293 1.867867 1.870961 1.875472 1.874847 1.874605 1.878380 1.879087 1.875869 1.879077 1.883207 1.887988 1.889507 1.887215 1.885882 1.885165 1.890327 1.894356 1.900207 1.896156 1.892966 1.897369 1.894539 1.889490 1.892650 1.888917 1.887208 1.882997 1.879490 1.881604 1.880969 1.878521 1.877691 1.883133 1.881140 1.877563 1.876501 1.871686 1.868106 1.866665 1.874191 1.872556 1.875790 1.873388 1.868124 1.867198 1.862818 1.857593 1.860938 1.862176 1.864848 1.872749 1.869818 1.869238 1.864304 1.866010 1.863801 1.863342 1.864105 1.865659 1.869294 1.870008 1.875164 1.875378 1.875536 1.873842 1.877452 1.876273 1.872409 1.876149 1.877505 1.876317 1.879162 1.882316 1.881520 1.884281 1.888720 1.886288 1.885913 1.880625 1.881917 1.882888 1.883090 1.884238 1.882190 1.880176 1.883224 1.886796 1.881948 1.887723 1.893325 1.895024 1.896042 1.893339 1.894234 1.891139 1.891709 1.884994 1.886509 1.883654 1.881191 1.881964 1.881647 1.884436 1.882014 1.884876 1.881079 1.887214 1.899494 1.898387 1.897824 1.901030 1.899293 1.897499 1.898216 1.895732 1.895849 1.892603 1.894236 1.895051 1.901035 1.905667 1.905972 1.907433 1.909234 1.905269 1.914617 1.909247 1.908430 1.910188 1.907138 1.919247 1.916229 1.915345 1.923827 1.935269 1.931775 1.930527 1.931494 1.931767 1.935037 1.929376 1.930869 1.929494 1.933583 1.930959 1.941346 1.952691 1.955468 1.956182 1.961232 1.959282 1.954624 1.957688 1.958143 1.960689 1.956734 1.955932 1.964111 1.960925 1.961824 1.961874 1.958077 1.958242 1.961212 1.959319 1.958982 1.963842 1.959471 1.955511 1.955545 1.956369 1.960260 1.961840 1.956727 1.953744 1.951334 1.948746 1.946547 1.942021 1.942678 1.942543 1.937491 1.938173 1.935211 1.936862 1.936416 1.936284 1.933008 1.929369 1.933423 1.935264 1.933236 1.928954 1.933743 1.930502 1.930776 1.926403 1.942710 1.940036 1.935322 1.930909 1.929952 1.930216 1.932258 1.936755 1.931521 1.926213 1.924592 1.931841 1.937116 1.933971 1.931898 1.934785 1.932448 1.932340 1.932181 1.939209 1.939931 1.945239 1.944017 1.942518 1.943055 1.941593 1.936709 1.933487 1.929305 1.929711 1.934265 1.929423 1.937406 1.936850 1.935778 1.933209 1.942480 1.939176 1.948869 1.950668 1.955474 1.950664 1.950093 1.943848 1.944595 1.947758 1.942380 1.939281 1.938117 1.945018 1.943100 1.948586 1.951197 1.947576 1.945948 1.941507 1.945945 1.946097 1.950688 1.950762 1.953016 1.955570 1.951790 1.945149 1.948179 1.950813 1.955791 1.957374 1.959614 1.965603 1.966426 1.969403 1.971050 1.971638 1.974603 1.976873 1.982032 1.978912 1.974858 1.977750 1.977633 1.985305 1.985185 1.984528 1.980353 1.976746 1.974002 1.975454 1.968661 1.978423 1.973310 1.971429 1.970932 1.974553 1.987557 1.991018 1.987876 1.985822 1.995243 2.008353 2.007821 2.008728 2.004248 2.003003 2.002330 2.000568 1.999048 1.996879 1.994476 2.002739 2.006710 2.007506 2.008903 2.012501 2.015441 2.013344 2.018003 2.021302 2.021408 2.021509 2.021784 2.026178 2.022255 2.027313 2.029833 2.033104 2.036711 2.036690 2.041308 2.038731 2.044578 2.043468 2.041166 2.036933 2.042382 2.045688 2.041420 2.045222 2.049552 2.048257 2.052126 2.053717 2.053629 2.060027 2.059985 2.067655 2.067990 2.071970 2.074652 2.080619 2.075904 2.075918 2.075281 2.083512 2.081591 2.076802 2.074921 2.084721 2.081992 2.081163 2.087115 2.092337 2.094514 2.093759 2.105082 2.105256 2.105050 2.102801 2.096074 2.091651 2.089015 2.085857 2.081912 2.083492 2.081715 2.084515 2.084348 2.082567 2.089188 2.089364 2.091946 2.099182 2.094254 2.089063 2.095887 2.103789 2.100041 2.100959 2.099946 2.104457 2.102282 2.105250 2.107804 2.106815 2.107635 2.114721 2.112792 2.111861 2.108988 2.104138 2.100685 2.103891 2.103347 2.108115 2.108201 2.110310 2.109433 2.112861 2.112947 2.115752 2.121368 2.126309 2.126581 2.122846 2.120342 2.116777 2.118412 2.119743 2.116859 2.117847 2.121415 2.124057 2.125015 2.121687 2.120692 2.121061 2.120454 2.130749 2.137118 2.132241 2.137393 2.138719 2.140045 2.133794 2.147505 2.141033 2.138081 2.149470 2.162942 2.173814 2.177534 2.188145 2.198344 2.215112 2.216362 2.221248 2.226213 2.226198 2.226131 2.223930 2.237416 2.236534 2.237560 2.241975 2.236055 2.243813 2.241859 2.238241 2.234441 2.237123 2.234843 2.231407 2.227007 2.225827 2.226191 2.230792 2.229646 2.232323 2.231430 2.230000 2.227569 2.228408 2.228390 2.221632 2.219828 2.219171 2.217133 2.212279 2.216010 2.211500 2.209768 2.215866 2.219161 2.213004 2.206007 2.210138 2.209562 2.206602 2.204149 2.210327 2.212052 2.212043 2.215314 2.216864 2.215107 2.211911 2.211618 2.208691 2.203239 2.203928 2.206004 2.214334 2.212764 2.211934 2.214566 2.222778 2.221383 2.216351 2.214390 2.217028 2.222554 2.219607 2.216512 2.214343 2.219873 2.220358 2.214746 2.213002 2.214701 2.217555 2.216499 2.211347 2.206836 2.200247 2.199586 2.200563 2.200304 2.197161 2.199835 2.200857 2.198872 2.199625 2.196472 2.198078 2.197556 2.199114 2.194494 2.199230 2.196796 2.192531 2.190674 2.190116 2.191577 2.191688 2.186667 2.195302 2.197875 2.204528 2.200750 2.205097 2.203504 2.204005 2.204518 2.210319 2.210628 2.214843 2.212025 2.211891 2.211950 2.217758 2.216366 2.216094 2.215200 2.223010 2.227048 2.230538 2.226303 2.227139 2.232075 2.227246 2.228538 2.233758 2.228775 2.228230 2.229499 2.226300 2.232423 2.232348 2.232009 2.228815 2.229131 2.223510 2.237156 2.237919 2.233049 2.232965 2.235644 2.240655 2.243335 2.241845 2.237515 2.249640 2.246391 2.267020 2.263477 2.262636 2.266919 2.267686 2.270510 2.268980 2.264889 2.260566 2.266022 2.264992 2.258276 2.256902 2.253984 2.258166 2.254153 2.256956 2.258443 2.257631 2.259793 2.257593 2.262516 2.264348 2.260350 2.256348 2.249663 2.248476 2.248021 2.245082 2.241466 2.237434 2.231977 2.232916 2.227684 2.223851 2.220371 2.221541 2.220210 2.216136 2.213701 2.216979 2.214821 2.209628 2.214258 2.217900 2.214863 2.209319 2.216265 2.218803 2.216771 2.221950 2.223793 2.224657 2.220421 2.223170 2.215699 2.219549 2.214761 2.213476 2.208877 2.201830 2.198018 2.202653 2.202830 2.199163 2.200186 2.210012 2.207349 2.212846 2.213137 2.212704 2.211050 2.212027 2.213414 2.213370 2.211008 2.204745 2.204347 2.199113 2.200045 2.194812 2.190684 2.191447 2.194654 2.191983 2.190293 2.186202 2.191885 2.186439 2.185260 2.187518 2.183586 2.180807 2.174176 2.176565 2.179190 2.187015 2.179701 2.176541 2.172680 2.168052 2.165268 2.166497 2.170531 2.164484 2.161184 2.159505 2.155084 2.148779 2.144267 2.143655 2.139854 2.136177 2.138151 2.136550 2.131837 2.125542 2.123010 2.131943 2.130502 2.128092 2.133597 2.131894 2.127697 2.124759 2.124392 2.120489 2.119689 2.117942 2.118148 2.117325 2.113567 2.120800 2.134500 2.132466 2.140523 2.138595 2.139627 2.137027 2.140256 2.143913 2.144810 2.141013 2.142695 2.145322 2.142465 2.152044 2.150824 2.149146 2.148122 2.147042 2.147422 2.142549 2.143754 2.143267 2.143358 2.149508 2.154319 2.152268 2.156034 2.149583 2.163828 2.168918 2.165481 2.165162 2.166127 2.161170 2.156633 2.156037 2.155042 2.154544 2.149900 2.145599 2.141489 2.144293 2.144034 2.139374 2.136170 2.141528 2.144179 2.144688 2.148102 2.148224 2.145343 2.154367 2.150228 2.144823 2.145970 2.145431 2.150318 2.146108 2.140141 2.133328 2.132560 2.130294 2.136052 2.133291 2.129731 2.125293 2.123787 2.118537 2.116445 2.112836 2.106948 2.106248 2.102767 2.098040 2.110479 2.107706 2.107680 2.102520 2.101491 2.105683 2.113743 2.111899 2.107852 2.108054 2.109577 2.104983 2.104624 2.101531 2.106012 2.106857 2.105943 2.104459 2.110412 2.107953 2.108965 2.108986 2.115671 2.120090 2.132180 2.131676 2.128889 2.124257 2.119154 2.116075 2.113087 2.112867 2.110379 2.110907 2.108673 2.104898 2.100766 2.096116 2.094119 2.092401 2.093306 2.086939 2.081452 2.075576 2.076497 2.078364 2.075448 2.080141 2.074802 2.074376 2.074238 2.071708 2.076945 2.075527 2.074947 2.078526 2.078761 2.084423 2.078277 2.080150 2.081828 2.081582 2.080328 2.079958 2.078310 2.086968 2.085029 2.088391 2.081444 2.076909 2.074174 2.074960 2.077389 2.075868 2.076898 2.079720 2.078103 2.073856 2.080023 2.078119 2.076235 2.076955 2.080611 2.080868 2.080875 2.079754 2.076825 2.076457 2.072048 2.072672 2.072576 2.067030 2.068840 2.077384 2.079202 2.075211 2.070956 2.068493 2.067087 2.062586 2.060361 2.058309 2.053732 2.048500 2.055645 2.055119 2.060553 2.065114 2.065412 2.070907 2.072758 2.069708 2.070198 2.064828 2.059917 2.061795 2.054649 2.049356 2.058934 2.054709 2.053135 2.049616 2.046674 2.051535 2.049034 2.064450 2.065150 2.063307 2.060875 2.060345 2.059550 2.064021 2.060059 2.061371 2.061296 2.062148 2.062449 2.060635 2.058484 2.054908 2.049909 2.051656 2.052864 2.048122 2.045426 2.042645 2.046920 2.046400 2.040137 2.043157 2.040303 2.039398 2.035355 2.028181 2.027535 2.028899 2.024724 2.021612 2.018793 2.019377 2.014923 2.011884 2.009962 2.012914 2.013917 2.014246 2.011662 2.009899 2.006381 2.007684 2.010184 2.009896 2.011307 2.013272 2.012214 2.007617 2.007762 2.005111 2.003600 2.002451 1.999883 1.996357 2.008077 2.001537 2.006152 2.002874 2.003182 2.000277 2.019734 2.019527 2.015510 2.018612 2.014234 2.014878 2.013019 2.010024 2.003799 2.001360 1.995437 1.987879 1.991782 1.990032 1.994422 1.997968 1.992303 1.987735 1.982481 1.983583 1.988234 1.987277 1.997373 1.995774 1.991813 1.989813 1.987229 1.992951 1.992535 1.994405 1.993353 1.990330 1.985289 1.981361 1.980651 1.980952 1.979874 1.978870 1.976709 1.975314 1.971293 1.969078 1.963900 1.960423 1.954852 1.958678 1.953276 1.946517 1.944664 1.939780 1.937808 1.934808 1.932976 1.929993 1.927857 1.935282 1.936868 1.931529 1.928001 1.926446 1.924145 1.922123 1.922917 1.926288 1.931294 1.928712 1.927981 1.929870 1.931490 1.933449 1.935614 1.932992 1.929678 1.927220 1.932865 1.929834 1.927843 1.925190 1.927432 1.924138 1.925285 1.922720 1.919313 1.918109 1.919747 1.916850 1.915039 1.910426 1.905044 1.903519 1.900895 1.895425 1.895446 1.894340 1.894665 1.891758 1.888279 1.881209 1.878362 1.879160 1.879482 1.876458 1.879881 1.883145 1.885761 1.885982 1.885735 1.882608 1.882881 1.885260 1.879765 1.875816 1.873940 1.874201 1.876759 1.875284 1.872158 1.877474 1.875337 1.872749 1.867533 1.870288 1.870889 1.869451 1.870226 1.868442 1.865977 1.862981 1.860577 1.860519 1.860286 1.861445 1.862052 1.864525 1.861604 1.867329 1.876550 1.877405 1.871988 1.870459 1.870171 1.867241 1.864524 1.866080 1.866866 1.867258 1.862127 1.860111 1.861621 1.860679 1.859461 1.862138 1.862009 1.867933 1.868438 1.866000 1.867745 1.866571 1.879347 1.885934 1.885712 1.885052 1.889656 1.893494 1.893967 1.891897 1.890189 1.895578 1.900734 1.906474 1.905007 1.903831 1.906140 1.909212 1.908862 1.908788 1.910824 1.907071 1.903193 1.899136 1.896961 1.904549 1.903725 1.901660 1.909132 1.907616 1.904903 1.902038 1.896332 1.898644 1.898163 1.898758 1.894431 1.897978 1.900686 1.904705 1.904172 1.899733 1.899539 1.902023 1.909515 1.903651 1.901784 1.898486 1.898103 1.902503 1.898984 1.896196 1.897946 1.897289 1.896287 1.901069 1.906446 1.905481 1.906007 1.906228 1.909358 1.909097 1.911837 1.907145 1.905685 1.906294 1.907000 1.903840 1.901023 1.898428 1.897663 1.911390 1.910691 1.907649 1.901802 1.902381 1.898553 1.894800 1.903083 1.910799 1.906739 1.908500 1.912167 1.906524 1.904428 1.905237 1.900401 1.896693 1.895177 1.889688 1.889602 1.884396 1.880635 1.881594 1.886024 1.888212 1.885071 1.882609 1.880644 1.879789 1.879049 1.880497 1.876515 1.875061 1.884081 1.883106 1.880266 1.878985 1.875146 1.880342 1.877639 1.881549 1.878601 1.880085 1.882319 1.882575 1.885770 1.882028 1.885800 1.884923 1.896962 1.894698 1.893291 1.892755 1.894177 1.893908 1.895973 1.895921 1.892885 1.888270 1.886390 1.888150 1.888526 1.892434 1.894290 1.893859 1.894744 1.897292 1.906824 1.903758 1.906962 1.904119 1.904436 1.903066 1.898404 1.895304 1.894494 1.892737 1.894425 1.898130 1.899976 1.899869 1.899511 1.896699 1.894675 1.900784 1.903658 1.900987 1.900897 1.897524 1.894130 1.893651 1.890314 1.893629 1.897945 1.896434 1.900127 1.897797 1.900856 1.901834 1.901792 1.907366 1.906151 1.904692 1.908414 1.901615 1.904500 1.904219 1.902807 1.902389 1.899337 1.901724 1.900231 1.903456 1.908607 1.912441 1.911760 1.908345 1.903119 1.902620 1.897813 1.905118 1.909110 1.912730 1.921757 1.923181 1.921028 1.917880 1.915084 1.913455 1.919418 1.921278 1.924702 1.926029 1.930191 1.929871 1.932953 1.926573 1.924032 1.923708 1.925500 1.925839 1.929194 1.924812 1.935326 1.936334 1.947982 1.946027 1.952633 1.952477 1.950837 1.948900 1.957871 1.961945 1.959878 1.963060 1.964114 1.969889 1.968107 1.968184 1.970997 1.977660 1.974977 1.973270 1.974266 1.976901 1.974818 1.977256 1.977651 1.973260 1.978487 1.978190 1.979719 1.976542 1.974457 1.979311 1.976505 1.970030 1.967213 1.965888 1.965507 1.961139 1.956868 1.950052 1.951982 1.954713 1.960177 1.967813 1.972214 1.967184 1.962785 1.970599 1.969064 1.967240 1.970439 1.971316 1.967957 1.965912 1.964504 1.961304 1.964062 1.965100 1.963130 1.958145 1.957662 1.951102 1.946557 1.944535 1.944980 1.948489 1.948753 1.947036 1.949461 1.946080 1.943474 1.943457 1.948075 1.949961 1.952110 1.952636 1.952678 1.959220 1.957252 1.958739 1.963986 1.963872 1.961144 1.956729 1.955884 1.961080 1.960951 1.959600 1.958273 1.958751 1.957099 1.952883 1.952026 1.953349 1.954430 1.953021 1.951293 1.949125 1.947887 1.946315 1.945419 1.954153 1.952870 1.948667 1.949320 1.943741 1.939625 1.939653 1.935987 1.946048 1.941042 1.947981 1.948551 1.948817 1.944968 1.950055 1.946980 1.951061 1.947531 1.946980 1.953041 1.950828 1.954914 1.957128 1.953517 1.953361 1.948314 1.948976 1.949729 1.945682 1.947111 1.948415 1.947511 1.943811 1.939515 1.938537 1.938354 1.941056 1.937732 1.934986 1.931291 1.930509 1.924393 1.928323 1.929036 1.933216 1.931169 1.931908 1.930260 1.931695 1.930986 1.928914 1.936097 1.939526 1.939753 1.936309 1.934503 1.934209 1.928103 1.923726 1.924638 1.927198 1.930907 1.932012 1.929024 1.922553 1.918704 1.921076 1.919516 1.919505 1.922686 1.923729 1.920287 1.918494 1.916777 1.916942 1.916589 1.915879 1.914199 1.909429 1.905982 1.902329 1.898608 1.895687 1.894159 1.897879 1.894708 1.894208 1.901609 1.907280 1.911268 1.914335 1.911825 1.922128 1.920872 1.930821 1.926268 1.923265 1.928468 1.930796 1.933598 1.933741 1.940656 1.943074 1.942040 1.950069 1.947241 1.942115 1.941078 1.947703 1.943119 1.944800 1.946602 1.952182 1.949708 1.947895 1.948258 1.944442 1.941121 1.939060 1.936012 1.937369 1.936105 1.947865 1.949969 1.946835 1.941895 1.947931 1.953369 1.962881 1.961938 1.962188 1.956751 1.957959 1.956773 1.950190 1.961394 1.957267 1.960386 1.956882 1.961831 1.963225 1.964507 1.959215 1.962498 1.959620 1.956353 1.964338 1.972785 1.976014 1.974196 1.973494 1.969474 1.968822 1.968174 1.971460 1.968527 1.974919 1.972282 1.973345 1.969888 1.972356 1.972096 1.978344 1.981660 1.976349 1.977193 1.975421 1.976818 1.979307 1.979612 1.983214 1.982102 1.989794 1.988197 1.987125 1.982170 1.983321 1.979919 1.976140 1.975451 1.976244 1.974104 1.973921 1.978520 1.979606 1.973487 1.978025 1.980765 1.982847 1.977775 1.975259 1.979336 1.977614 1.977134 1.974354 1.971211 1.967092 1.975013 1.970939 1.971856 1.972065 1.969303 1.962584 1.963084 1.963426 1.960095 1.959101 1.962062 1.961512 1.964425 1.973410 1.969928 1.967838 1.962744 1.958780 1.954440 1.954010 1.952672 1.949271 1.950832 1.954501 1.953728 1.953575 1.952875 1.953198 1.952346 1.953264 1.948915 1.952468 1.952836 1.965240 1.963587 1.958869 1.960531 1.967788 1.963218 1.963238 1.958626 1.973760 1.973779 1.975713 1.972505 1.972564 1.968667 1.978343 1.985041 1.984626 1.983092 1.981005 1.984362 1.980793 1.977624 1.982675 1.978075 1.978540 1.975985 1.973885 1.975979 1.970699 1.969187 1.968129 1.966704 1.965677 1.962824 1.958405 1.957476 1.959766 1.959146 1.959613 1.955301 1.952929 1.953671 1.956921 1.952759 1.947536 1.945348 1.949382 1.944901 1.944011 1.940337 1.937087 1.937250 1.938660 1.947785 1.946210 1.946701 1.945035 1.945951 1.946918 1.943146 1.941492 1.938626 1.937151 1.938341 1.937284 1.935263 1.932005 1.927226 1.925663 1.926517 1.922478 1.920814 1.925685 1.922132 1.917791 1.915467 1.913496 1.910724 1.911304 1.911693 1.911056 1.908267 1.904539 1.908048 1.917119 1.919454 1.926700 1.923141 1.932649 1.931576 1.931445 1.934901 1.940316 1.941398 1.941295 1.934998 1.930333 1.931209 1.942306 1.948853 1.948153 1.948215 1.951091 1.949546 1.949968 1.952428 1.952742 1.953607 1.958277 1.962072 1.959436 1.955088 1.953055 1.955402 1.953195 1.948814 1.943272 1.945140 1.948533 1.944713 1.946887 1.947670 1.947736 1.951868 1.948491 1.945740 1.943669 1.941320 1.941947 1.943501 1.943383 1.938905 1.945928 1.945557 1.943937 1.941820 1.945694 1.944890 1.941130 1.941995 1.942628 1.943149 1.946605 1.944964 1.946126 1.947598 1.948674 1.952334 1.950161 1.946410 1.945949 1.946492 1.947891 1.958118 1.961041 1.969293 1.967118 1.964213 1.963067 1.957719 1.955000 1.959648 1.960752 1.968354 1.963082 1.959935 1.955362 1.953472 1.953684 1.950989 1.952698 1.958297 1.956540 1.959431 1.957000 1.958813 1.954480 1.953414 1.951698 1.947948 1.943535 1.954088 1.950100 1.950087 1.953357 1.954151 1.951655 1.952839 1.953243 1.961627 1.959202 1.961191 1.957603 1.961136 1.958714 1.957395 1.954514 1.950510 1.948302 1.948652 1.951869 1.950690 1.946177 1.942508 1.935969 1.935606 1.942115 1.936150 1.940251 1.935533 1.934328 1.940723 1.940685 1.939479 1.939886 1.938990 1.937311 1.944806 1.943967 1.941163 1.936260 1.934138 1.934686 1.937584 1.943808 1.941042 1.940631 1.945841 1.946353 1.959053 1.957408 1.956809 1.962878 1.960955 1.957267 1.960449 1.963392 1.968881 1.974817 1.969728 1.974482 1.974157 1.983297 1.981691 1.981786 1.983155 1.978636 1.976680 1.976445 1.970832 1.966350 1.963216 1.959480 1.963830 1.966539 1.970644 1.967981 1.968917 1.967077 1.967585 1.966803 1.963776 1.959959 1.957895 1.957546 1.958973 1.958093 1.965806 1.962083 1.958915 1.953210 1.955284 1.953681 1.959697 1.959522 1.959964 1.955899 1.959586 1.960394 1.958063 1.957049 1.956876 1.960114 1.970341 1.966223 1.969126 1.971884 1.973129 1.976702 1.973573 1.969450 1.971023 1.971861 1.972645 1.969879 1.968357 1.965291 1.969193 1.970056 1.965331 1.971374 1.966845 1.965889 1.968385 1.966553 1.966364 1.965547 1.961854 1.956864 1.955818 1.955708 1.951946 1.953523 1.961148 1.962095 1.958043 1.953649 1.956914 1.955109 1.953233 1.947914 1.947601 1.947006 1.944039 1.943663 1.943823 1.942305 1.940296 1.950922 1.948045 1.952329 1.953447 1.948502 1.948519 1.949336 1.948061 1.947426 1.947298 1.942186 1.940882 1.944285 1.942302 1.945342 1.949600 1.948302 1.944958 1.945060 1.947193 1.944349 1.950707 1.953052 1.950673 1.951057 1.946149 1.946354 1.941888 1.939260 1.941390 1.939942 1.938301 1.939201 1.937352 1.943825 1.942648 1.938339 1.937042 1.935192 1.930525 1.930967 1.931709 1.933025 1.927732 1.929796 1.929297 1.935249 1.938940 1.940878 1.938054 1.940603 1.938453 1.944671 1.941381 1.940660 1.940261 1.944074 1.939361 1.941653 1.944301 1.940364 1.942053 1.942623 1.941174 1.938427 1.932323 1.931196 1.933621 1.933191 1.933738 1.935093 1.934728 1.933469 1.935743 1.930562 1.926160 1.926588 1.931515 1.929226 1.927493 1.927214 1.922683 1.924137 1.927241 1.922354 1.931843 1.927709 1.930288 1.925759 1.924807 1.921284 1.918217 1.919375 1.920181 1.914711 1.911902 1.914573 1.914046 1.910880 1.908154 1.905032 1.904074 1.902748 1.907413 1.908047 1.916559 1.929672 1.926602 1.924751 1.923873 1.928603 1.928466 1.928659 1.922845 1.926298 1.926630 1.920827 1.920554 1.918732 1.915931 1.910833 1.918230 1.927853 1.928049 1.925267 1.924611 1.930557 1.929425 1.929972 1.934975 1.936655 1.941913 1.937828 1.935405 1.929757 1.930849 1.931118 1.933206 1.936160 1.933491 1.930916 1.923973 1.919855 1.924516 1.922258 1.920716 1.921741 1.922084 1.919104 1.916359 1.915845 1.921604 1.919028 1.922448 1.921970 1.930801 1.941740 1.935170 1.940051 1.935715 1.938014 1.939089 1.941666 1.949176 1.953514 1.956880 1.954100 1.953684 1.955197 1.952364 1.952894 1.953779 1.952104 1.953726 1.957312 1.954514 1.958292 1.956072 1.957640 1.955405 1.957382 1.956300 1.952002 1.952237 1.949875 1.951799 1.951978 1.947115 1.952033 1.951852 1.956350 1.960284 1.961365 1.956940 1.969632 1.970002 1.970468 1.969907 1.967886 1.966838 1.965829 1.964193 1.961822 1.961337 1.958417 1.969194 1.969219 1.966694 1.966576 1.970043 1.965554 1.964617 1.986776 1.994419 1.996213 1.996526 1.997499 1.995409 1.992392 1.998022 1.994465 1.994669 1.992851 1.993404 1.990943 1.997611 1.995970 1.995188 1.995853 1.991777 1.992043 1.998513 2.000089 2.004861 2.000304 2.008270 2.014705 2.019639 2.021475 2.018078 2.013598 2.016518 2.017212 2.033366 2.033231 2.036632 2.046296 2.043306 2.039089 2.037940 2.040431 2.039179 2.033901 2.029306 2.023360 2.021281 2.020258 2.021054 2.020826 2.023781 2.030930 2.030302 2.028278 2.028892 2.027477 2.024165 2.034411 2.031744 2.033096 2.032706 2.032686 2.028803 2.025236 2.021859 2.029327 2.028648 2.025382 2.019400 2.020103 2.020732 2.022203 2.023139 2.030694 2.027968 2.024702 2.024879 2.023166 2.032722 2.034165 2.031194 2.028548 2.031838 2.032873 2.043952 2.041641 2.053420 2.059438 2.053724 2.054933 2.054155 2.053742 2.051295 2.051696 2.048553 2.045778 2.042250 2.044782 2.050064 2.054526 2.058084 2.062192 2.057172 2.054604 2.049443 2.047855 2.045513 2.043607 2.045080 2.042368 2.038344 2.034229 2.032092 2.036206 2.036625 2.041198 2.042742 2.038294 2.038987 2.042609 2.044042 2.049891 2.053105 2.052664 2.059390 2.061340 2.059391 2.056016 2.051291 2.054276 2.056850 2.055130 2.052162 2.051474 2.047685 2.047544 2.048756 2.050017 2.049009 2.055307 2.054387 2.058377 2.054102 2.059488 2.062985 2.065924 2.068202 2.073216 2.072055 2.076807 2.077596 2.076495 2.073080 2.070539 2.076999 2.078593 2.075301 2.072616 2.078065 2.076272 2.078332 2.080325 2.088826 2.088560 2.100868 2.100437 2.103716 2.104239 2.102459 2.113092 2.114641 2.116070 2.117082 2.113231 2.113622 2.109550 2.108146 2.105275 2.108278 2.113605 2.119320 2.118344 2.117233 2.118445 2.113620 2.130950 2.127264 2.128197 2.127672 2.124350 2.124525 2.125103 2.127172 2.130820 2.128949 2.140328 2.137627 2.138794 2.137245 2.139245 2.138519 2.142444 2.140866 2.139515 2.139347 2.145855 2.149785 2.161000 2.162750 2.167392 2.168031 2.168669 2.167823 2.163350 2.159364 2.183697 2.186749 2.186592 2.192929 2.187552 2.187596 2.205501 2.216892 2.221518 2.227102 2.222819 2.220135 2.224297 2.226155 2.230217 2.237264 2.250193 2.256028 2.256443 2.257321 2.264532 2.260757 2.262678 2.261103 2.264897 2.273631 2.271021 2.281568 2.280251 2.276621 2.275636 2.279184 2.281868 2.283117 2.277378 2.273618 2.267201 2.265769 2.259562 2.261434 2.263981 2.261919 2.264006 2.259583 2.258501 2.255466 2.253307 2.252537 2.250508 2.246589 2.243015 2.236923 2.245736 2.243991 2.248892 2.251563 2.246740 2.242719 2.240137 2.238511 2.231726 2.230074 2.223843 2.222902 2.224710 2.220186 2.217628 2.213008 2.209794 2.206217 2.210608 2.206599 2.218367 2.214930 2.215660 2.218868 2.213253 2.208989 2.205852 2.203652 2.205922 2.203193 2.201396 2.208871 2.210927 2.208364 2.207371 2.206384 2.203829 2.200621 2.195860 2.200134 2.198149 2.199271 2.196364 2.196733 2.193533 2.194136 2.196002 2.189995 2.197719 2.196741 2.201054 2.204510 2.197706 2.191094 2.193402 2.188090 2.186980 2.188487 2.186781 2.191469 2.189373 2.187358 2.191641 2.194667 2.196580 2.196124 2.190953 2.185896 2.182147 2.177699 2.175152 2.173472 2.171404 2.169169 2.178907 2.180365 2.176367 2.171097 2.165838 2.158447 2.154523 2.156033 2.150249 2.148554 2.145621 2.145557 2.145199 2.144175 2.142229 2.136846 2.131626 2.133186 2.130376 2.129082 2.132419 2.132772 2.127413 2.126611 2.128804 2.123639 2.120666 2.127980 2.125193 2.121826 2.127500 2.128946 2.124104 2.118073 2.117738 2.112287 2.106596 2.105202 2.105834 2.104232 2.097524 2.101595 2.097974 2.095262 2.090247 2.089943 2.086601 2.087190 2.082481 2.078886 2.075600 2.078660 2.076536 2.075356 2.072792 2.068814 2.062391 2.060275 2.059987 2.057390 2.058131 2.058703 2.054210 2.050803 2.051356 2.052851 2.048461 2.053810 2.053163 2.048495 2.046613 2.043803 2.043273 2.040452 2.037394 2.037307 2.031832 2.030306 2.032135 2.028523 2.023928 2.022470 2.017550 2.015144 2.012462 2.012595 2.010723 2.006802 2.003557 1.998957 1.998617 1.996201 1.991208 1.986897 1.989773 1.986044 1.986142 1.983478 1.983593 1.978965 1.974617 1.975093 1.975582 1.972709 1.976273 1.969868 1.971619 1.972590 1.969748 1.974504 1.976138 1.972247 1.972912 1.966920 1.966550 1.961066 1.962146 1.958099 1.954979 1.952131 1.949816 1.950966 1.952846 1.946889 1.942780 1.939620 1.939300 1.939645 1.937503 1.931294 1.927784 1.924089 1.921929 1.922274 1.917816 1.912886 1.912425 1.908760 1.907760 1.904864 1.901680 1.908338 1.907821 1.910927 1.913111 1.913447 1.908224 1.917220 1.913747 1.909628 1.919219 1.924968 1.922103 1.917686 1.914758 1.915781 1.917980 1.918027 1.913548 1.906783 1.906994 1.903590 1.902120 1.900628 1.904190 1.908913 1.905857 1.902784 1.900939 1.905326 1.908524 1.903844 1.897500 1.899142 1.906695 1.902800 1.900920 1.897359 1.896035 1.897049 1.898370 1.902894 1.902593 1.904040 1.904449 1.902764 1.901437 1.899750 1.898584 1.903907 1.904054 1.899061 1.902863 1.900154 1.895333 1.896225 1.901142 1.899577 1.902856 1.900247 1.898499 1.894177 1.892620 1.887851 1.887989 1.887625 1.882776 1.884444 1.887214 1.883411 1.884935 1.885242 1.880612 1.877972 1.880679 1.881712 1.883638 1.879920 1.878254 1.878517 1.882016 1.881279 1.881518 1.887373 1.884973 1.884435 1.885451 1.886761 1.889047 1.885970 1.887928 1.890711 1.891627 1.895956 1.899380 1.897047 1.898036 1.895823 1.908531 1.916508 1.913344 1.912712 1.912440 1.911681 1.913938 1.909674 1.908353 1.904701 1.897876 1.896789 1.894864 1.903627 1.901187 1.906711 1.902126 1.901688 1.899605 1.897290 1.894943 1.892090 1.896642 1.895355 1.897044 1.898491 1.896750 1.899703 1.898142 1.897735 1.895264 1.891507 1.896763 1.896121 1.890712 1.886540 1.884468 1.890621 1.889792 1.893469 1.893081 1.893690 1.891695 1.894230 1.891392 1.886633 1.891998 1.889324 1.893213 1.891692 1.885991 1.883741 1.879610 1.879263 1.878188 1.876016 1.871409 1.868478 1.871659 1.872856 1.873247 1.873987 1.870130 1.864131 1.863310 1.856406 1.856547 1.856107 1.852238 1.855109 1.851927 1.851921 1.853557 1.848304 1.845126 1.839636 1.841573 1.839734 1.848139 1.850000 1.853429 1.856142 1.853150 1.856828 1.860450 1.861307 1.859683 1.859370 1.854735 1.854024 1.857620 1.858065 1.860503 1.858486 1.859016 1.860588 1.861894 1.859779 1.862661 1.867750 1.862866 1.864958 1.864264 1.864521 1.860850 1.860164 1.858605 1.857285 1.856693 1.865879 1.860221 1.859434 1.863242 1.860550 1.858788 1.859103 1.855149 1.866650 1.867651 1.866610 1.861945 1.865691 1.860947 1.861882 1.857552 1.856862 1.866851 1.873109 1.873440 1.879622 1.879443 1.880937 1.885473 1.886547 1.882883 1.879227 1.880464 1.882183 1.878921 1.874549 1.871463 1.874667 1.869615 1.879217 1.879839 1.877803 1.873608 1.871582 1.878276 1.875578 1.880110 1.879774 1.881388 1.880056 1.880305 1.882305 1.884942 1.883127 1.878514 1.876605 1.879927 1.882568 1.885562 1.882923 1.884031 1.889359 1.887868 1.885200 1.890339 1.889234 1.892457 1.891168 1.891248 1.886661 1.890535 1.890232 1.888206 1.889820 1.893007 1.894581 1.898967 1.895765 1.896625 1.905255 1.905829 1.913700 1.914472 1.917014 1.913922 1.912141 1.913049 1.911329 1.914321 1.912547 1.908423 1.904904 1.901105 1.899149 1.911076 1.914998 1.911361 1.911834 1.911954 1.905911 1.902213 1.906264 1.905296 1.902760 1.897203 1.904534 1.909462 1.915619 1.913744 1.918066 1.920497 1.929150 1.927009 1.922232 1.924384 1.928963 1.931158 1.930580 1.932978 1.938271 1.936804 1.937430 1.938971 1.934279 1.930094 1.928986 1.924379 1.919893 1.915381 1.914886 1.923492 1.925271 1.932662 1.927191 1.924930 1.923689 1.923574 1.920556 1.919985 1.920195 1.919131 1.917890 1.924790 1.920388 1.922808 1.920727 1.921706 1.919151 1.918347 1.919178 1.921870 1.921795 1.923817 1.923475 1.922085 1.920281 1.919457 1.913110 1.913267 1.917114 1.914846 1.910387 1.907845 1.909688 1.906142 1.901210 1.898082 1.896548 1.891354 1.893322 1.897270 1.895111 1.893415 1.897358 1.892817 1.889040 1.886685 1.884286 1.881547 1.878324 1.872861 1.871107 1.869700 1.867891 1.867297 1.863634 1.863552 1.860211 1.857488 1.856568 1.856163 1.853099 1.861811 1.859575 1.862862 1.861726 1.867507 1.865151 1.863648 1.860285 1.859985 1.858821 1.856405 1.856189 1.855309 1.857314 1.855985 1.852512 1.849433 1.849923 1.856170 1.856896 1.852118 1.853961 1.851365 1.861957 1.865674 1.870731 1.871425 1.870590 1.868452 1.876080 1.872451 1.868678 1.863478 1.863007 1.862472 1.856993 1.852272 1.853123 1.850056 1.853556 1.850254 1.850300 1.849055 1.849241 1.850978 1.853045 1.851198 1.856465 1.854545 1.851741 1.858078 1.856121 1.854121 1.850795 1.850628 1.845864 1.845478 1.848470 1.846665 1.845409 1.844335 1.842569 1.839244 1.835343 1.832497 1.829074 1.830839 1.826197 1.823527 1.819111 1.817943 1.815294 1.815746 1.819025 1.817052 1.817259 1.813697 1.811335 1.812553 1.809576 1.808063 1.809986 1.811469 1.813191 1.814305 1.810263 1.809322 1.810752 1.809873 1.815391 1.816140 1.812427 1.809529 1.808141 1.802492 1.813974 1.818595 1.816107 1.815752 1.813614 1.813246 1.821697 1.823961 1.819894 1.818020 1.815841 1.817324 1.830257 1.825668 1.829421 1.827052 1.823875 1.822453 1.820256 1.818121 1.817941 1.815389 1.813158 1.815348 1.810783 1.807668 1.813585 1.810987 1.808040 1.810388 1.808152 1.813291 1.819393 1.816876 1.815718 1.814204 1.819391 1.815059 1.818145 1.820172 1.821968 1.822296 1.819458 1.816451 1.817439 1.820568 1.822385 1.822217 1.816718 1.814681 1.811937 1.807402 1.807195 1.804596 1.804469 1.813558 1.808796 1.806860 1.804679 1.802614 1.801165 1.797433 1.798221 1.798677 1.804886 1.806509 1.799855 1.795253 1.798787 1.803460 1.801986 1.799044 1.794172 1.796424 1.800022 1.801676 1.803700 1.799826 1.801340 1.806031 1.810622 1.812430 1.818084 1.814760 1.824372 1.825764 1.829432 1.835608 1.832862 1.831420 1.828600 1.828792 1.825476 1.821628 1.820043 1.824375 1.820375 1.820771 1.822416 1.827179 1.825932 1.829609 1.826293 1.824798 1.825733 1.822470 1.822400 1.821894 1.821024 1.822481 1.819584 1.825071 1.821725 1.822672 1.818140 1.821464 1.819188 1.816419 1.819788 1.827991 1.825023 1.819975 1.826322 1.830509 1.827106 1.824693 1.819908 1.814021 1.815592 1.818777 1.817325 1.813535 1.807628 1.802427 1.800946 1.799427 1.794854 1.792195 1.788203 1.786010 1.788419 1.784476 1.780602 1.782809 1.783729 1.782391 1.780956 1.785302 1.783863 1.782731 1.780287 1.778314 1.774994 1.775200 1.776143 1.776721 1.774206 1.772411 1.769711 1.771555 1.772018 1.774991 1.775265 1.776312 1.771180 1.769586 1.765147 1.765027 1.765164 1.762553 1.761460 1.764993 1.769344 1.769980 1.767320 1.772530 1.772997 1.768632 1.765109 1.767995 1.765409 1.762154 1.760161 1.764226 1.759145 1.758645 1.756671 1.757703 1.757562 1.755497 1.752472 1.748118 1.743427 1.739014 1.738982 1.739123 1.739359 1.742509 1.740984 1.742067 1.744897 1.740315 1.738582 1.735030 1.731826 1.727831 1.730634 1.727609 1.725598 1.724358 1.724807 1.726495 1.724751 1.719911 1.718700 1.715920 1.716288 1.715525 1.714939 1.710919 1.710099 1.712741 1.713638 1.710104 1.709360 1.712514 1.718590 1.715549 1.718231 1.720581 1.720098 1.716849 1.717289 1.712423 1.711556 1.708360 1.704861 1.701193 1.701909 1.702277 1.703160 1.698737 1.696818 1.696380 1.698482 1.695056 1.696474 1.691741 1.693704 1.689484 1.686559 1.688360 1.685848 1.689275 1.686534 1.686173 1.696014 1.693390 1.697804 1.699447 1.701039 1.697666 1.700075 1.704710 1.700058 1.702228 1.702082 1.701923 1.700153 1.701005 1.701711 1.698301 1.699726 1.705429 1.711109 1.711900 1.710868 1.709684 1.707785 1.705670 1.709720 1.705246 1.706040 1.703024 1.704661 1.704684 1.703125 1.707019 1.706817 1.702323 1.702648 1.702728 1.705638 1.701170 1.700314 1.699954 1.704719 1.703914 1.699499 1.697620 1.698703 1.707188 1.706162 1.715439 1.713625 1.711831 1.713529 1.713487 1.717359 1.723177 1.728035 1.723221 1.718345 1.722239 1.726388 1.724471 1.726164 1.728302 1.732629 1.733745 1.741369 1.739268 1.734762 1.743433 1.743210 1.748081 1.751230 1.755258 1.757321 1.752827 1.748779 1.744846 1.749012 1.749147 1.748533 1.750964 1.752756 1.752971 1.752972 1.757970 1.755537 1.761696 1.760546 1.762760 1.757213 1.761204 1.765364 1.760534 1.763144 1.767694 1.765566 1.774263 1.771802 1.774339 1.772411 1.771864 1.771586 1.771142 1.770754 1.766769 1.770960 1.767072 1.761815 1.763209 1.762035 1.762922 1.766712 1.772200 1.768616 1.763240 1.763888 1.763588 1.768089 1.769980 1.779149 1.785323 1.783344 1.781310 1.780351 1.780338 1.780757 1.791292 1.788805 1.792299 1.793639 1.790035 1.789096 
