5.798552 5.735256 5.672274 5.609603 5.547245 5.485197 5.423459 5.362032 5.300913 5.240103 5.179601 5.119407 5.059519 4.999937 4.940661 4.881689 4.823022 4.764659 4.706598 4.648840 4.591384 4.534229 4.477375 4.420820 4.364565 4.308609 4.252951 4.197590 4.142527 4.087759 4.033288 3.979111 3.925229 3.871641 3.818346 3.765344 3.712634 3.660215 3.608087 3.556249 3.504701 3.453441 3.402470 3.351787 3.301391 3.251282 3.201458 3.151920 3.102666 3.053697 3.005010 2.956607 2.908486 2.860647 2.813089 2.765811 2.718812 2.672093 2.625653 2.579490 2.533605 2.487997 2.442665 2.397608 2.352826 2.308318 2.264084 2.220123 2.176435 2.133018 2.089873 2.046998 2.004393 1.962058 1.919991 1.878193 1.836662 1.795398 1.754400 1.713668 1.673202 1.632999 1.593061 1.553385 1.513973 1.474822 1.435933 1.397305 1.358937 1.320828 1.282979 1.245388 1.208054 1.170978 1.134158 1.097594 1.061286 1.025232 0.989432 0.953886 0.918593 0.883551 0.848762 0.814223 0.779935 0.745897 0.712108 0.678567 0.645275 0.612230 0.579431 0.546879 0.514572 0.482510 0.450692 0.419118 0.387787 0.356699 0.325852 0.295247 0.264882 0.234757 0.204872 0.175225 0.145817 0.116646 0.087712 0.059014 0.030553 0.002326 -0.025666 -0.053425 -0.080950 -0.108242 -0.135303 -0.162132 -0.188730 -0.215098 -0.241236 -0.267146 -0.292827 -0.318280 -0.343506 -0.368506 -0.393279 -0.417827 -0.442151 -0.466251 -0.490127 -0.513780 -0.537211 -0.560420 -0.583408 -0.606176 -0.628724 -0.651053 -0.673163 -0.695055 -0.716730 -0.738188 -0.759430 -0.780457 -0.801268 -0.821866 -0.842249 -0.862420 -0.882378 -0.902124 -0.921659 -0.940983 -0.960098 -0.979003 -0.997699 -1.016187 -1.034467 -1.052541 -1.070408 -1.088069 -1.105526 -1.122777 -1.139825 -1.156670 -1.173312 -1.189752 -1.205990 -1.222028 -1.237865 -1.253503 -1.268942 -1.284182 -1.299225 -1.314070 -1.328719 -1.343172 -1.357430 -1.371493 -1.385362 -1.399037 -1.412519 -1.425810 -1.438908 -1.451816 -1.464533 -1.477060 -1.489398 -1.501548 -1.513509 -1.525284 -1.536871 -1.548272 -1.559488 -1.570519 -1.581365 -1.592028 -1.602508 -1.612805 -1.622921 -1.632855 -1.642608 -1.652182 -1.661576 -1.670791 -1.679828 -1.688688 -1.697370 -1.705877 -1.714207 -1.722362 -1.730343 -1.738150 -1.745784 -1.753245 -1.760534 -1.767652 -1.774599 -1.781377 -1.787984 -1.794424 -1.800695 -1.806799 -1.812736 -1.818507 -1.824112 -1.829553 -1.834830 -1.839943 -1.844894 -1.849682 -1.854309 -1.858775 -1.863081 -1.867228 -1.871215 -1.875044 -1.878716 -1.882231 -1.885590 -1.888793 -1.891841 -1.894734 -1.897475 -1.900062 -1.902496 -1.904780 -1.906912 -1.908894 -1.910726 -1.912409 -1.913943 -1.915330 -1.916570 -1.917663 -1.918611 -1.919413 -1.920071 -1.920585 -1.920956 -1.921184 -1.921271 -1.921216 -1.921021 -1.920686 -1.920212 -1.919599 -1.918848 -1.917960 -1.916935 -1.915774 -1.914478 -1.913048 -1.911483 -1.909785 -1.907954 -1.905991 -1.903897 -1.901672 -1.899317 -1.896832 -1.894219 -1.891478 -1.888609 -1.885613 -1.882491 -1.879244 -1.875872 -1.872376 -1.868756 -1.865013 -1.861148 -1.857161 -1.853054 -1.848826 -1.844478 -1.840012 -1.835427 -1.830725 -1.825905 -1.820970 -1.815918 -1.810752 -1.805471 -1.800076 -1.794569 -1.788949 -1.783217 -1.777374 -1.771420 -1.765357 -1.759185 -1.752904 -1.746515 -1.740019 -1.733417 -1.726708 -1.719894 -1.712974 -1.705949 -1.698820 -1.691585 -1.684246 -1.676802 -1.669254 -1.661603 -1.653848 -1.645990 -1.638028 -1.629963 -1.621795 -1.613524 -1.605150 -1.596672 -1.588091 -1.579407 -1.570619 -1.561728 -1.552733 -1.543635 -1.534433 -1.525128 -1.515719 -1.506207 -1.496591 -1.486871 -1.477048 -1.467121 -1.457090 -1.446955 -1.436717 -1.426374 -1.415928 -1.405378 -1.394724 -1.383966 -1.373103 -1.362137 -1.351067 -1.339893 -1.328614 -1.317231 -1.305744 -1.294153 -1.282458 -1.270658 -1.258754 -1.246745 -1.234632 -1.222415 -1.210093 -1.197667 -1.185136 -1.172501 -1.159761 -1.146916 -1.133967 -1.120913 -1.107754 -1.094491 -1.081122 -1.067649 -1.054072 -1.040389 -1.026601 -1.012709 -0.998711 -0.984608 -0.970401 -0.956088 -0.941670 -0.927147 -0.912519 -0.897786 -0.882948 -0.868004 -0.852955 -0.837800 -0.822541 -0.807175 -0.791705 -0.776129 -0.760447 -0.744660 -0.728768 -0.712770 -0.696666 -0.680457 -0.664142 -0.647721 -0.631195 -0.614562 -0.597824 -0.580980 -0.564031 -0.546975 -0.529813 -0.512546 -0.495172 -0.477693 -0.460107 -0.442416 -0.424618 -0.406714 -0.388704 -0.370588 -0.352365 -0.334036 -0.315601 -0.297060 -0.278412 -0.259658 -0.240797 -0.221830 -0.202756 -0.183576 -0.164289 -0.144896 -0.125396 -0.105789 -0.086076 -0.066256 -0.046329 -0.026296 -0.006155 0.014092 0.034446 0.054907 0.075475 0.096150 0.116933 0.137823 0.158821 0.179929 0.201145 0.222471 0.243906 0.265452 0.287109 0.308877 0.330757 0.352749 0.374853 0.397069 0.419400 0.441843 0.464401 0.487073 0.509855 0.532744 0.555738 0.578832 0.602023 0.625309 0.648687 0.672151 0.695701 0.719331 0.743040 0.766823 0.790678 0.814601 0.838589 0.862639 0.886748 0.910911 0.935127 0.959391 0.983700 1.008052 1.032443 1.056870 1.081328 1.105817 1.130331 1.154867 1.179423 1.203996 1.228581 1.253175 1.277777 1.302381 1.326985 1.351586 1.376180 1.400764 1.425335 1.449890 1.474425 1.498937 1.523423 1.547880 1.572304 1.596692 1.621040 1.645347 1.669607 1.693819 1.717978 1.742082 1.766127 1.790110 1.814028 1.837878 1.861656 1.885358 1.908983 1.932526 1.955984 1.979354 2.002633 2.025817 2.048904 2.071889 2.094770 2.117544 2.140207 2.162756 2.185187 2.207498 2.229685 2.251745 2.273674 2.295470 2.317129 2.338648 2.360024 2.381252 2.402331 2.423257 2.444027 2.464637 2.485084 2.505364 2.525476 2.545414 2.565177 2.584761 2.604162 2.623377 2.642385 2.661140 2.679594 2.697701 2.715433 2.732798 2.749809 2.766479 2.782820 2.798846 2.814569 2.830001 2.845155 2.860045 2.874682 2.889078 2.903236 2.917160 2.930853 2.944317 2.957555 2.970570 2.983365 2.995943 3.008306 3.020458 3.032402 3.044139 3.055674 3.067009 3.078147 3.089090 3.099842 3.110406 3.120784 3.130979 3.140994 3.150832 3.160496 3.169989 3.179313 3.188471 3.197467 3.206303 3.214982 3.223507 3.231880 3.240105 3.248185 3.256122 3.263919 3.271580 3.279106 3.286501 3.293768 3.300909 3.307928 3.314827 3.321609 3.328277 3.334834 3.341283 3.347626 3.353865 3.360001 3.366035 3.371966 3.377795 3.383522 3.389148 3.394674 3.400099 3.405425 3.410651 3.415777 3.420806 3.425735 3.430567 3.435302 3.439940 3.444481 3.448925 3.453274 3.457528 3.461687 3.465751 3.469721 3.473597 3.477380 3.481070 3.484667 3.488173 3.491586 3.494909 3.498141 3.501282 3.504333 3.507295 3.510167 3.512951 3.515646 3.518253 3.520773 3.523205 3.525551 3.527810 3.529984 3.532072 3.534075 3.535993 3.537828 3.539578 3.541245 3.542828 3.544329 3.545748 3.547085 3.548341 3.549516 3.550610 3.551624 3.552559 3.553414 3.554190 3.554887 3.555507 3.556049 3.556513 3.556901 3.557212 3.557448 3.557607 3.557692 3.557701 3.557637 3.557498 3.557286 3.557000 3.556642 3.556211 3.555709 3.555135 3.554490 3.553775 3.552989 3.552133 3.551208 3.550213 3.549150 3.548019 3.546820 3.545554 3.544221 3.542821 3.541355 3.539823 3.538225 3.536563 3.534835 3.533043 3.531187 3.529266 3.527283 3.525236 3.523126 3.520954 3.518720 3.516424 3.514066 3.511648 3.509168 3.506629 3.504029 3.501369 3.498650 3.495872 3.493035 3.490140 3.487187 3.484176 3.481108 3.477982 3.474800 3.471562 3.468268 3.464918 3.461513 3.458052 3.454538 3.450969 3.447346 3.443669 3.439939 3.436156 3.432321 3.428433 3.424494 3.420503 3.416461 3.412368 3.408224 3.404030 3.399787 3.395494 3.391152 3.386760 3.382321 3.377833 3.373298 3.368715 3.364085 3.359408 3.354685 3.349916 3.345101 3.340241 3.335335 3.330385 3.325390 3.320352 3.315270 3.310144 3.304976 3.299764 3.294511 3.289215 3.283878 3.278500 3.273080 3.267620 3.262120 3.256580 3.251000 3.245380 3.239721 3.234023 3.228284 3.222506 3.216688 3.210831 3.204933 3.198996 3.193019 3.187002 3.180945 3.174848 3.168711 3.162533 3.156316 3.150059 3.143761 3.137423 3.131045 3.124626 3.118168 3.111668 3.105129 3.098549 3.091928 3.085267 3.078566 3.071824 3.065041 3.058218 3.051354 3.044449 3.037503 3.030517 3.023489 3.016421 3.009312 3.002162 2.994971 2.987739 2.980466 2.973152 2.965797 2.958400 2.950962 2.943484 2.935963 2.928402 2.920799 2.913155 2.905469 2.897742 2.889973 2.882163 2.874311 2.866418 2.858483 2.850506 2.842488 2.834428 2.826326 2.818182 2.809996 2.801769 2.793500 2.785190 2.776841 2.768453 2.760028 2.751568 2.743072 2.734544 2.725982 2.717390 2.708767 2.700116 2.691437 2.682731 2.674000 2.665245 2.656467 2.647668 2.638847 2.630008 2.621150 2.612275 2.603384 2.594478 2.585559 2.576628 2.567685 2.558733 2.549771 2.540802 2.531824 2.522839 2.513847 2.504847 2.495840 2.486827 2.477807 2.468781 2.459750 2.450712 2.441670 2.432622 2.423569 2.414512 2.405450 2.396385 2.387315 2.378242 2.369165 2.360086 2.351003 2.341918 2.332831 2.323742 2.314651 2.305558 2.296464 2.287369 2.278273 2.269177 2.260080 2.250984 2.241887 2.232791 2.223696 2.214602 2.205509 2.196418 2.187328 2.178241 2.169156 2.160073 2.150993 2.141916 2.132842 2.123772 2.114706 2.105644 2.096586 2.087532 2.078484 2.069441 2.060402 2.051370 2.042343 2.033323 2.024309 2.015301 2.006300 1.997307 1.988321 1.979342 1.970371 1.961409 1.952455 1.943509 1.934573 1.925645 1.916727 1.907819 1.898921 1.890032 1.881155 1.872287 1.863431 1.854586 1.845753 1.836931 1.828121 1.819324 1.810539 1.801766 1.793007 1.784261 1.775528 1.766809 1.758104 1.749414 1.740738 1.732076 1.723430 1.714799 1.706184 1.697584 1.689000 1.680433 1.671882 1.663349 1.654834 1.646337 1.637860 1.629403 1.620966 1.612551 1.604157 1.595786 1.587439 1.579115 1.570816 1.562542 1.554294 1.546072 1.537878 1.529711 1.521573 1.513464 1.505385 1.497336 1.489319 1.481333 1.473379 1.465458 1.457570 1.449715 1.441893 1.434105 1.426351 1.418631 1.410945 1.403295 1.395679 1.388098 1.380553 1.373043 1.365570 1.358133 1.350732 1.343366 1.336036 1.328740 1.321480 1.314254 1.307063 1.299906 1.292782 1.285693 1.278636 1.271613 1.264623 1.257665 1.250739 1.243846 1.236984 1.230154 1.223356 1.216588 1.209851 1.203145 1.196470 1.189824 1.183208 1.176622 1.170065 1.163537 1.157038 1.150567 1.144125 1.137711 1.131324 1.124966 1.118635 1.112331 1.106055 1.099805 1.093583 1.087387 1.081217 1.075074 1.068956 1.062865 1.056799 1.050759 1.044745 1.038755 1.032791 1.026851 1.020936 1.015046 1.009180 1.003338 0.997520 0.991725 0.985954 0.980207 0.974483 0.968782 0.963103 0.957448 0.951816 0.946208 0.940624 0.935065 0.929531 0.924024 0.918543 0.913089 0.907662 0.902264 0.896894 0.891553 0.886242 0.880960 0.875710 0.870491 0.865303 0.860148 0.855026 0.849936 0.844880 0.839858 0.834870 0.829916 0.824996 0.820112 0.815263 0.810449 0.805671 0.800930 0.796225 0.791557 0.786926 0.782332 0.777776 0.773258 0.768779 0.764338 0.759936 0.755573 0.751250 0.746967 0.742724 0.738522 0.734360 0.730240 0.726161 0.722124 0.718128 0.714176 0.710266 0.706399 0.702575 0.698795 0.695059 0.691367 0.687719 0.684117 0.680559 0.677047 0.673581 0.670161 0.666788 0.663461 0.660181 0.656949 0.653764 0.650627 0.647538 0.644498 0.641507 0.638565 0.635673 0.632830 0.630038 0.627295 0.624604 0.621964 0.619375 0.616838 0.614353 0.611920 0.609539 0.607212 0.604938 0.602717 0.600550 0.598438 0.596380 0.594376 0.592428 0.590535 0.588698 0.586917 0.585192 0.583524 0.581912 0.580358 0.578862 0.577423 0.576043 0.574721 0.573458 0.572254 0.571109 0.570024 0.569000 0.568035 0.567131 0.566289 0.565507 0.564787 0.564129 0.563533 0.563000 0.562530 0.562122 0.561779 0.561498 0.561282 0.561131 0.561044 0.561022 0.561065 0.561174 0.561349 0.561590 0.561898 0.562273 0.562714 0.563223 0.563801 0.564446 0.565159 0.565941 0.566793 0.567713 0.568703 0.569764 0.570894 0.572095 0.573367 0.574710 0.576125 0.577611 0.579170 0.580801 0.582505 0.584282 0.586132 0.588056 0.590054 0.592126 0.594273 0.596494 0.598791 0.601164 0.603612 0.606136 0.608737 0.611415 0.614170 0.617002 0.619912 0.622900 0.625966 0.629111 0.632335 0.635638 0.639020 0.642482 0.646023 0.649641 0.653337 0.657110 0.660959 0.664884 0.668884 0.672958 0.677106 0.681327 0.685621 0.689987 0.694424 0.698932 0.703510 0.708158 0.712874 0.717659 0.722512 0.727432 0.732418 0.737471 0.742588 0.747771 0.753017 0.758327 0.763700 0.769135 0.774632 0.780190 0.785808 0.791486 0.797224 0.803020 0.808874 0.814786 0.820754 0.826778 0.832859 0.838994 0.845183 0.851427 0.857723 0.864072 0.870473 0.876926 0.883429 0.889982 0.896585 0.903237 0.909937 0.916685 0.923480 0.930321 0.937209 0.944141 0.951119 0.958140 0.965205 0.972313 0.979463 0.986654 0.993887 1.001160 1.008473 1.015825 1.023216 1.030645 1.038111 1.045614 1.053153 1.060728 1.068338 1.075982 1.083660 1.091371 1.099114 1.106890 1.114697 1.122534 1.130400 1.138293 1.146210 1.154148 1.162105 1.170078 1.178066 1.186064 1.194072 1.202086 1.210104 1.218123 1.226141 1.234156 1.242164 1.250163 1.258152 1.266127 1.274086 1.282026 1.289945 1.297840 1.305709 1.313549 1.321359 1.329134 1.336874 1.344574 1.352234 1.359850 1.367419 1.374940 1.382410 1.389826 1.397185 1.404487 1.411726 1.418902 1.426012 1.433053 1.440023 1.446919 1.453739 1.460481 1.467141 1.473719 1.480217 1.486635 1.492975 1.499238 1.505425 1.511537 1.517575 1.523541 1.529435 1.535259 1.541013 1.546699 1.552318 1.557871 1.563359 1.568783 1.574144 1.579444 1.584684 1.589864 1.594986 1.600050 1.605059 1.610013 1.614912 1.619760 1.624555 1.629300 1.633996 1.638643 1.643243 1.647797 1.652306 1.656771 1.661194 1.665574 1.669915 1.674215 1.678478 1.682703 1.686892 1.691046 1.695167 1.699254 1.703310 1.707335 1.711331 1.715298 1.719238 1.723152 1.727041 1.730906 1.734748 1.738569 1.742369 1.746149 1.749911 1.753656 1.757385 1.761099 1.764799 1.768486 1.772162 1.775827 1.779483 1.783131 1.786772 1.790407 1.794038 1.797666 1.801292 1.804918 1.808544 1.812171 1.815802 1.819437 1.823077 1.826724 1.830379 1.834043 1.837717 1.841403 1.845102 1.848815 1.852543 1.856287 1.860049 1.863830 1.867632 1.871454 1.875300 1.879169 1.883063 1.886983 1.890931 1.894908 1.898915 1.902953 1.907023 1.911127 1.915266 1.919441 1.923653 1.927904 1.932195 1.936526 1.940900 1.945318 1.949780 1.954288 1.958843 1.963446 1.968099 1.972803 1.977559 1.982369 1.987232 1.992152 1.997128 2.002163 2.007257 2.012412 2.017628 2.022908 2.028252 2.033661 2.039137 2.044681 2.050295 2.055979 2.061734 2.067563 2.073465 2.079443 2.085498 2.091630 2.097842 2.104133 2.110506 2.116962 2.123502 2.130127 2.136838 2.143637 2.150525 2.157503 2.164572 2.171734 2.178989 2.186340 2.193786 2.201330 2.208973 2.216715 2.224559 2.232504 2.240552 2.248705 2.256963 2.265327 2.273799 2.282380 2.291070 2.299872 2.308785 2.317812 2.326953 2.336210 2.345583 2.355074 2.364684 2.374414 2.384265 2.394238 2.404334 2.414555 2.424901 2.435375 2.445976 2.456706 2.467566 2.478557 2.489681 2.500938 2.512330 2.523857 2.535521 2.547324 2.559265 2.571346 2.583569 2.595935 2.608444 2.621097 2.633897 2.646843 2.659953 2.673341 2.687072 2.701137 2.715528 2.730232 2.745240 2.760541 2.776126 2.791982 2.808101 2.824471 2.841082 2.857924 2.874987 2.892259 2.909731 2.927391 2.945231 2.963238 2.981404 2.999716 3.018166 3.036742 3.055434 3.074231 3.093124 3.112102 3.131154 3.150270 3.169439 3.188652 3.207897 3.227165 3.246444 3.265725 3.284996 3.304248 3.323471 3.342653 3.361784 3.380854 3.399852 3.418769 3.437593 3.456314 3.474922 3.493406 3.511756 3.529961 3.548012 3.565897 3.583606 3.601129 3.618455 3.635575 3.652476 3.669150 3.685585 3.701772 3.717700 3.733365 3.748769 3.763914 3.778802 3.793434 3.807812 3.821938 3.835814 3.849442 3.862822 3.875958 3.888851 3.901502 3.913914 3.926087 3.938025 3.949729 3.961200 3.972440 3.983451 3.994235 4.004794 4.015129 4.025242 4.035135 4.044810 4.054268 4.063512 4.072542 4.081362 4.089972 4.098374 4.106571 4.114564 4.122357 4.129953 4.137357 4.144572 4.151600 4.158446 4.165114 4.171606 4.177926 4.184078 4.190065 4.195891 4.201559 4.207073 4.212436 4.217652 4.222725 4.227657 4.232453 4.237115 4.241648 4.246056 4.250340 4.254505 4.258555 4.262493 4.266323 4.270047 4.273671 4.277196 4.280627 4.283967 4.287219 4.290388 4.293477 4.296489 4.299427 4.302296 4.305098 4.307838 4.310519 4.313144 4.315716 4.318240 4.320718 4.323154 4.325552 4.327914 4.330244 4.332546 4.334823 4.337078 4.339314 4.341533 4.343733 4.345915 4.348078 4.350223 4.352350 4.354458 4.356548 4.358619 4.360672 4.362705 4.364720 4.366716 4.368694 4.370652 4.372591 4.374511 4.376412 4.378294 4.380157 4.382000 4.383824 4.385628 4.387413 4.389178 4.390924 4.392650 4.394356 4.396043 4.397709 4.399356 4.400983 4.402589 4.404176 4.405742 4.407288 4.408814 4.410320 4.411805 4.413269 4.414714 4.416137 4.417540 4.418922 4.420284 4.421624 4.422944 4.424243 4.425520 4.426777 4.428013 4.429227 4.430420 4.431592 4.432742 4.433871 4.434979 4.436065 4.437129 4.438172 4.439193 4.440192 4.441169 4.442125 4.443058 4.443969 4.444859 4.445726 4.446571 4.447393 4.448194 4.448972 4.449727 4.450460 4.451171 4.451858 4.452523 4.453166 4.453785 4.454382 4.454956 4.455506 4.456034 4.456539 4.457020 4.457478 4.457913 4.458324 4.458713 4.459077 4.459418 4.459736 4.460030 4.460300 4.460546 4.460768 4.460967 4.461142 4.461292 4.461419 4.461521 4.461599 4.461653 4.461683 4.461688 4.461669 4.461625 4.461557 4.461464 4.461347 4.461205 4.461037 4.460846 4.460629 4.460387 4.460120 4.459828 4.459511 4.459168 4.458800 4.458406 4.457985 4.457536 4.457061 4.456557 4.456024 4.455463 4.454872 4.454251 4.453600 4.452919 4.452205 4.451461 4.450684 4.449874 4.449031 4.448155 4.447244 4.446300 4.445320 4.444305 4.443254 4.442166 4.441042 4.439881 4.438682 4.437445 4.436169 4.434854 4.433500 4.432105 4.430670 4.429195 4.427678 4.426119 4.424517 4.422874 4.421186 4.419456 4.417681 4.415861 4.413997 4.412087 4.410131 4.408128 4.406079 4.403982 4.401838 4.399645 4.397404 4.395114 4.392773 4.390383 4.387943 4.385451 4.382908 4.380312 4.377665 4.374965 4.372211 4.369403 4.366542 4.363625 4.360654 4.357627 4.354544 4.351404 4.348208 4.344954 4.341642 4.338272 4.334843 4.331354 4.327806 4.324198 4.320529 4.316799 4.313008 4.309154 4.305238 4.301259 4.297217 4.293111 4.288940 4.284705 4.280405 4.276038 4.271606 4.267107 4.262541 4.257908 4.253206 4.248436 4.243597 4.238689 4.233711 4.228663 4.223544 4.218353 4.213091 4.207757 4.202351 4.196871 4.191318 4.185691 4.179989 4.174213 4.168361 4.162434 4.156430 4.150350 4.144192 4.137957 4.131643 4.125251 4.118781 4.112230 4.105600 4.098889 4.092098 4.085225 4.078271 4.071234 4.064115 4.056912 4.049626 4.042256 4.034801 4.027261 4.019636 4.011925 4.004128 3.996244 3.988273 3.980213 3.972066 3.963830 3.955505 3.947092 3.938590 3.930003 3.921330 3.912574 3.903735 3.894815 3.885815 3.876736 3.867580 3.858347 3.849039 3.839658 3.830204 3.820678 3.811083 3.801419 3.791687 3.781889 3.772026 3.762099 3.752109 3.742059 3.731948 3.721778 3.711551 3.701267 3.690928 3.680536 3.670091 3.659594 3.649048 3.638453 3.627810 3.617120 3.606387 3.595613 3.584803 3.573958 3.563085 3.552185 3.541262 3.530321 3.519364 3.508395 3.497418 3.486437 3.475454 3.464474 3.453500 3.442534 3.431575 3.420627 3.409689 3.398762 3.387849 3.376949 3.366065 3.355196 3.344344 3.333511 3.322697 3.311904 3.301132 3.290382 3.279657 3.268955 3.258280 3.247632 3.237012 3.226420 3.215859 3.205330 3.194832 3.184368 3.173939 3.163545 3.153187 3.142868 3.132587 3.122347 3.112147 3.101990 3.091875 3.081805 3.071781 3.061802 3.051872 3.041990 3.032157 3.022376 3.012646 3.002969 2.993347 2.983779 2.974268 2.964814 2.955418 2.946080 2.936796 2.927562 2.918375 2.909232 2.900129 2.891063 2.882029 2.873026 2.864048 2.855093 2.846158 2.837238 2.828331 2.819432 2.810539 2.801648 2.792755 2.783857 2.774950 2.766032 2.757098 2.748145 2.739169 2.730168 2.721137 2.712074 2.702974 2.693834 2.684651 2.675421 2.666141 2.656807 2.647416 2.637965 2.628449 2.618866 2.609212 2.599483 2.589676 2.579787 2.569814 2.559752 2.549598 2.539349 2.529001 2.518551 2.507994 2.497329 2.486551 2.475656 2.464642 2.453504 2.442240 2.430846 2.419318 2.407653 2.395848 2.383898 2.371801 2.359553 2.347151 2.334591 2.321869 2.308982 2.295927 2.282700 2.269298 2.255717 2.241954 2.228005 2.213867 2.199536 2.185009 2.170283 2.155353 2.140217 2.124871 2.109311 2.093534 2.077537 2.061316 2.044868 2.028188 2.011274 1.994123 1.976730 1.959092 1.941206 1.923068 1.904675 1.886024 1.867110 1.847931 1.828482 1.808761 1.788764 1.768488 1.747928 1.727082 1.705946 1.684516 1.662790 1.640763 1.618433 1.595795 1.572846 1.549583 1.526002 1.502101 1.477874 1.453319 1.428433 1.403211 1.377651 1.351749 1.325502 1.298905 1.271954 1.244635 1.216930 1.188823 1.160298 1.131336 1.101922 1.072038 1.041667 1.010792 0.979398 0.947466 0.914979 0.881922 0.848277 0.814026 0.779154 0.743643 0.707477 0.670638 0.633110 0.594876 0.555918 0.516220 0.475765 0.434537 0.392517 0.349690 0.306039 0.261546 0.216194 0.169968 0.122849 0.074821 0.025867 -0.024030 -0.074887 -0.126716 -0.179502 -0.233217 -0.287832 -0.343308 -0.399603 -0.456676 -0.514485 -0.572987 -0.632142 -0.691907 -0.752240 -0.813101 -0.874447 -0.936236 -0.998426 -1.060976 -1.123845 -1.186990 -1.250369 -1.313941 -1.377663 -1.441496 -1.505395 -1.569320 -1.633229 -1.697081 -1.760832 -1.824442 -1.887870 -1.951072 -2.014007 -2.076634 -2.138911 -2.200591 -2.260878 -2.319555 -2.376625 -2.432099 -2.485988 -2.538305 -2.589062 -2.638270 -2.685942 -2.732090 -2.776725 -2.819860 -2.861507 -2.901677 -2.940383 -2.977636 -3.013449 -3.047833 -3.080802 -3.112365 -3.142536 -3.171327 -3.198749 -3.224814 -3.249535 -3.272924 -3.294992 -3.315751 -3.335214 -3.353392 -3.370297 -3.385942 -3.400339 -3.413499 -3.425445 -3.436201 -3.445795 -3.454251 -3.461595 -3.467855 -3.473054 -3.477220 -3.480378 -3.482554 -3.483774 -3.484064 -3.483450 -3.481957 -3.479611 -3.476439 -3.472466 -3.467714 -3.462197 -3.455928 -3.448921 -3.441190 -3.432748 -3.423609 -3.413786 -3.403293 -3.392144 -3.380352 -3.367931 -3.354894 -3.341255 -3.327028 -3.312226 -3.296862 -3.280951 -3.264506 -3.247540 -3.230068 -3.212102 -3.193656 -3.174744 -3.155380 -3.135577 -3.115348 -3.094708 -3.073669 -3.052246 -3.030452 -3.008300 -2.985805 -2.962979 -2.939835 -2.916382 -2.892626 -2.868578 -2.844245 -2.819635 -2.794758 -2.769621 -2.744232 -2.718600 -2.692734 -2.666641 -2.640331 -2.613811 -2.587089 -2.560175 -2.533075 -2.505800 -2.478357 -2.450754 -2.423000 -2.395103 -2.367071 -2.338914 -2.310638 -2.282253 -2.253767 -2.225188 -2.196524 -2.167784 -2.138977 -2.110110 -2.081192 -2.052231 -2.023236 -1.994215 -1.965176 -1.936127 -1.907078 -1.878036 -1.849009 -1.820007 -1.791037 -1.762108 -1.733227 -1.704404 -1.675647 -1.646964 -1.618363 -1.589853 -1.561442 -1.533138 -1.504951 -1.476887 -1.448956 -1.421166 -1.393525 -1.366041 -1.338723 -1.311580 -1.284619 -1.257849 -1.231278 -1.204914 -1.178767 -1.152844 -1.127153 -1.101704 -1.076503 -1.051561 -1.026884 -1.002482 -0.978362 -0.954533 -0.931004 -0.907783 -0.884875 -0.862273 -0.839958 -0.817910 -0.796112 -0.774545 -0.753191 -0.732031 -0.711047 -0.690220 -0.669532 -0.648963 -0.628497 -0.608114 -0.587795 -0.567523 -0.547284 -0.527076 -0.506903 -0.486765 -0.466665 -0.446604 -0.426584 -0.406607 -0.386675 -0.366790 -0.346953 -0.327167 -0.307432 -0.287751 -0.268126 -0.248558 -0.229049 -0.209602 -0.190217 -0.170897 -0.151644 -0.132459 -0.113343 -0.094300 -0.075331 -0.056437 -0.037620 -0.018883 -0.000226 0.018348 0.036837 0.055240 0.073555 0.091780 0.109912 0.127952 0.145896 0.163743 0.181490 0.199137 0.216682 0.234122 0.251455 0.268681 0.285797 0.302801 0.319691 0.336466 0.353125 0.369664 0.386082 0.402379 0.418550 0.434596 0.450514 0.466302 0.481958 0.497481 0.512869 0.528120 0.543232 0.558203 0.573032 0.587718 0.602260 0.616657 0.630908 0.645013 0.658971 0.672780 0.686442 0.699954 0.713316 0.726527 0.739586 0.752493 0.765248 0.777848 0.790294 0.802584 0.814719 0.826697 0.838517 0.850179 0.861682 0.873025 0.884208 0.895230 0.906089 0.916786 0.927319 0.937689 0.947893 0.957931 0.967803 0.977508 0.987045 0.996414 1.005613 1.014641 1.023499 1.032185 1.040699 1.049040 1.057207 1.065199 1.073016 1.080657 1.088121 1.095407 1.102515 1.109444 1.116193 1.122761 1.129149 1.135354 1.141376 1.147215 1.152869 1.158339 1.163623 1.168720 1.173630 1.178352 1.182885 1.187232 1.191393 1.195370 1.199165 1.202779 1.206214 1.209473 1.212555 1.215463 1.218199 1.220764 1.223160 1.225388 1.227450 1.229348 1.231084 1.232658 1.234073 1.235330 1.236431 1.237377 1.238171 1.238813 1.239306 1.239650 1.239849 1.239902 1.239812 1.239581 1.239210 1.238701 1.238055 1.237274 1.236360 1.235314 1.234138 1.232834 1.231403 1.229846 1.228166 1.226364 1.224442 1.222401 1.220243 1.217969 1.215582 1.213082 1.210472 1.207754 1.204927 1.201995 1.198960 1.195821 1.192582 1.189244 1.185808 1.182277 1.178651 1.174933 1.171124 1.167226 1.163241 1.159170 1.155016 1.150780 1.146464 1.142070 1.137600 1.133055 1.128437 1.123748 1.118990 1.114165 1.109274 1.104319 1.099302 1.094225 1.089089 1.083896 1.078649 1.073349 1.067997 1.062596 1.057147 1.051652 1.046113 1.040532 1.034910 1.029249 1.023552 1.017819 1.012053 1.006255 1.000427 0.994572 0.988690 0.982784 0.976855 0.970905 0.964937 0.958951 0.952949 0.946934 0.940907 0.934870 0.928825 0.922773 0.916717 0.910657 0.904596 0.898537 0.892479 0.886426 0.880379 0.874340 0.868310 0.862292 0.856287 0.850297 0.844323 0.838369 0.832434 0.826522 0.820634 0.814772 0.808937 0.803132 0.797357 0.791616 0.785909 0.780239 0.774607 0.769016 0.763466 0.757959 0.752499 0.747085 0.741721 0.736407 0.731142 0.725925 0.720753 0.715624 0.710537 0.705489 0.700478 0.695502 0.690560 0.685650 0.680769 0.675915 0.671087 0.666282 0.661499 0.656735 0.651988 0.647257 0.642540 0.637834 0.633138 0.628449 0.623766 0.619086 0.614408 0.609730 0.605049 0.600364 0.595672 0.590972 0.586262 0.581543 0.576815 0.572079 0.567337 0.562590 0.557838 0.553083 0.548326 0.543568 0.538809 0.534052 0.529296 0.524544 0.519795 0.515052 0.510315 0.505585 0.500864 0.496152 0.491450 0.486760 0.482083 0.477419 0.472769 0.468135 0.463519 0.458919 0.454339 0.449779 0.445239 0.440722 0.436228 0.431757 0.427313 0.422894 0.418502 0.414138 0.409803 0.405497 0.401221 0.396976 0.392762 0.388580 0.384431 0.380316 0.376235 0.372189 0.368179 0.364205 0.360268 0.356369 0.352509 0.348688 0.344907 0.341167 0.337468 0.333812 0.330198 0.326628 0.323102 0.319622 0.316187 0.312798 0.309457 0.306163 0.302917 0.299719 0.296570 0.293469 0.290417 0.287414 0.284461 0.281558 0.278705 0.275902 0.273149 0.270448 0.267798 0.265199 0.262652 0.260157 0.257714 0.255324 0.252987 0.250702 0.248472 0.246294 0.244171 0.242102 0.240088 0.238128 0.236224 0.234375 0.232581 0.230844 0.229162 0.227538 0.225969 0.224458 0.223004 0.221608 0.220270 0.218990 0.217768 0.216605 0.215501 0.214456 0.213471 0.212545 0.211680 0.210875 0.210131 0.209447 0.208825 0.208264 0.207766 0.207329 0.206954 0.206642 0.206393 0.206207 0.206085 0.206026 0.206032 0.206101 0.206235 0.206434 0.206699 0.207028 0.207423 0.207884 0.208412 0.209005 0.209665 0.210391 0.211184 0.212044 0.212970 0.213963 0.215023 0.216151 0.217346 0.218608 0.219937 0.221335 0.222800 0.224332 0.225933 0.227602 0.229339 0.231145 0.233019 0.234961 0.236973 0.239053 0.241201 0.243419 0.245707 0.248063 0.250489 0.252984 0.255549 0.258184 0.260888 0.263663 0.266507 0.269422 0.272407 0.275463 0.278586 0.281775 0.285028 0.288341 0.291714 0.295142 0.298624 0.302157 0.305739 0.309368 0.313041 0.316756 0.320510 0.324301 0.328127 0.331984 0.335872 0.339786 0.343726 0.347688 0.351670 0.355670 0.359686 0.363714 0.367752 0.371799 0.375852 0.379907 0.383964 0.388019 0.392071 0.396116 0.400152 0.404177 0.408188 0.412184 0.416161 0.420118 0.424051 0.427959 0.431839 0.435689 0.439506 0.443287 0.447032 0.450736 0.454389 0.457970 0.461454 0.464822 0.468069 0.471194 0.474196 0.477072 0.479820 0.482440 0.484929 0.487285 0.489507 0.491593 0.493541 0.495350 0.497019 0.498544 0.499926 0.501161 0.502248 0.503187 0.503974 0.504609 0.505089 0.505413 0.505579 0.505586 0.505432 0.505115 0.504634 0.503986 0.503171 0.502186 0.501030 0.499701 0.498198 0.496518 0.494661 0.492624 0.490406 0.488005 0.485420 0.482656 0.479716 0.476603 0.473321 0.469873 0.466263 0.462494 0.458571 0.454495 0.450272 0.445904 0.441395 0.436749 0.431969 0.427058 0.422020 0.416860 0.411579 0.406182 0.400672 0.395054 0.389329 0.383502 0.377577 0.371557 0.365445 0.359245 0.352960 0.346595 0.340152 0.333635 0.327047 0.320393 0.313676 0.306899 0.300065 0.293179 0.286243 0.279262 0.272239 0.265177 0.258080 0.250951 0.243795 0.236614 0.229412 0.222192 0.214959 0.207715 0.200464 0.193210 0.185956 0.178706 0.171463 0.164231 0.157014 0.149814 0.142635 0.135482 0.128357 0.121263 0.114206 0.107187 0.100211 0.093281 0.086398 0.079561 0.072772 0.066029 0.059333 0.052684 0.046081 0.039525 0.033015 0.026552 0.020135 0.013764 0.007439 0.001161 -0.005072 -0.011258 -0.017398 -0.023493 -0.029542 -0.035545 -0.041502 -0.047414 -0.053280 -0.059100 -0.064876 -0.070606 -0.076290 -0.081929 -0.087524 -0.093073 -0.098577 -0.104036 -0.109450 -0.114819 -0.120144 -0.125424 -0.130659 -0.135849 -0.140995 -0.146097 -0.151154 -0.156167 -0.161136 -0.166060 -0.170941 -0.175777 -0.180569 -0.185318 -0.190022 -0.194683 -0.199300 -0.203873 -0.208402 -0.212888 -0.217331 -0.221730 -0.226086 -0.230399 -0.234668 -0.238894 -0.243077 -0.247217 -0.251314 -0.255368 -0.259380 -0.263348 -0.267274 -0.271157 -0.274998 -0.278796 -0.282552 -0.286265 -0.289936 -0.293565 -0.297151 -0.300695 -0.304198 -0.307658 -0.311077 -0.314453 -0.317788 -0.321081 -0.324332 -0.327542 -0.330710 -0.333837 -0.336922 -0.339966 -0.342969 -0.345930 -0.348851 -0.351730 -0.354568 -0.357365 -0.360122 -0.362837 -0.365512 -0.368146 -0.370739 -0.373292 -0.375805 -0.378276 -0.380708 -0.383099 -0.385450 -0.387761 -0.390032 -0.392262 -0.394453 -0.396603 -0.398714 -0.400785 -0.402817 -0.404808 -0.406760 -0.408673 -0.410546 -0.412379 -0.414174 -0.415929 -0.417645 -0.419321 -0.420959 -0.422557 -0.424117 -0.425638 -0.427120 -0.428563 -0.429967 -0.431333 -0.432660 -0.433949 -0.435199 -0.436411 -0.437585 -0.438720 -0.439817 -0.440877 -0.441898 -0.442881 -0.443826 -0.444733 -0.445602 -0.446434 -0.447227 -0.447983 -0.448701 -0.449381 -0.450023 -0.450628 -0.451195 -0.451724 -0.452215 -0.452668 -0.453084 -0.453462 -0.453802 -0.454105 -0.454370 -0.454598 -0.454787 -0.454939 -0.455054 -0.455131 -0.455170 -0.455172 -0.455137 -0.455064 -0.454953 -0.454805 -0.454619 -0.454396 -0.454135 -0.453837 -0.453502 -0.453129 -0.452719 -0.452271 -0.451787 -0.451264 -0.450705 -0.450108 -0.449474 -0.448802 -0.448093 -0.447347 -0.446564 -0.445744 -0.444886 -0.443991 -0.443059 -0.442090 -0.441084 -0.440040 -0.438960 -0.437842 -0.436688 -0.435496 -0.434267 -0.433001 -0.431698 -0.430358 -0.428981 -0.427567 -0.426116 -0.424629 -0.423104 -0.421542 -0.419944 -0.418308 -0.416636 -0.414927 -0.413181 -0.411398 -0.409578 -0.407722 -0.405828 -0.403898 -0.401932 -0.399928 -0.397888 -0.395811 -0.393697 -0.391547 -0.389360 -0.387136 -0.384876 -0.382579 -0.380245 -0.377875 -0.375469 -0.373025 -0.370546 -0.368029 -0.365477 -0.362887 -0.360261 -0.357599 -0.354901 -0.352165 -0.349394 -0.346586 -0.343741 -0.340861 -0.337944 -0.334990 -0.332000 -0.328974 -0.325912 -0.322813 -0.319678 -0.316507 -0.313299 -0.310056 -0.306776 -0.303460 -0.300108 -0.296724 -0.293310 -0.289868 -0.286402 -0.282915 -0.279408 -0.275886 -0.272350 -0.268803 -0.265249 -0.261689 -0.258128 -0.254566 -0.251009 -0.247457 -0.243914 -0.240382 -0.236865 -0.233365 -0.229885 -0.226428 -0.222996 -0.219593 -0.216220 -0.212882 -0.209579 -0.206316 -0.203096 -0.199920 -0.196792 -0.193714 -0.190689 -0.187721 -0.184811 -0.181962 -0.179178 -0.176461 -0.173808 -0.171216 -0.168681 -0.166199 -0.163767 -0.161382 -0.159038 -0.156733 -0.154463 -0.152224 -0.150013 -0.147825 -0.145657 -0.143506 -0.141367 -0.139236 -0.137111 -0.134988 -0.132862 -0.130730 -0.128588 -0.126436 -0.124274 -0.122101 -0.119918 -0.117724 -0.115521 -0.113309 -0.111086 -0.108854 -0.106612 -0.104362 -0.102101 -0.099832 -0.097554 -0.095268 -0.092972 -0.090668 -0.088356 -0.086035 -0.083708 -0.081373 -0.079031 -0.076684 -0.074332 -0.071975 -0.069614 -0.067249 -0.064882 -0.062512 -0.060140 -0.057767 -0.055393 -0.053019 -0.050645 -0.048273 -0.045902 -0.043533 -0.041166 -0.038803 -0.036444 -0.034090 -0.031740 -0.029395 -0.027057 -0.024725 -0.022401 -0.020084 -0.017776 -0.015477 -0.013187 -0.010907 -0.008638 -0.006380 -0.004133 -0.001899 0.000322 0.002530 0.004724 0.006904 0.009070 0.011220 0.013354 0.015472 0.017573 0.019656 0.021722 0.023770 0.025799 0.027808 0.029798 0.031767 0.033715 0.035642 0.037547 0.039430 0.041290 0.043126 0.044939 0.046727 0.048490 0.050228 0.051940 0.053625 0.055284 0.056915 0.058518 0.060093 0.061638 0.063155 0.064641 0.066097 0.067521 0.068915 0.070276 0.071605 0.072901 0.074163 0.075391 0.076585 0.077743 0.078866 0.079954 0.081004 0.082017 0.082993 0.083931 0.084830 0.085690 0.086511 0.087291 0.088031 0.088730 0.089387 0.090002 0.090574 0.091103 0.091588 0.092030 0.092426 0.092778 0.093084 0.093343 0.093556 0.093722 0.093840 0.093910 0.093931 0.093903 0.093825 0.093697 0.093518 0.093288 0.093006 0.092672 0.092285 0.091845 0.091351 0.090803 0.090200 0.089542 0.088828 0.088058 0.087230 0.086346 0.085404 0.084403 0.083343 0.082225 0.081046 0.079807 0.078507 0.077145 0.075722 0.074237 0.072688 0.071076 0.069400 0.067660 0.065855 0.063985 0.062048 0.060045 0.057975 0.055838 0.053633 0.051359 0.049016 0.046604 0.044122 0.041569 0.038945 0.036250 0.033483 0.030643 0.027731 0.024744 0.021684 0.018549 0.015339 0.012054 0.008692 0.005254 0.001739 -0.001854 -0.005524 -0.009274 -0.013102 -0.017011 -0.020999 -0.025068 -0.029218 -0.033449 -0.037763 -0.042159 -0.046639 -0.051202 -0.055850 -0.060582 -0.065399 -0.070302 -0.075291 -0.080367 -0.085530 -0.090780 -0.096119 -0.101547 -0.107064 -0.112670 -0.118367 -0.124155 -0.130034 -0.136004 -0.142067 -0.148223 -0.154472 -0.160814 -0.167251 -0.173783 -0.180410 -0.187133 -0.193953 -0.200869 -0.207882 -0.214993 -0.222203 -0.229511 -0.236919 -0.244427 -0.252035 -0.259744 -0.267554 -0.275462 -0.283467 -0.291565 -0.299753 -0.308030 -0.316391 -0.324835 -0.333358 -0.341959 -0.350633 -0.359379 -0.368194 -0.377074 -0.386018 -0.395022 -0.404084 -0.413201 -0.422370 -0.431589 -0.440855 -0.450164 -0.459515 -0.468905 -0.478330 -0.487789 -0.497278 -0.506794 -0.516336 -0.525900 -0.535483 -0.545083 -0.554697 -0.564322 -0.573955 -0.583595 -0.593237 -0.602880 -0.612520 -0.622155 -0.631783 -0.641402 -0.651013 -0.660617 -0.670212 -0.679800 -0.689381 -0.698954 -0.708521 -0.718080 -0.727633 -0.737178 -0.746718 -0.756251 -0.765778 -0.775298 -0.784813 -0.794322 -0.803826 -0.813324 -0.822816 -0.832304 -0.841786 -0.851264 -0.860737 -0.870205 -0.879669 -0.889129 -0.898585 -0.908037 -0.917485 -0.926929 -0.936370 -0.945807 -0.955242 -0.964673 -0.974102 -0.983527 -0.992950 -1.002371 -1.011790 -1.021206 -1.030621 -1.040035 -1.049447 -1.058858 -1.068268 -1.077678 -1.087087 -1.096495 -1.105901 -1.115303 -1.124698 -1.134085 -1.143462 -1.152828 -1.162180 -1.171516 -1.180834 -1.190134 -1.199412 -1.208666 -1.217896 -1.227099 -1.236273 -1.245416 -1.254527 -1.263603 -1.272642 -1.281643 -1.290605 -1.299524 -1.308401 -1.317237 -1.326031 -1.334785 -1.343497 -1.352170 -1.360803 -1.369397 -1.377952 -1.386467 -1.394945 -1.403385 -1.411787 -1.420152 -1.428480 -1.436772 -1.445028 -1.453248 -1.461433 -1.469583 -1.477698 -1.485779 -1.493827 -1.501840 -1.509821 -1.517769 -1.525685 -1.533569 -1.541421 -1.549242 -1.557032 -1.564792 -1.572521 -1.580221 -1.587892 -1.595533 -1.603146 -1.610731 -1.618288 -1.625817 -1.633319 -1.640795 -1.648244 -1.655667 -1.663064 -1.670437 -1.677784 -1.685107 -1.692405 -1.699680 -1.706932 -1.714160 -1.721366 -1.728549 -1.735711 -1.742851 -1.749970 -1.757068 -1.764146 -1.771203 -1.778241 -1.785260 -1.792260 -1.799241 -1.806204 -1.813149 -1.820076 -1.826987 -1.833881 -1.840759 -1.847620 -1.854466 -1.861297 -1.868113 -1.874915 -1.881702 -1.888476 -1.895236 -1.901983 -1.908718 -1.915441 -1.922151 -1.928850 -1.935538 -1.942216 -1.948883 -1.955540 -1.962187 -1.968825 -1.975454 -1.982075 -1.988687 -1.995292 -2.001889 -2.008479 -2.015063 -2.021640 -2.028212 -2.034778 -2.041338 -2.047894 -2.054446 -2.060993 -2.067537 -2.074077 -2.080615 -2.087150 -2.093683 -2.100214 -2.106743 -2.113272 -2.119799 -2.126327 -2.132854 -2.139382 -2.145911 -2.152440 -2.158972 -2.165505 -2.172041 -2.178579 -2.185120 -2.191664 -2.198213 -2.204765 -2.211322 -2.217884 -2.224451 -2.231024 -2.237603 -2.244188 -2.250780 -2.257379 -2.263985 -2.270599 -2.277222 -2.283853 -2.290493 -2.297142 -2.303802 -2.310471 -2.317151 -2.323841 -2.330543 -2.337256 -2.343981 -2.350719 -2.357469 -2.364233 -2.371009 -2.377800 -2.384605 -2.391424 -2.398258 -2.405108 -2.411973 -2.418854 -2.425752 -2.432667 -2.439598 -2.446547 -2.453514 -2.460500 -2.467504 -2.474527 -2.481569 -2.488631 -2.495714 -2.502816 -2.509940 -2.517085 -2.524252 -2.531440 -2.538651 -2.545885 -2.553141 -2.560422 -2.567726 -2.575054 -2.582407 -2.589785 -2.597188 -2.604617 -2.612072 -2.619554 -2.627062 -2.634598 -2.642161 -2.649752 -2.657371 -2.665019 -2.672697 -2.680403 -2.688140 -2.695906 -2.703703 -2.711531 -2.719391 -2.727282 -2.735205 -2.743160 -2.751149 -2.759170 -2.767225 -2.775314 -2.783437 -2.791595 -2.799788 -2.808016 -2.816280 -2.824580 -2.832917 -2.841290 -2.849701 -2.858149 -2.866636 -2.875160 -2.883724 -2.892326 -2.900968 -2.909650 -2.918372 -2.927134 -2.935936 -2.944779 -2.953662 -2.962587 -2.971553 -2.980560 -2.989609 -2.998699 -3.007832 -3.017007 -3.026225 -3.035485 -3.044788 -3.054134 -3.063524 -3.072957 -3.082434 -3.091955 -3.101520 -3.111130 -3.120784 -3.130483 -3.140227 -3.150016 -3.159851 -3.169731 -3.179657 -3.189630 -3.199648 -3.209713 -3.219825 -3.229984 -3.240190 -3.250444 -3.260745 -3.271094 -3.281491 -3.291936 -3.302429 -3.312971 -3.323563 -3.334203 -3.344892 -3.355631 -3.366420 -3.377258 -3.388147 -3.399086 -3.410076 -3.421116 -3.432208 -3.443350 -3.454545 -3.465790 -3.477088 -3.488437 -3.499839 -3.511294 -3.522801 -3.534361 -3.545974 -3.557640 -3.569360 -3.581134 -3.592962 -3.604844 -3.616780 -3.628771 -3.640817 -3.652917 -3.665074 -3.677285 -3.689552 -3.701875 -3.714254 -3.726690 -3.739182 -3.751731 -3.764336 -3.776999 -3.789719 -3.802497 -3.815333 -3.828226 -3.841178 -3.854189 -3.867257 -3.880385 -3.893572 -3.906818 -3.920124 -3.933489 -3.946915 -3.960400 -3.973946 -3.987552 -4.001220 -4.014948 -4.028737 -4.042588 -4.056500 -4.070475 -4.084511 -4.098609 -4.112771 -4.126994 -4.141281 -4.155630 -4.170031 -4.184457 -4.198881 -4.213277 -4.227618 -4.241876 -4.256025 -4.270038 -4.283888 -4.297549 -4.310992 -4.324192 -4.337116 -4.349717 -4.361943 -4.373744 -4.385071 -4.395872 -4.406098 -4.415697 -4.424621 -4.432818 -4.440237 -4.446830 -4.452544 -4.457331 -4.461139 -4.463918 -4.465619 -4.466189 -4.465580 -4.463741 -4.460621 -4.456170 -4.450337 -4.443074 -4.434328 -4.424050 -4.412189 -4.398695 -4.383517 -4.366606 -4.347911 -4.327381 -4.304967 -4.280617 -4.254282 -4.225911 -4.195453 -4.162859 -4.128078 -4.091010 -4.049120 -3.996408 -3.926611 -3.833462 -3.710696 -3.552049 -3.351256 -3.102050 -2.798168 -2.433343 -2.001312 -1.495809 -0.910568 -0.239325 0.524185 