0.00000000000000000255 -0.00000000000000005442 -0.00000000000000002041 
-0.00000000000000001406 0.00000000000000000000 -0.00000000000000005782 
0.00000000000000004977 0.00000000000000000000 -0.00000000000000007483 
-0.00000000000000010963 -0.00000000000000010884 -0.00000000000000006122 
-0.00000000000000006645 -0.00000000000000010884 -0.00000000000000006462 
-0.00000000000000009474 -0.00000000000000010884 -0.00000000000000013605 
-0.00000000000000007222 -0.00000000000000010884 -0.00000000000000010884 
0.00000000000000000474 -0.00000000000000005442 0.00000000000000002721 
-0.00000000000000005296 -0.00000000000000005442 -0.00000000000000005442 
-0.00000000000000008507 -0.00000000000000005442 -0.00000000000000001701 
-0.00000000000000002726 -0.00000000000000005442 -0.00000000000000006122 
-0.00000000000000009490 0.00000000000000000000 -0.00000000000000000850 
-0.00000000000000009193 -0.00000000000000010884 -0.00000000000000009183 
-0.00000000000000006185 0.00000000000000000000 -0.00000000000000005102 
-0.00000000000000003719 -0.00000000000000010884 -0.00000000000000004762 
0.00000000000000005228 -0.00000000000000010884 -0.00000000000000005442 
-0.00000000000000000287 -0.00000000000000010884 -0.00000000000000000510 
0.00000000000000003837 -0.00000000000000005442 -0.00000000000000001871 
-0.00000000000000000142 0.00000000000000005442 -0.00000000000000008843 
0.00000000000000000538 0.00000000000000005442 -0.00000000000000007653 
0.00000000000000000193 0.00000000000000010884 -0.00000000000000007823 
-0.00000000000000008060 0.00000000000000005442 -0.00000000000000006632 
0.00000000000000003918 -0.00000000000000005442 -0.00000000000000013945 
0.00000000000000005270 -0.00000000000000005442 0.00000000000000000000 
0.00000000000000003689 -0.00000000000000005442 0.00000000000000000680 
-0.00000000000000004167 0.00000000000000000000 -0.00000000000000007823 
0.00000000000000005994 0.00000000000000005442 -0.00000000000000002891 
-0.00000000000000002568 0.00000000000000000000 -0.00000000000000004592 
-0.00000000000000009996 0.00000000000000005442 -0.00000000000000008503 
-0.00000000000000006347 0.00000000000000005442 -0.00000000000000004252 
0.00000000000000002158 0.00000000000000005442 -0.00000000000000006292 
0.00000000000000006891 0.00000000000000000000 -0.00000000000000003061 
-0.00000000000000006303 0.00000000000000016326 0.00000000000000002211 
0.00000000000000006274 -0.00000000000000016326 -0.00000000000000011734 
-0.00000000000000002756 0.00000000000000005442 -0.00000000000000005612 
-0.00000000000000004272 -0.00000000000000010884 -0.00000000000000002806 
-0.00000000000000003662 0.00000000000000005442 -0.00000000000000015476 
-0.00000000000000012075 0.00000000000000005442 -0.00000000000000006718 
-0.00000000000000007502 -0.00000000000000005442 -0.00000000000000010629 
0.00000000000000001349 -0.00000000000000010884 -0.00000000000000001871 
-0.00000000000000007546 -0.00000000000000005442 -0.00000000000000001616 
-0.00000000000000004753 0.00000000000000005442 -0.00000000000000005017 
-0.00000000000000006904 0.00000000000000005442 -0.00000000000000010119 
0.00000000000000003768 -0.00000000000000005442 -0.00000000000000000170 
0.00000000000000001446 0.00000000000000000000 -0.00000000000000003656 
-0.00000000000000007180 -0.00000000000000010884 -0.00000000000000013265 
-0.00000000000000003733 0.00000000000000005442 -0.00000000000000001020 
0.00000000000000005319 0.00000000000000000000 -0.00000000000000006122 
-0.00000000000000004198 -0.00000000000000005442 -0.00000000000000001743 
-0.00000000000000004329 -0.00000000000000010884 -0.00000000000000006973 
-0.00000000000000005714 -0.00000000000000005442 -0.00000000000000003741 
-0.00000000000000008358 -0.00000000000000010884 0.00000000000000000765 
-0.00000000000000002282 -0.00000000000000005442 -0.00000000000000004592 
-0.00000000000000002812 -0.00000000000000010884 -0.00000000000000001998 
-0.00000000000000002407 0.00000000000000000000 -0.00000000000000003401 
-0.00000000000000001962 0.00000000000000000000 -0.00000000000000003614 
0.00000000000000006950 0.00000000000000000000 -0.00000000000000005910 
0.00000000000000006252 -0.00000000000000005442 -0.00000000000000005357 
-0.00000000000000008479 0.00000000000000000000 -0.00000000000000003019 
-0.00000000000000004585 0.00000000000000010884 -0.00000000000000006632 
-0.00000000000000010048 0.00000000000000000000 -0.00000000000000009013 
-0.00000000000000009798 -0.00000000000000010884 -0.00000000000000008035 
-0.00000000000000002284 -0.00000000000000010884 -0.00000000000000008333 
-0.00000000000000005426 -0.00000000000000010884 0.00000000000000001956 
-0.00000000000000009427 0.00000000000000016326 -0.00000000000000002253 
-0.00000000000000000440 0.00000000000000000000 -0.00000000000000008482 
0.00000000000000003419 0.00000000000000000000 0.00000000000000001233 
-0.00000000000000002421 0.00000000000000005442 -0.00000000000000012946 
0.00000000000000007568 0.00000000000000005442 -0.00000000000000006973 
-0.00000000000000001087 0.00000000000000000000 -0.00000000000000017325 
-0.00000000000000009060 -0.00000000000000005442 -0.00000000000000007950 
-0.00000000000000007214 -0.00000000000000005442 -0.00000000000000007547 
-0.00000000000000000565 0.00000000000000010884 -0.00000000000000004018 
-0.00000000000000003856 0.00000000000000000000 -0.00000000000000000425 
-0.00000000000000000959 0.00000000000000005442 0.00000000000000001403 
-0.00000000000000010912 -0.00000000000000010884 -0.00000000000000007440 
-0.00000000000000004195 0.00000000000000010884 -0.00000000000000009651 
-0.00000000000000004987 0.00000000000000000000 -0.00000000000000006994 
-0.00000000000000008650 -0.00000000000000005442 -0.00000000000000007419 
0.00000000000000004963 -0.00000000000000005442 -0.00000000000000007759 
-0.00000000000000004134 0.00000000000000005442 -0.00000000000000004645 
0.00000000000000010892 0.00000000000000000000 -0.00000000000000003678 
-0.00000000000000008499 -0.00000000000000005442 -0.00000000000000009927 
-0.00000000000000007083 -0.00000000000000010884 -0.00000000000000004252 
0.00000000000000001963 0.00000000000000005442 -0.00000000000000006877 
-0.00000000000000001499 -0.00000000000000005442 -0.00000000000000005368 
0.00000000000000000261 -0.00000000000000005442 -0.00000000000000006112 
-0.00000000000000001234 -0.00000000000000010884 -0.00000000000000002859 
0.00000000000000004253 0.00000000000000005442 -0.00000000000000002051 
-0.00000000000000003129 -0.00000000000000010884 -0.00000000000000009194 
-0.00000000000000006209 0.00000000000000010884 -0.00000000000000003093 
-0.00000000000000010095 0.00000000000000000000 -0.00000000000000002625 
-0.00000000000000003929 0.00000000000000000000 -0.00000000000000007451 
0.00000000000000004744 -0.00000000000000010884 -0.00000000000000007291 
-0.00000000000000002120 0.00000000000000010884 -0.00000000000000007100 
0.00000000000000001653 0.00000000000000000000 -0.00000000000000003513 
-0.00000000000000013085 0.00000000000000010884 -0.00000000000000003715 
0.00000000000000007160 -0.00000000000000005442 -0.00000000000000003412 
-0.00000000000000005361 -0.00000000000000005442 -0.00000000000000000941 
-0.00000000000000006045 0.00000000000000000000 -0.00000000000000009949 
0.00000000000000003034 0.00000000000000005442 -0.00000000000000011102 
0.00000000000000000907 -0.00000000000000005442 -0.00000000000000010230 
-0.00000000000000002291 0.00000000000000005442 -0.00000000000000001089 
0.00000000000000002744 0.00000000000000000000 -0.00000000000000016140 
0.00000000000000004036 0.00000000002093760534 -0.00000000000000003816 
0.00000000000000005407 0.00000001685637622529 -0.00000000000000012383 
0.00000000000000003057 0.00000033634540490298 -0.00000000000000012096 
-0.00000000000000003766 0.00000233428472441132 -0.00000000000000008567 
-0.00000000000000001119 0.00000969893327377252 -0.00000000000000002713 
0.00000000000000005412 0.00002972148175441081 -0.00000000000000013539 
0.00000000000000004347 0.00007443049110404194 -0.00000000000000000986 
0.00000000000000009416 0.00016144253056437320 -0.00000000000000007693 
0.00000000000000004902 0.00031447024276978557 -0.00000000000000002753 
0.00000000000000006248 0.00056347701317898270 -0.00000000000000008392 
-0.00000000000000002389 0.00094449930095470149 -0.00000000000000011105 
-0.00000000000000002821 0.00149917746657555356 -0.00000000000000008009 
0.00000000000000003016 0.00227404675185011390 -0.00000000000000008516 
0.00000000000000010232 0.00331964440246154853 -0.00000000000000012346 
-0.00000000000000004299 0.00468948869844436431 -0.00000000000000002192 
-0.00000000000000004022 0.00643898236037195038 -0.00000000000000002868 
0.00000000000000008042 0.00862428756110630336 -0.00000000000000011821 
0.00000000000000008408 0.01130121344454055113 -0.00000000000000007659 
-0.00000000000000004460 0.01452415025944769900 -0.00000000000000005591 
0.00000000000000003093 0.01834507740721057212 -0.00000000000000007295 
-0.00000000000000001270 0.02281266618787175515 -0.00000000000000008523 
0.00000000000000001448 0.02797149201411087971 -0.00000000000000006901 
-0.00000000000000002584 0.03386136547076884495 -0.00000000000000008299 
0.00000000000000005217 0.04051678689075515621 -0.00000000000000004730 
-0.00000000000000000894 0.04796652511420675807 -0.00000000000000001201 
0.00000000000000013426 0.05623331778211731330 -0.00000000000000008671 
-0.00000000000000003255 0.06533368785179395621 -0.00000000000000003947 
-0.00000000000000004342 0.07527786895847855819 -0.00000000000000007093 
0.00000000000000009586 0.08606983072599845574 -0.00000000000000010683 
0.00000000000000011581 0.09770739408601453180 -0.00000000000000015845 
0.00000000000000000439 0.11018242603633132681 -0.00000000000000009106 
0.00000000000000003817 0.12348110299144733626 0.00000000000000000740 
-0.00000000000000001474 0.13758423189403229392 -0.00000000000000009555 
0.00000000000000000003 0.15246761850960890983 -0.00000000000000012559 
-0.00000000000000010971 0.16810247276875039946 -0.00000000000000000945 
-0.00000000000000001083 0.18445584160714373345 -0.00000000000000009597 
0.00000000000000013468 0.20149106044492762213 -0.00000000000000021912 
-0.00000000000000001600 0.21916821520892934561 -0.00000000000000007210 
0.00000000000000002844 0.23744460760599470084 -0.00000000000000004423 
0.00000000000000005911 0.25627521717828799508 -0.00000000000000017790 
-0.00000000000000004784 0.27561315449229822905 -0.00000000000000003118 
0.00000000000000003832 0.29541010061620154303 -0.00000000000000014619 
-0.00000000000000003376 0.31561672881251023881 -0.00000000000000008407 
-0.00000000000000009104 0.33618310510488624843 -0.00000000000000013511 
0.00000000000000003409 0.35705906506258566768 -0.00000000000000007975 
0.00000000000000002207 0.37819456477836543851 -0.00000000000000014148 
-0.00000000000000003147 0.39954000459294564118 -0.00000000000000004728 
-0.00000000000000001119 0.42104652463993452738 -0.00000000000000003027 
0.00000000000000005379 0.44266627174946826528 -0.00000000000000013508 
-0.00000000000000004101 0.46435263765771994660 -0.00000000000000004315 
-0.00000000000000011189 0.48606046882476389159 -0.00000000000000001174 
-0.00000000000000001986 0.50774624846751204021 -0.00000000000000016907 
-0.00000000000000005502 0.52936825167055423513 -0.00000000000000010904 
0.00000000000000000432 0.55088667464901330817 -0.00000000000000008647 
-0.00000000000000015202 0.57226373940743169300 -0.00000000000000007531 
-0.00000000000000003259 0.59346377517088721998 0.00000000000000001620 
-0.00000000000000000729 0.61445327806254057545 -0.00000000000000002238 
0.00000000000000007488 0.63520095056923542298 -0.00000000000000015371 
-0.00000000000000011498 0.65567772237710220118 -0.00000000000000009055 
-0.00000000000000003848 0.67585675417558965794 -0.00000000000000001960 
-0.00000000000000007414 0.69571342602358021701 -0.00000000000000011885 
0.00000000000000001568 0.71522530464108091675 -0.00000000000000008273 
-0.00000000000000012191 0.73437193447715698458 -0.00000000000000010855 
0.00000000000000007812 0.75313408542068660534 -0.00000000000000006760 
0.00000000000000004358 0.77149252334989038005 -0.00000000000000001572 
-0.00000000000000002764 0.78942664555694963546 -0.00000000000000000284 
-0.00000000000000005166 0.80691322932775866317 -0.00000000000000001179 
-0.00000000000000007844 0.82392543950143504183 -0.00000000000000011627 
-0.00000000000000007185 0.84043216684624810764 -0.00000000000000000715 
0.00000000000000001701 0.85639771728100788639 -0.00000000000000012168 
-0.00000000000000003274 0.87178183714112766900 0.00000000000000000671 
0.00000000000000009694 0.88654003768315792211 -0.00000000000000007883 
0.00000000000000004082 0.90062416954581325790 -0.00000000000000007685 
0.00000000000000000085 0.91398319234465674743 -0.00000000000000003176 
-0.00000000000000013605 0.92656408394559308661 -0.00000000000000007151 
-0.00000000000000009609 0.93831283667259857140 0.00000000000000007720 
-0.00000000000000001616 0.94917549256094113641 0.00000000000000002261 
-0.00000000000000003401 0.95909917666320854135 -0.00000000000000008470 
-0.00000000000000004677 0.96803315556261737562 0.00000000000000002364 
-0.00000000000000003741 0.97593022817003216574 -0.00000000000000007643 
-0.00000000000000000850 0.98274859072261944171 -0.00000000000000007541 
0.00000000000000011394 0.98845385764236404214 -0.00000000000000002604 
-0.00000000000000000510 0.99302093323535212122 0.00000000000000003173 
-0.00000000000000002721 0.99643554700000291913 -0.00000000000000000403 
-0.00000000000000006973 0.99869535393238828558 -0.00000000000000007098 
-0.00000000000000000510 0.99981056454023342628 -0.00000000000000001669 
-0.00000000000000009013 0.99980411302183080924 0.00000000000000005755 
-0.00000000000000004762 0.99871140082951392891 0.00000000000000004327 
0.00000000000000003401 0.99657967029589789032 0.00000000000000006831 
0.00000000000000004082 0.99346707207567264142 -0.00000000000000001775 
-0.00000000000000007823 0.98944149315017992929 -0.00000000000000005665 
0.00000000000000002381 0.98457921085805266692 -0.00000000000000005849 
0.00000000000000001361 0.97896343424779153075 -0.00000000000000012904 
0.00000000000000007483 0.97268278806446595297 -0.00000000000000000555 
-0.00000000000000005442 0.96582978768705107786 0.00000000000000000653 
0.00000000000000008163 0.95849934592022045798 0.00000000000000002756 
0.00000000000000006122 0.95078734514421869850 -0.00000000000000008743 
0.00000000000000007483 0.94278930123836579558 -0.00000000000000008653 
-0.00000000000000013945 0.93459913911681724574 -0.00000000000000000017 
-0.00000000000000009183 0.92630809377107947711 -0.00000000000000012170 
-0.00000000000000013605 0.91800374546587570901 -0.00000000000000015504 
0.00000000000000000680 0.90976919320334104224 -0.00000000000000001195 
-0.00000000000000008163 0.90168236674408031028 -0.00000000000000004747 
-0.00000000000000008163 0.89381547431933627834 -0.00000000000000007156 
-0.00000000000000001361 0.88623458063894289261 0.00000000000000003352 
-0.00000000000000003401 0.87899930783861768280 -0.00000000000000004658 
-0.00000000000000014966 0.87216265055669184303 -0.00000000000000011393 
-0.00000000000000003401 0.86577089532255557813 -0.00000000000000006586 
-0.00000000000000005442 0.85986363381587682664 -0.00000000000000003211 
-0.00000000000000006122 0.85447385925873164947 -0.00000000000000006638 
-0.00000000000000012245 0.84962813517764956828 -0.00000000000000005190 
-0.00000000000000004082 0.84534682596919052955 0.00000000000000002533 
0.00000000000000003401 0.84164437907587452692 -0.00000000000000003390 
-0.00000000000000003401 0.83852964908883631523 -0.00000000000000008507 
-0.00000000000000012245 0.83600625470422984531 -0.00000000000000006438 
-0.00000000000000001361 0.83407296014155463126 0.00000000000000003338 
0.00000000000000004082 0.83272407335764264680 -0.00000000000000003423 
-0.00000000000000004082 0.83194985413802713392 -0.00000000000000004547 
-0.00000000000000008163 0.83173692589963643673 -0.00000000000000003143 
-0.00000000000000002721 0.83206868578036363715 -0.00000000000000005304 
-0.00000000000000003401 0.83292570831030920964 -0.00000000000000006865 
-0.00000000000000005442 0.83428613864719802784 -0.00000000000000004255 
-0.00000000000000006803 0.83612607200786515094 -0.00000000000000002900 
-0.00000000000000009524 0.83841991653390091077 -0.00000000000000001655 
-0.00000000000000005442 0.84114073738945938086 -0.00000000000000004054 
-0.00000000000000002721 0.84426058040110552039 -0.00000000000000010097 
-0.00000000000000006803 0.84775077401287657342 -0.00000000000000005096 
0.00000000000000001361 0.85158220874487799978 -0.00000000000000003124 
0.00000000000000000000 0.85572559371188261501 -0.00000000000000001541 
0.00000000000000000000 0.86015169008134384487 -0.00000000000000001000 
-0.00000000000000005442 0.86483152163016452363 -0.00000000000000003587 
-0.00000000000000019047 0.86973656279905098287 -0.00000000000000005446 
-0.00000000000000008163 0.87483890484506399154 -0.00000000000000003550 
0.00000000000000005442 0.88011140085997108251 0.00000000000000000549 
-0.00000000000000008163 0.88552779055711805523 -0.00000000000000001191 
-0.00000000000000002721 0.89106280583575681042 -0.00000000000000006903 
0.00000000000000000000 0.89669225821193743187 -0.00000000000000007841 
-0.00000000000000005442 0.90239310909005343575 -0.00000000000000005920 
-0.00000000000000010884 0.90814348997675720110 0.00000000000000001998 
-0.00000000000000021768 0.91392239193513624684 -0.00000000000000004717 
0.00000000000000002721 0.91970876319259331488 0.00000000000000004394 
0.00000000000000000000 0.92548026384182557891 -0.00000000000000004107 
-0.00000000000000021768 0.93121199557486644682 0.00000000000000005301 
-0.00000000000000010884 0.93687540983165229491 0.00000000000000000539 
0.00000000000000010884 0.94243750747101251442 -0.00000000000000011722 
0.00000000000000010884 0.94786037869257566690 -0.00000000000000002477 
-0.00000000000000016326 0.95310108751466549037 -0.00000000000000000424 
0.00000000000000000000 0.95811187588831314699 0.00000000000000001074 
-0.00000000000000010884 0.96284064471217312153 -0.00000000000000018180 
-0.00000000000000005442 0.96723165961027290916 0.00000000000000000984 
-0.00000000000000027210 0.97122642599149333620 0.00000000000000006699 
-0.00000000000000010884 0.97476467879631845115 0.00000000000000003895 
-0.00000000000000010884 0.97778543604413514778 -0.00000000000000000351 
0.00000000000000000000 0.98022807075360984808 0.00000000000000006728 
0.00000000000000000000 0.98203336942613872473 0.00000000000000000686 
-0.00000000000000005442 0.98314470153181243717 -0.00000000000000005625 
-0.00000000000000010884 0.98350964309161126309 -0.00000000000000004561 
-0.00000000000000010884 0.98308197043908862600 -0.00000000000000006817 
0.00000000000000000000 0.98182367018792859881 -0.00000000000000007019 
0.00000000000000000000 0.97970671032839229397 0.00000000000000006158 
-0.00000000000000005442 0.97671442427789056939 0.00000000000000002877 
-0.00000000000000005442 0.97284243744333354087 -0.00000000000000004353 
-0.00000000000000016326 0.96809912072358383917 -0.00000000000000004080 
-0.00000000000000005442 0.96250559263293877788 -0.00000000000000000145 
-0.00000000000000010884 0.95609531556833626809 -0.00000000000000010463 
-0.00000000000000005442 0.94891334553003126029 0.00000000000000002038 
0.00000000000000000000 0.94101530099670871454 -0.00000000000000002575 
-0.00000000000000005442 0.93246611774192245115 -0.00000000000000000589 
0.00000000000000000000 0.92333865378796864398 0.00000000000000003345 
-0.00000000000000005442 0.91371220368115979582 0.00000000000000003544 
0.00000000000000000000 0.90367097479385527503 -0.00000000000000002041 
0.00000000000000000000 0.89330257112842093026 0.00000000000000001199 
0.00000000000000010884 0.88269652264050757484 -0.00000000000000001938 
0.00000000000000000000 0.87194289078746112231 0.00000000000000003285 
-0.00000000000000010884 0.86113097409852390474 0.00000000000000000815 
-0.00000000000000010884 0.85034813122238461780 0.00000000000000005605 
0.00000000000000000000 0.83967873323089448068 -0.00000000000000001757 
-0.00000000000000010884 0.82920325198991473581 -0.00000000000000004555 
-0.00000000000000021768 0.81899748715560161116 0.00000000000000007855 
0.00000000000000000000 0.80913193079612655279 -0.00000000000000010026 
0.00000000000000000000 0.79967126573532132383 -0.00000000000000011270 
0.00000000000000010884 0.79067399141446703670 0.00000000000000011141 
0.00000000000000000000 0.78219216931291513095 0.00000000000000002352 
-0.00000000000000016326 0.77427127869581491293 0.00000000000000010252 
0.00000000000000010884 0.76695017260607867282 0.00000000000000007687 
0.00000000000000005442 0.76026112352772101666 -0.00000000000000004962 
-0.00000000000000010884 0.75422994796198616907 -0.00000000000000000120 
0.00000000000000000000 0.74887619922343373613 0.00000000000000002942 
0.00000000000000010884 0.74421341803226459533 0.00000000000000000336 
-0.00000000000000010884 0.74024943090845751748 0.00000000000000001803 
-0.00000000000000005442 0.73698668692448221496 -0.00000000000000000378 
0.00000000000000000000 0.73442262401313040954 0.00000000000000010811 
0.00000000000000016326 0.73255005672655293392 -0.00000000000000001859 
0.00000000000000005442 0.73135757807753387638 0.00000000000000003593 
0.00000000000000005442 0.73082996884389961334 0.00000000000000007223 
0.00000000000000000000 0.73094860846497022866 -0.00000000000000009466 
0.00000000000000000000 0.73169188239150662056 -0.00000000000000000680 
-0.00000000000000005442 0.73303558145702552018 -0.00000000000000001385 
0.00000000000000000000 0.73495328951043825683 0.00000000000000000363 
0.00000000000000010884 0.73741675618174806761 0.00000000000000002071 
0.00000000000000000000 0.74039625223984606439 0.00000000000000001529 
0.00000000000000000000 0.74386090554178119216 -0.00000000000000000948 
0.00000000000000000000 0.74777901606493923925 0.00000000000000010232 
-0.00000000000000010884 0.75211834895727658346 -0.00000000000000000096 
0.00000000000000010884 0.75684640493678190243 0.00000000000000007517 
0.00000000000000000000 0.76193066772114437235 -0.00000000000000002212 
-0.00000000000000010884 0.76733882847411660766 0.00000000000000000575 
-0.00000000000000005442 0.77303898751866539918 0.00000000000000003130 
0.00000000000000010884 0.77899983379127535343 -0.00000000000000005021 
0.00000000000000005442 0.78519080269960239704 -0.00000000000000002161 
-0.00000000000000005442 0.79158221319989507947 0.00000000000000011049 
0.00000000000000000000 0.79814538503422283178 0.00000000000000005618 
0.00000000000000005442 0.80485273716344041262 -0.00000000000000000969 
0.00000000000000005442 0.81167786850285639222 -0.00000000000000000023 
0.00000000000000000000 0.81859561945455439069 -0.00000000000000005540 
0.00000000000000005442 0.82558201218706184221 0.00000000000000012306 
0.00000000000000005442 0.83261370322582117787 0.00000000000000001339 
0.00000000000000005442 0.83966689969254770798 0.00000000000000002347 
-0.00000000000000005442 0.84671607261101600184 0.00000000000000004052 
-0.00000000000000016326 0.85373273932546167586 -0.00000000000000003551 
-0.00000000000000005442 0.86068447875636655553 0.00000000000000002512 
0.00000000000000016326 0.86753426410094114374 -0.00000000000000006005 
-0.00000000000000005442 0.87424014183042664250 -0.00000000000000002187 
0.00000000000000005442 0.88075524800513904644 -0.00000000000000003246 
0.00000000000000000000 0.88702812867426861221 0.00000000000000006634 
0.00000000000000005442 0.89300331699816171138 -0.00000000000000003465 
-0.00000000000000005442 0.89862211300289218663 0.00000000000000008696 
0.00000000000000000000 0.90382351042017761156 -0.00000000000000002179 
0.00000000000000000000 0.90854521722957692909 -0.00000000000000009341 
0.00000000000000005442 0.91272472104030000217 0.00000000000000009636 
0.00000000000000000000 0.91630035716788194033 -0.00000000000000002695 
-0.00000000000000010884 0.91921240534475079365 0.00000000000000001602 
0.00000000000000005442 0.92140452094365554725 0.00000000000000005563 
0.00000000000000000000 0.92282564150784451851 0.00000000000000005933 
0.00000000000000000000 0.92343204923099808656 0.00000000000000002295 
0.00000000000000000000 0.92318928348177675680 -0.00000000000000001640 
0.00000000000000021768 0.92207371539324678444 0.00000000000000008068 
0.00000000000000000000 0.92007368529635613630 0.00000000000000002310 
0.00000000000000010884 0.91719016723401458613 0.00000000000000010223 
0.00000000000000005442 0.91343696866194934447 0.00000000000000009815 
0.00000000000000016326 0.90884050231951019061 0.00000000000000003260 
0.00000000000000000000 0.90343918481297114109 -0.00000000000000005506 
0.00000000000000005442 0.89728252561596810732 0.00000000000000011765 
0.00000000000000005442 0.89042997326048012319 -0.00000000000000001553 
0.00000000000000010884 0.88294958426935998830 0.00000000000000005397 
0.00000000000000000000 0.87491657626373320333 0.00000000000000008457 
-0.00000000000000010884 0.86641182073360800686 -0.00000000000000004779 
0.00000000000000000000 0.85752032399328637080 0.00000000000000003714 
0.00000000000000021768 0.84832973745065554105 0.00000000000000003672 
0.00000000000000010884 0.83892893093184550679 -0.00000000000000001353 
0.00000000000000000000 0.82940665572076477385 -0.00000000000000005781 
0.00000000000000000000 0.81985031739671554440 0.00000000000000004587 
0.00000000000000005442 0.81034487260525600583 0.00000000000000001978 
0.00000000000000005442 0.80097185864200970418 -0.00000000000000002949 
-0.00000000000000005442 0.79180856018705614296 0.00000000000000001556 
0.00000000000000000000 0.78292731368844881157 0.00000000000000003140 
0.00000000000000027210 0.77439494672491349103 0.00000000000000009705 
0.00000000000000010884 0.76627234713291847434 -0.00000000000000005293 
0.00000000000000000000 0.75861415470629567359 0.00000000000000009772 
0.00000000000000000000 0.75146856680702467379 0.00000000000000001101 
0.00000000000000005442 0.74487724820189271657 -0.00000000000000006334 
0.00000000000000000000 0.73887533480083400494 -0.00000000000000008541 
-0.00000000000000021768 0.73349152066061773514 0.00000000000000008779 
0.00000000000000000000 0.72874821757793617483 -0.00000000000000008047 
0.00000000000000016326 0.72466177677885323938 0.00000000000000001029 
0.00000000000000005442 0.72124276257198072226 0.00000000000000003351 
-0.00000000000000005442 0.71849626833043023222 -0.00000000000000007393 
0.00000000000000010884 0.71642226576736156574 -0.00000000000000002374 
0.00000000000000000000 0.71501597914117498433 0.00000000000000004431 
-0.00000000000000005442 0.71426827674302950655 -0.00000000000000000234 
0.00000000000000000000 0.71416607275936383470 0.00000000000000000323 
-0.00000000000000010884 0.71469273334724836566 0.00000000000000003414 
0.00000000000000021768 0.71582848149581312924 -0.00000000000000004219 
0.00000000000000000000 0.71755079596088056082 0.00000000000000002882 
0.00000000000000000000 0.71983480024305834810 0.00000000000000008660 
0.00000000000000000000 0.72265363822507788782 -0.00000000000000002974 
0.00000000000000010884 0.72597883368718463259 -0.00000000000000001708 
0.00000000000000000000 0.72978063147672467270 -0.00000000000000003506 
0.00000000000000000000 0.73402831861793460533 -0.00000000000000002736 
0.00000000000000000000 0.73869052410974522793 -0.00000000000000003203 
0.00000000000000005442 0.74373549657350279674 0.00000000000000013216 
0.00000000000000000000 0.74913135928002594355 -0.00000000000000000398 
0.00000000000000000000 0.75484634240806347538 0.00000000000000003522 
0.00000000000000005442 0.76084899266620154012 -0.00000000000000008053 
0.00000000000000005442 0.76710836065003640272 0.00000000000000012167 
0.00000000000000010884 0.77359416650877610433 -0.00000000000000004141 
0.00000000000000000000 0.78027694466313590738 -0.00000000000000008794 
-0.00000000000000010884 0.78712816845243527286 0.00000000000000002930 
0.00000000000000010884 0.79412035569604144669 0.00000000000000004486 
0.00000000000000000000 0.80122715623563489640 -0.00000000000000004235 
0.00000000000000000000 0.80842342241097397970 0.00000000000000013596 
0.00000000000000005442 0.81568522955076883107 -0.00000000000000005875 
-0.00000000000000005442 0.82298956575777326705 -0.00000000000000001886 
-0.00000000000000005442 0.83031342988412093487 -0.00000000000000003739 
0.00000000000000000000 0.83763258662025630308 -0.00000000000000007260 
0.00000000000000005442 0.84492029662274314994 -0.00000000000000010460 
0.00000000000000005442 0.85214622504908343892 0.00000000000000002048 
0.00000000000000005442 0.85927564159544822520 -0.00000000000000007457 
0.00000000000000010884 0.86626896075509685069 -0.00000000000000002468 
0.00000000000000010884 0.87308162659310850628 0.00000000000000003109 
0.00000000000000010884 0.87966431710929504639 0.00000000000000008284 
-0.00000000000000005442 0.88596342544699047128 -0.00000000000000009616 
0.00000000000000000000 0.89192176580364601612 0.00000000000000005708 
0.00000000000000005442 0.89747944855716876855 0.00000000000000003713 
0.00000000000000016326 0.90257487000956926337 0.00000000000000002826 
0.00000000000000010884 0.90714576585814676868 -0.00000000000000004753 
0.00000000000000000000 0.91113028296388276495 0.00000000000000005385 
0.00000000000000000000 0.91446803039670354618 0.00000000000000000207 
0.00000000000000005442 0.91710107751138425503 -0.00000000000000005649 
0.00000000000000005442 0.91897487352794204885 0.00000000000000005630 
-0.00000000000000010884 0.92003906946920932519 -0.00000000000000005952 
0.00000000000000005442 0.92024822915959492153 0.00000000000000004982 
0.00000000000000005442 0.91956242120334286128 0.00000000000000012105 
0.00000000000000005442 0.91794768838564877456 -0.00000000000000013708 
0.00000000000000010884 0.91537639476562826513 -0.00000000000000001637 
-0.00000000000000016326 0.91182745387593711062 0.00000000000000005085 
-0.00000000000000005442 0.90728644394978430476 0.00000000000000009295 
-0.00000000000000005442 0.90174561801515429327 -0.00000000000000005962 
0.00000000000000005442 0.89520381808861648754 -0.00000000000000001235 
0.00000000000000016326 0.88766630363080811783 0.00000000000000004008 
0.00000000000000010884 0.87914450495625751092 0.00000000000000003362 
0.00000000000000000000 0.86965571248339490484 -0.00000000000000003130 
0.00000000000000000000 0.85922271262449034790 0.00000000000000000539 
-0.00000000000000005442 0.84787338080350260761 -0.00000000000000011054 
0.00000000000000000000 0.83564024160091354698 -0.00000000000000003012 
0.00000000000000005442 0.82256000540177287572 0.00000000000000001239 
-0.00000000000000010884 0.80867309020425537369 -0.00000000000000004720 
0.00000000000000010884 0.79402313646370137334 -0.00000000000000001985 
0.00000000000000000000 0.77865652202915924818 -0.00000000000000001984 
0.00000000000000005442 0.76262188339908398849 0.00000000000000002000 
0.00000000000000000000 0.74596964869911164264 -0.00000000000000000001 
0.00000000000000016326 0.72875158698302378024 0.00000000000000006861 
0.00000000000000021768 0.71102037769008197277 0.00000000000000004044 
0.00000000000000010884 0.69282920336689024499 -0.00000000000000003918 
0.00000000000000000000 0.67423136808631889405 -0.00000000000000003371 
0.00000000000000010884 0.65527994337412331927 0.00000000000000003850 
0.00000000000000010884 0.63602744288818513496 0.00000000000064687936 
0.00000000000000000000 0.61652552658679693476 0.00000000721348033134 
0.00000000000000000000 0.59682473467077057361 0.00000020716576802041 
0.00000000000000005442 0.57697425118814149592 0.00000166731981138071 
-0.00000000000000010884 0.55702169684776070557 0.00000750843791909862 
-0.00000000000000005442 0.53701295029647244661 0.00002420301659447026 
-0.00000000000000010884 0.51699199687077268539 0.00006275379633946932 
0.00000000000000010884 0.49700080363442816767 0.00013960773107098251 
0.00000000000000010884 0.47707921935496583332 0.00027723470832764064 
0.00000000000000005442 0.45726489795054420240 0.00050435203667554456 
0.00000000000000000000 0.43759324385087067233 0.00085581046364056098 
-0.00000000000000010884 0.41809737765793297815 0.00137217941048296105 
0.00000000000000010884 0.39880812046088987000 0.00209908150479215169 
0.00000000000000000000 0.37975399515122426619 0.00308633195358920271 
0.00000000000000005442 0.36096209772481219202 0.00438693885507660669 
-0.00000000000000005442 0.34245606995325883481 0.00605601776332924651 
0.00000000000000005442 0.32425711163291631722 0.00814966889423026676 
0.00000000000000000000 0.30638485332751719259 0.01072385919415956221 
0.00000000000000000000 0.28885683259248418064 0.01383334475165162725 
-0.00000000000000010884 0.27168856427846616031 0.01753066219730229150 
0.00000000000000000000 0.25489361736501697786 0.02186521114450411599 
-0.00000000000000005442 0.23848369710561401202 0.02688244359670901792 
0.00000000000000000000 0.22246873134944131212 0.03262317072367752063 
0.00000000000000005442 0.20685695999083486551 0.03912299256271486309 
0.00000000000000005442 0.19165502658289598759 0.04641185205664841162 
0.00000000000000000000 0.17686807123658160323 0.05451371138933939348 
0.00000000000000000000 0.16249982400976736852 0.06344634578900044952 
-0.00000000000000005442 0.14855269807170654039 0.07322124779096064739 
0.00000000000000016326 0.13502788200639667671 0.08384363332672721547 
-0.00000000000000010884 0.12192543069322447913 0.09531253987239933501 
0.00000000000000000000 0.10924435427450042424 0.10762100618261631613 
0.00000000000000000000 0.09698270478691656260 0.12075632279342286834 
0.00000000000000010884 0.08513766009734373419 0.13470034243890496861 
0.00000000000000005442 0.07370560484265581414 0.14942983973657170127 
-0.00000000000000005442 0.06268220812835832711 0.16491690990451754462 
-0.00000000000000005442 0.05206249779171096687 0.18112939683393855517 
0.00000000000000000000 0.04184093108181906329 0.19803134151349344183 
0.00000000000000000000 0.03201146165189419635 0.21558344255245337484 
-0.00000000000000010884 0.02256760279766524199 0.23374352134775713830 
0.00000000000000000000 0.01350248691088965641 0.25246698526087890668 
0.00000000000000005442 0.00480892114821759430 0.27170728299304341968 
0.00000000000000000000 -0.00352056065653073803 0.29141634715494918462 
-0.00000000000000010884 -0.01149364978412436081 0.31154501980642673731 
0.00000000000000000000 -0.01911821805181428829 0.33204345748212227285 
0.00000000000000005442 -0.02640227677304684065 0.35286151291380446482 
0.00000000000000005442 -0.03335393914702092927 0.37394909130299469613 
0.00000000000000010884 -0.03998138595702388498 0.39525647958605597543 
0.00000000000000005442 -0.04629283444574214951 0.41673464766601664433 
0.00000000000000016326 -0.05229651022720240711 0.43833552106099282764 
0.00000000000000005442 -0.05800062208844952022 0.46001222483894449455 
0.00000000000000005442 -0.06341333952934349871 0.48171929907435245832 
-0.00000000000000005442 -0.06854277288578858318 0.50341288637664194372 
0.00000000000000000000 -0.07339695588011908856 0.52505089230565793468 
0.00000000000000005442 -0.07798383044212210680 0.54659311970946400372 
0.00000000000000000000 -0.08231123364510722906 0.56800137819764284774 
-0.00000000000000010884 -0.08638688660341425907 0.58923957010270522350 
0.00000000000000005442 -0.09021838518064573265 0.61027375438676323416 
-0.00000000000000005442 -0.09381319236158718045 0.63107219002389514095 
0.00000000000000005442 -0.09717863214514391168 0.65160536043408057161 
-0.00000000000000005442 -0.10032188482054375800 0.67184598056560029811 
0.00000000000000016326 -0.10324998349445423107 0.69176898822252541610 
-0.00000000000000010884 -0.10596981174243334800 0.71135151855346401284 
-0.00000000000000005442 -0.10848810226420574354 0.73057276001105853069 
0.00000000000000005442 -0.11081143642853856501 0.74941332564519158588 
0.00000000000000005442 -0.11294624459992912147 0.76785409131237269964 
0.00000000000000000000 -0.11489880714583713961 0.78587483441231620329 
0.00000000000000000000 -0.11667525602974689047 0.80345294534455458102 
0.00000000000000000000 -0.11828157690187303397 0.82056237551378730100 
0.00000000000000000000 -0.11972361160579340911 0.83717290655641707353 
0.00000000000000000000 -0.12100706102564638689 0.85324976967057009070 
-0.00000000000000010884 -0.12213748820476069690 0.86875360606938101249 
0.00000000000000005442 -0.12312032167263047000 0.88364073529562936482 
0.00000000000000000000 -0.12396085892301511588 0.89786368398201454877 
0.00000000000000000000 -0.12466426999158175537 0.91137192089212748503 
0.00000000000000000000 -0.12523617409048626303 0.92411274260198661423 
0.00000000000000000000 -0.12568172767661739408 0.93603225633026854169 
0.00000000000000005442 -0.12600486012225228794 0.94707641093265715337 
0.00000000000000000000 -0.12621027200883744301 0.95719203298714072847 
0.00000000000000000000 -0.12630255418860172889 0.96632783416570611212 
0.00000000000000000000 -0.12628619117194872512 0.97443546344822296046 
0.00000000000000000000 -0.12616556439002626910 0.98147094874063467440 
0.00000000000000005442 -0.12594495531690225176 0.98739656086463367668 
-0.00000000000000010884 -0.12562854843906318125 0.99218275639579645020 
-0.00000000000000005442 -0.12522043406296837209 0.99580992211468588593 
0.00000000000000005442 -0.12472461095416281784 0.99826975636783410462 
0.00000000000000005442 -0.12414498880395583025 0.99956620526325212772 
-0.00000000000000005442 -0.12348539052194336396 0.99971593022004079376 
0.00000000000000005442 -0.12274955435468759557 0.99874832343914610178 
0.00000000000000010884 -0.12194113583267095213 0.99670511376659920444 
0.00000000000000000000 -0.12106370954923793837 0.99363962069749289796 
0.00000000000000000000 -0.12012077077662922098 0.98961572170638434365 
0.00000000000000010884 -0.11911432862193029047 0.98470659988195807788 
0.00000000000000010884 -0.11804921061050713260 0.97899333670209987002 
0.00000000000000000000 -0.11692867801098165426 0.97256341003106960841 
0.00000000000000005442 -0.11575591796235887299 0.96550915106005219535 
0.00000000000000005442 -0.11453404437725472897 0.95792620670134487337 
0.00000000000000000000 -0.11326609873243909110 0.94991204644027094073 
-0.00000000000000010884 -0.11195505075671377537 0.94156454524530464045 
-0.00000000000000010884 -0.11060379902630750049 0.93298066711024940645 
-0.00000000000000002721 -0.10921517147801561298 0.92425526733162188808 
0.00000000000000002721 -0.10779192585027631834 0.91548002581570098179 
0.00000000000000008163 -0.10633675006223455850 0.90674251861428201149 
-0.00000000000000002721 -0.10485226254065369011 0.89812543051693771723 
-0.00000000000000002721 -0.10334101250425108132 0.88970590786244307946 
0.00000000000000008163 -0.10180548021471357012 0.88155504773498294391 
0.00000000000000002721 -0.10024807720326145422 0.87373751733079918491 
-0.00000000000000005442 -0.09867114648121355636 0.86631129545940555037 
0.00000000000000000000 -0.09707696274254443147 0.85932752681816726437 
0.00000000000000010884 -0.09546773256594212609 0.85283047878709439260 
0.00000000000000000000 -0.09384559462336339308 0.84685758997087956512 
0.00000000000000008163 -0.09221261990156563726 0.84143959950939295478 
0.00000000000000008163 -0.09057081194255273138 0.83660074623195845867 
0.00000000000000010884 -0.08892210710833896303 0.83235902699541020056 
0.00000000000000008163 -0.08726837487488757483 0.82872650397676761447 
0.00000000000000005442 -0.08561141815954680101 0.82570965124902073740 
0.00000000000000006803 -0.08395297368577074593 0.82330973161861054077 
0.00000000000000009524 -0.08229471238839110303 0.82152319541601082076 
0.00000000000000000000 -0.08063823986219918749 0.82034209368119037631 
0.00000000000000000000 -0.07898509685610068110 0.81975449895248730936 
0.00000000000000008163 -0.07733675981462750926 0.81974492763314854571 
0.00000000000000005442 -0.07569464146814507133 0.82029475866041734466 
0.00000000000000006122 -0.07406009147264207282 0.82138264392645254919 
-0.00000000000000004082 -0.07243439709959162420 0.82298490659003042946 
0.00000000000000006803 -0.07081878397597402008 0.82507592406664453932 
0.00000000000000019047 -0.06921441687419088717 0.82762849308793318137 
0.00000000000000000680 -0.06762240055126045313 0.83061417477664967191 
-0.00000000000000013605 -0.06604378063636393015 0.83400361818927259971 
0.00000000000000005782 -0.06447954456553116331 0.83776686123466426181 
0.00000000000000012245 -0.06293062256198500570 0.84187360828457924455 
0.00000000000000004932 -0.06139788866042367177 0.84629348415175298381 
-0.00000000000000008673 -0.05988216177331155687 0.85099626442572662288 
0.00000000000000006888 -0.05838420679705329241 0.85595208242786458008 
-0.00000000000000001275 -0.05690473575576460857 0.86113161327792353550 
0.00000000000000006335 -0.05544440898020777664 0.86650623575785667985 
-0.00000000000000002891 -0.05400383631933929757 0.87204817281731128453 
-0.00000000000000003061 -0.05258357838181708377 0.87773061169250155000 
0.00000000000000003401 -0.05118414780474132147 0.88352780470880054597 
0.00000000000000005102 -0.04980601054683217455 0.88941515191043463151 
-0.00000000000000006462 -0.04844958720321927009 0.89536926591508270157 
-0.00000000000000006462 -0.04711525433898551551 0.90136795795275526100 
0.00000000000000005442 -0.04580334583860597164 0.90738981091513382093 
0.00000000000000000680 -0.04451415426842474099 0.91341317693541546063 
0.00000000000000008843 -0.04324793224934354169 0.91941490333902919918 
-0.00000000000000006803 -0.04200489383692018047 0.92536908293293074212 
0.00000000000000002041 -0.04078521590613547187 0.93124601158205688733 
0.00000000000000005442 -0.03958903953813051879 0.93701145146389652751 
-0.00000000000000004082 -0.03841647140629882162 0.94262623843563353443 
-0.00000000000000002041 -0.03726758515918429659 0.94804623090924788897 
0.00000000000000006803 -0.03614242279772600375 0.95322257096033269352 
-0.00000000000000001361 -0.03504099604448281113 0.95810221247883520235 
0.00000000000000002041 -0.03396328770256490381 0.96262866314710782145 
0.00000000000000000680 -0.03291038605249375221 0.96674288466347324533 
0.00000000000000005442 -0.03188129925202647791 0.97038429717955310139 
0.00000000000000010884 -0.03087564416669339937 0.97349183805215699916 
-0.00000000000000002721 -0.02989330526561790116 0.97600503071498823093 
0.00000000000000001361 -0.02893414445887728878 0.97786503320544204687 
0.00000000000000004082 -0.02799800236315665852 0.97901579214806322415 
-0.00000000000000001361 -0.02708469954382520042 0.97940564660061968372 
0.00000000000000002721 -0.02619403773208420563 0.97898929906400811163 
-0.00000000000000003401 -0.02532580101594988919 0.97772980077878890448 
0.00000000000000010204 -0.02447975700395197546 0.97560029719186014407 
-0.00000000000000013605 -0.02365565796053997402 0.97258538623816948032 
-0.00000000000000010884 -0.02285324191230430832 0.96868201967592337809 
-0.00000000000000010884 -0.02207223372422218929 0.96389993245227778562 
0.00000000000000001361 -0.02131234614525561594 0.95826162220674704351 
0.00000000000000005442 -0.02057328082272047443 0.95180192475071689895 
0.00000000000000001361 -0.01985472928495762152 0.94456724505050837504 
-0.00000000000000009524 -0.01915580088836650943 0.93661450954754121856 
-0.00000000000000006803 -0.01847593931078994611 0.92800990666257021644 
0.00000000000000004082 -0.01781569138622162221 0.91882747967968680936 
-0.00000000000000002721 -0.01717471322856127525 0.90914763114427599167 
-0.00000000000000005442 -0.01655265547261648706 0.89905559139132307234 
-0.00000000000000005442 -0.01594916405148087343 0.88863989656018316232 
-0.00000000000000002721 -0.01536388094187238554 0.87799091397208828269 
-0.00000000000000001361 -0.01479644487760898956 0.86719944541999294252 
-0.00000000000000005442 -0.01424649203146269132 0.85635543200207830949 
-0.00000000000000002721 -0.01371365666569895891 0.84554677778501108332 
0.00000000000000000000 -0.01319757175166098688 0.83485830390635440423 
-0.00000000000000005442 -0.01269786955881498092 0.82437083976106051431 
-0.00000000000000004082 -0.01221418221372203884 0.81416045367036693481 
-0.00000000000000002041 -0.01174614222944384348 0.80429782188119869346 
0.00000000000000000000 -0.01129338300593438205 0.79484773185025547892 
0.00000000000000009524 -0.01085553930200603041 0.78586871347730524739 
-0.00000000000000010884 -0.01043224767948952234 0.77741279020793530030 
0.00000000000000004082 -0.01002314692024216733 0.76952534066516331546 
0.00000000000000004082 -0.00962787841668041010 0.76224506062976427057 
-0.00000000000000010884 -0.00924608653653867345 0.75560401471059768230 
-0.00000000000000002041 -0.00887741896257330902 0.74962776687155308064 
0.00000000000000005442 -0.00852152700795373239 0.74433557905805869392 
-0.00000000000000007483 -0.00817806590808602477 0.73974066744518318650 
-0.00000000000000002721 -0.00784669508963532943 0.73585050626795978079 
-0.00000000000000002721 -0.00752707841751581400 0.73266716975437329307 
-0.00000000000000004082 -0.00721888442062198349 0.73018770332909199716 
-0.00000000000000004082 -0.00692178649708509539 0.72840451596271926782 
-0.00000000000000006803 -0.00663546309982730211 0.72730578628268693908 
0.00000000000000004082 -0.00635959790319889744 0.72687587581748547283 
-0.00000000000000006803 -0.00609387995146893399 0.72709574349894068312 
-0.00000000000000008163 -0.00583800378994233510 0.72794335628416395600 
-0.00000000000000008163 -0.00559166957946435287 0.72939409146897971059 
-0.00000000000000001361 -0.00535458319506948444 0.73142112693988936556 
0.00000000000000000680 -0.00512645630951840108 0.73399581624607901364 
-0.00000000000000001361 -0.00490700646245733393 0.73708804596245947049 
-0.00000000000000005442 -0.00469595711592063220 0.74066657335678753871 
-0.00000000000000011564 -0.00449303769688523015 0.74469934286733685536 
-0.00000000000000001361 -0.00429798362757013649 0.74915378034227442239 
-0.00000000000000006122 -0.00411053634415880793 0.75399706438860869540 
-0.00000000000000006122 -0.00393044330460590608 0.75919637452877297701 
-0.00000000000000006122 -0.00375745798617435102 0.76471911616859311600 
-0.00000000000000013605 -0.00359133987333028508 0.77053312264392415099 
-0.00000000000000019047 -0.00343185443660552194 0.77660683483731351995 
-0.00000000000000013605 -0.00327877310301826147 0.78290945904348552276 
-0.00000000000000008843 -0.00313187321862609626 0.78941110391618551922 
-0.00000000000000012245 -0.00299093800376587634 0.79608289745193394626 
-0.00000000000000005442 -0.00285575650151456738 0.80289708506146906242 
-0.00000000000000004082 -0.00272612351988624690 0.80982710984994477066 
-0.00000000000000001361 -0.00260183956826390674 0.81684767361316534817 
-0.00000000000000004082 -0.00248271078854418823 0.82393467651306484534 
-0.00000000000000004082 -0.00236854888144999486 0.83106466900757303140 
-0.00000000000000003401 -0.00225917102845455287 0.83821376738380759530 
-0.00000000000000013605 -0.00215439980973706731 0.84535636632215438446 
-0.00000000000000012245 -0.00205406311856848756 0.85246392054662289972 
-0.00000000000000012245 -0.00195799407251750915 0.85950395929463752065 
-0.00000000000000005782 -0.00186603092183734590 0.86643941822120018603 
-0.00000000000000013945 -0.00177801695538317046 0.87322831759639552018 
-0.00000000000000009183 -0.00169380040439169187 0.87982377782330689620 
-0.00000000000000012585 -0.00161323434443606307 0.88617433904879838735 
-0.00000000000000015986 -0.00153617659585098161 0.89222453750967856134 
-0.00000000000000006803 -0.00146277776215821215 0.89791568452823111723 
-0.00000000000000009864 -0.00139372085480019264 0.90318679261375856004 
-0.00000000000000010884 -0.00132769567200243530 0.90797559529012195068 
-0.00000000000000020067 -0.00126458216001679516 0.91221961178915877966 
-0.00000000000000017006 -0.00120426428419887388 0.91585721369243033863 
-0.00000000000000008843 -0.00114662993603828478 0.91882867390743516722 
-0.00000000000000003741 -0.00109157083983766321 0.92107738723886023458 
-0.00000000000000015646 -0.00103898245923962629 0.92255157275403310013 
-0.00000000000000012925 -0.00098876390378585381 0.92320627416184908309 
-0.00000000000000011904 -0.00094081783568125308 0.92300531344892233765 
-0.00000000000000019387 -0.00089505037692227539 0.92192296759006808760 
0.00000000000000000340 -0.00085137101693784616 0.91994523862093835476 
-0.00000000000000006803 -0.00080969252088031673 0.91707065990701708280 
-0.00000000000000013605 -0.00076993083869212383 0.91331063227689057715 
-0.00000000000000012585 -0.00073200501506281838 0.90868931783148998438 
-0.00000000000000006803 -0.00069583710038349691 0.90324314071985167818 
-0.00000000000000007823 -0.00066135206279510660 0.89701995619181318364 
-0.00000000000000010544 -0.00062706939794373185 0.89007795433481007308 
-0.00000000000000002211 -0.00059440631677982439 0.88248436506541727553 
-0.00000000000000013945 -0.00056329181737273454 0.87431402772326816120 
-0.00000000000000009524 -0.00053365769257145558 0.86564788319442065312 
-0.00000000000000005612 -0.00050543843814981123 0.85657143977460015183 
-0.00000000000000002211 -0.00047857116292277316 0.84717325664201881263 
-0.00000000000000000510 -0.00045299550085567679 0.83754348133457090508 
-0.00000000000000008163 -0.00042865352518686435 0.82777247036393630797 
-0.00000000000000004422 -0.00040548966457397406 0.81794951528465431601 
-0.00000000000000015816 -0.00038345062127186075 0.80816169031880302764 
-0.00000000000000011224 -0.00036248529134539948 0.79849283210040244985 
-0.00000000000000006462 -0.00034254468691728159 0.78902265728313514259 
-0.00000000000000012925 -0.00032358186044194564 0.77982601964987841026 
-0.00000000000000006462 -0.00030555183100371174 0.77097230494703161696 
-0.00000000000000001361 -0.00028841151261895637 0.76252495889779248195 
-0.00000000000000002891 -0.00027211964453430069 0.75454114167257591017 
-0.00000000000000011224 -0.00025663672349943899 0.74707150045194758992 
-0.00000000000000009694 -0.00024192493799479791 0.74016005054555844556 
-0.00000000000000014966 -0.00022794810439130629 0.73384415476771303055 
-0.00000000000000012585 -0.00021467160501789545 0.72815459035661156406 
-0.00000000000000012585 -0.00020206232811036264 0.72311569260369801260 
-0.00000000000000004847 -0.00019008860961034770 0.71874556447987703045 
-0.00000000000000008333 -0.00017872017678831410 0.71505634185942323899 
-0.00000000000000003486 -0.00016792809365626346 0.71205450440792550371 
-0.00000000000000005782 -0.00015768470813871507 0.70974122278026763322 
-0.00000000000000011224 -0.00014796360096868590 0.70811273343605529718 
-0.00000000000000004847 -0.00013873953627180146 0.70716073309510962819 
-0.00000000000000017857 -0.00012998841380747696 0.70687278560116595383 
-0.00000000000000003401 -0.00012168722282712925 0.70723273471799708023 
-0.00000000000000009013 -0.00011381399751547478 0.70822111713278446121 
-0.00000000000000004422 -0.00010634777397702341 0.70981557067370604219 
-0.00000000000000004252 -0.00009926854873151079 0.71199123345230874715 
-0.00000000000000002636 -0.00009255723868012031 0.71472113030858130944 
-0.00000000000000004677 -0.00008619564250633269 0.71797654356220297345 
-0.00000000000000007738 -0.00008016640347332249 0.72172736565346584658 
-0.00000000000000013265 -0.00007445297357980727 0.72594243178960560225 
-0.00000000000000001701 -0.00006903957903956125 0.73058983119580922505 
0.00000000000000002721 -0.00006391118704562884 0.73563719600505284024 
-0.00000000000000012372 -0.00005905347378337450 0.74105196720807542388 
-0.00000000000000010161 -0.00005445279365646569 0.74680163742583582920 
-0.00000000000000004932 -0.00005009614968929988 0.75285397056373182245 
-0.00000000000000007823 -0.00004597116507095130 0.75917719866222477254 
-0.00000000000000004762 -0.00004206605580423057 0.76574019647493463125 
-0.00000000000000017304 -0.00003836960442852434 0.77251263448567097925 
-0.00000000000000008503 -0.00003487113477875645 0.77946511122315542686 
-0.00000000000000009566 -0.00003156048774975017 0.78656926584937092439 
-0.00000000000000008928 -0.00002842799803210133 0.79379787208742424998 
-0.00000000000000010799 -0.00002546447178711424 0.80112491461977763940 
-0.00000000000000004082 -0.00002266116523067884 0.80852564192337894600 
-0.00000000000000016284 -0.00002000976409513743 0.81597644005715541660 
-0.00000000000000011819 -0.00001750236393501952 0.82345415999084237146 
-0.00000000000000012542 -0.00001513145125464549 0.83093496444693037972 
0.00000000000000000255 -0.00001288988542079711 0.83839303611710924713 
0.00000000000000003316 -0.00001077088133954421 0.84579939540349158289 
-0.00000000000000006144 -0.00000876799286290171 0.85312097342058290650 
-0.00000000000000010969 -0.00000687509690471895 0.86032001204326924437 
-0.00000000000000010161 -0.00000508637823615597 0.86735381101192210451 
-0.00000000000000000170 -0.00000339631493682899 0.87417480730579077974 
-0.00000000000000004741 -0.00000179966447591136 0.88073095001688972427 
-0.00000000000000009736 -0.00000029145040151740 0.88696632150399945527 
-0.00000000000000006377 0.00000000000000010884 0.89282195008571652028 
-0.00000000000000007632 0.00000000000000008163 0.89823675891672327687 
0.00000000000000003444 0.00000000000000004082 0.90314859841635519722 
-0.00000000000000004741 -0.00000000000000004082 0.90749531448646902909 
-0.00000000000000013754 0.00000000000000004082 0.91121581086569813923 
0.00000000000000001105 0.00000000000000009524 0.91425107065351152169 
-0.00000000000000004485 0.00000000000000006803 0.91654510881947770518 
-0.00000000000000019238 -0.00000000000000001361 0.91804583405519046835 
-0.00000000000000012946 0.00000000000000008163 0.91870580440498372798 
-0.00000000000000000351 -0.00000000000000001361 0.91848286658920008652 
-0.00000000000000008089 0.00000000000000008163 0.91734067373731065231 
-0.00000000000000007706 -0.00000000000000001361 0.91524908035221863578 
-0.00000000000000007121 0.00000000000000000000 0.91218441674059180801 
-0.00000000000000005314 0.00000000000000012245 0.90812964789985373137 
-0.00000000000000013541 0.00000000000000014966 0.90307442399905180075 
-0.00000000000000019313 0.00000000000000005442 0.89701503118621728206 
-0.00000000000000008237 0.00000000000000016326 0.88995425256177340678 
-0.00000000000000001105 0.00000000000000004082 0.88190114984005874010 
-0.00000000000000009353 0.00000000000000001361 0.87287077654183020670 
-0.00000000000000007727 0.00000000000000006803 0.86288383357943099217 
-0.00000000000000011968 0.00000000000000006803 0.85196627786860723575 
-0.00000000000000007387 0.00000000000000005442 0.84014889417739724298 
-0.00000000000000015178 0.00000000000000008163 0.82746683984836821857 
-0.00000000000000014115 0.00000000000000000000 0.81395917134578721353 
-0.00000000000000013966 0.00000000000000001361 0.79966836081875070086 
-0.00000000000000002168 0.00000000000000004082 0.78463981006461203105 
-0.00000000000000005469 0.00000000000000004082 0.76892136844916714189 
-0.00000000000000006154 0.00000000000000005442 0.75256286051171950024 
-0.00000000000000012914 0.00000000000000006803 0.73561562817100878409 
0.00000000000000002546 0.00000000000000013605 0.71813209166536906558 
-0.00000000000000005873 0.00000000000000010884 0.70016533261745539374 
-0.00000000000000015869 0.00000000000000004082 0.68176870191796867804 
-0.00000000000000003539 0.00000000000000010884 0.66299545447911978346 
-0.00000000000000010730 0.00000000000000002721 0.64389841232030642360 
0.00000000079581125873 0.00000000000000008163 0.62452965691715645047 
0.00000006783503698663 0.00000000000000008163 0.60494025127092809768 
0.00000079354332789595 0.00000000000000010884 0.58517999173730295137 
0.00000432183450705252 0.00000000000000006803 0.56529718929012362505 
0.00001563218221817013 0.00000000000000010884 0.54533847958412895451 
0.00004378847683620519 0.00000000000000012245 0.52534866091833276602 
0.00010297087485799559 0.00000000000000009524 0.50537055898502825091 
0.00021319336253675314 0.00000000000000005442 0.48544491711505016740 
0.00040066966310968552 0.00000000000000005442 0.46561031059417368194 
0.00069783110257253022 0.00000000000000005442 0.44590308352481705656 
0.00114302666181773181 0.00000000000000002721 0.42635730663782961392 
0.00177995130151240239 0.00000000000000014966 0.40700475441764671913 
0.00265685660858683455 0.00000000000000014966 0.38787547289060259059 
0.00382560011958891014 -0.00000000000000004082 0.36899687484456522579 
0.00534058806548239756 0.00000000000000013605 0.35039299705761062231 
0.00725766209009641363 0.00000000000000012245 0.33208653299862084252 
0.00963297473206566925 0.00000000000000014966 0.31409799763299750541 
0.01252189188151481107 0.00000000000000008163 0.29644578643691954500 
0.01597795357764891788 0.00000000000000008163 0.27914624278061922480 
0.02005191779135370375 0.00000000000000012245 0.26221373234835776422 
0.02479090550287813347 0.00000000000000000000 0.24566072334315211534 
0.03023765960801387889 0.00000000000000001361 0.22949787130771989729 
0.03642992506360378385 0.00000000000000002721 0.21373410747828316958 
0.04339995325751135058 0.00000000000000008163 0.19837672967356795306 
0.05117412986270182540 0.00000000000000014966 0.18343149480660772555 
0.05977272238549963257 0.00000000000000002721 0.16890271219090519095 
0.06920974120124909201 0.00000000000000012245 0.15479333689443025568 
0.07949290603165089231 0.00000000000000016326 0.14110506247424564608 
0.09062370849552792151 0.00000000000000008163 0.12783841250075414497 
0.10259756049479867857 -0.00000000000000001361 0.11499283035331163416 
0.11540401771638063300 0.00000000000000005442 0.10256676683792800842 
0.12902706737744398802 0.00000000000000010884 0.09055776524281074213 
0.14344546945846081698 0.00000000000000010884 0.07896254350843075198 
0.15863314100314118704 -0.00000000000000001361 0.06777707324556779545 
0.17455957356899795552 0.00000000000000001361 0.05699665538737194032 
0.19119027454473019878 0.00000000000000013605 0.04661599230991032849 
0.20848722377389572458 0.00000000000000009524 0.03662925630000057192 
0.22640933770670595981 0.00000000000000014966 0.02703015428948380913 
0.24491293411623779597 0.00000000000000008163 0.01781198881155708971 
0.26395219123949215101 0.00000000000000005442 0.00896771516752764911 
0.28347959601913225169 0.00000000000000005442 0.00048999482153919962 
0.30344637691375203614 -0.00000000000000002721 -0.00762875493339602601 
0.32380291750166195763 -0.00000000000000006803 -0.01539631497215007000 
0.34449914781692181354 0.00000000000000017687 -0.02282062191154308334 
0.36548491102048474843 0.00000000000000005442 -0.02990972915952657893 
0.38671030361992214663 -0.00000000000000002721 -0.03667177132319399124 
0.40812598800593830051 0.00000000000000002721 -0.04311493184768995512 
0.42968347657206845680 -0.00000000000000004082 -0.04924741374869966160 
0.45133538712593262998 0.00000000000000016326 -0.05507741329387976642 
0.47303566968763871570 -0.00000000000000001361 -0.06061309648318063265 
0.49473980510548060119 0.00000000000000016326 -0.06586257817429284900 
0.51640497620369985032 0.00000000000000010884 -0.07083390369731618064 
0.53799021241483424571 -0.00000000000000002041 -0.07553503280197937375 
0.55945650904349386590 -0.00000000000000005442 -0.07997382578124113961 
0.58076692246278338594 -0.00000000000000004082 -0.08415803161667535781 
0.60188664266266178604 0.00000000000000000000 -0.08809527799360800104 
0.62278304465488676378 -0.00000000000000002721 -0.09179306303735568218 
0.64342572029536260203 0.00000000000000001361 -0.09525874862602742854 
0.66378649211510321049 0.00000000000000004082 -0.09849955514007394108 
0.68383941075889931316 0.00000000000000004762 -0.10152255751399127948 
0.70356073744724134666 0.00000000000000004762 -0.10433468246122908074 
0.72292887894014923322 0.00000000000000005442 -0.10694270674932128407 
0.74192399461731728394 0.00000000000000014966 -0.10935325640846964290 
0.76052701484829243750 0.00000000000000010204 -0.11157280676320210921 
0.77871831980031580578 0.00000000000000001361 -0.11360768318322732318 
0.79647639678413240105 -0.00000000000000000340 -0.11546406245616075426 
0.81377667963577959842 0.00000000000000005102 -0.11714797469134112518 
0.83059068331900087756 0.00000000000000018707 -0.11866530567046493228 
0.84688548251756667895 0.00000000000000016326 -0.12002179956717119735 
0.86262353853116169322 0.00000000000000008503 -0.12122306196399791622 
0.87776284953484806639 0.00000000000000009183 -0.12227456310125851824 
0.89225738142150068377 0.00000000000000007823 -0.12318164129832576137 
0.90605772702162234999 0.00000000000000019727 -0.12394979463279848231 
0.91911193813281888421 -0.00000000000000005442 -0.12458492427732761887 
0.93136647566155161826 -0.00000000000000000340 -0.12509081261867899260 
0.94276722687384206800 0.00000000000000011904 -0.12547231034906342062 
0.95326054421986605725 0.00000000000000007993 -0.12573415402373994132 
0.96279428328640426216 0.00000000000000005272 -0.12588096958205557963 
0.97131902627816069096 0.00000000000000013605 -0.12591727577088909773 
0.97878979847075620047 0.00000000000000014200 -0.12584748744991994251 
0.98516809128838522813 0.00000000000000008758 -0.12567591876180603250 
0.99042384492700075160 0.00000000000000004252 -0.12540678615374456495 
0.99453715828884936556 0.00000000000000004464 -0.12504421124002176868 
0.99749959474607730048 0.00000000000000006207 -0.12459222349801708785 
0.99931502507491343223 0.00000000000000013765 -0.12405476279274069151 
1.00000000000000000000 0.00000000000000002216 -0.12343568172734463440 
0.99958367917739376907 0.00000000000000004677 -0.12273874781917537558 
0.99810736514599096569 0.00000000000000013265 -0.12196764550283029083 
0.99562370299466240731 0.00000000000000000255 -0.12112597796335534961 
0.99219561176170301131 -0.00000000000000007058 -0.12021698066494891644 
0.98789501389459255520 0.00000000000000004677 -0.11924328313300337767 
0.98280142599954367633 0.00000000000000006207 -0.11820943582887569190 
0.97700046879243407361 0.00000000000000014370 -0.11711872789724389610 
0.97058234752890537589 0.00000000000000001190 -0.11597437426742715494 
0.96364034691565902957 0.00000000000000010884 -0.11477951659196707068 
0.95626937707934323019 0.00000000000000011734 -0.11353722406862024052 
0.94856459994270680980 0.00000000000000008843 -0.11225049415571972111 
0.94062015856704805916 0.00000000000000009864 -0.11092225319105970816 
0.93252802581647331603 0.00000000000000004592 -0.10955535692455196928 
0.92437698316865524184 0.00000000000000011564 -0.10815259097488891249 
0.91625173567521522866 0.00000000000000013265 -0.10671667122035777275 
0.90823216496339953530 0.00000000000000013095 -0.10525024413376281307 
0.90039271874468307377 0.00000000000000010204 -0.10375588707117722187 
0.89280193251346418037 0.00000000000000011054 -0.10223610852392681081 
0.88552207692721207621 0.00000000000000007143 -0.10069334834285269265 
0.87860892269931401000 0.00000000000000000510 -0.09912997794348656078 
0.87211161364585032540 0.00000000000000003741 -0.09754830050033341804 
0.86607263774628084896 0.00000000000000017346 -0.09595055113797335000 
0.86052788564614612898 0.00000000000000013945 -0.09433889712619834833 
0.85550678589147355346 0.00000000000000010544 -0.09271543808587788538 
0.85103250628783488896 0.00000000000000013095 -0.09108220621171533860 
0.84712221107491303407 0.00000000000000018877 -0.08944116651751886360 
0.84378736405784837693 0.00000000000000004762 -0.08779421710906767928 
0.84103406840237526776 0.00000000000000007653 -0.08614318948910991425 
0.83886343444939459602 0.00000000000000015136 -0.08448984889849764368 
0.83727196760835309597 0.00000000000000012075 -0.08283589469693197760 
0.83625196912396204674 0.00000000000000014115 -0.08118296078628169099 
0.83579194325775563179 0.00000000000000010204 -0.07953261607892853080 
0.83587700516856910937 0.00000000000000009864 -0.07788636501311874127 
0.83648928450123360978 0.00000000000000012075 -0.07624564811682768561 
0.83760832039043864317 0.00000000000000005952 -0.07461184262120168498 
0.83921144424907234693 0.00000000000000006292 -0.07298626312421979678 
0.84127414733175487349 0.00000000000000013945 -0.07137016230481810219 
0.84377043064094037206 0.00000000000000002551 -0.06976473168734376173 
0.84667313527253795780 0.00000000000000011734 -0.06817110245585393524 
0.84995425177950212348 0.00000000000000006122 -0.06659034631745391897 
0.85358520756524247641 0.00000000000000022959 -0.06502347641356313879 
0.85753713170488177209 0.00000000000000012415 -0.06347144827772722986 
0.86178109693284554726 0.00000000000000014796 -0.06193516083834431363 
0.86628833883202138733 0.00000000000000002381 -0.06041545746444743070 
0.87103045251517585701 0.00000000000000010034 -0.05891312705248832188 
0.87597956730612369647 0.00000000000000015136 -0.05742890515188952411 
0.88110850010910624075 0.00000000000000004932 -0.05596347512698279791 
0.88639088830290568843 -0.00000000000000003231 -0.05451746935281643475 
0.89180130311424177236 0.00000000000000017006 -0.05309147044221324691 
0.89731534451599326285 -0.00000000000000004082 -0.05168601250136914405 
0.90290971876176462363 0.00000000000000004762 -0.05030158241121569784 
0.90856229250514064510 -0.00000000000000000170 -0.04893862113172284950 
0.91425196800202301883 0.00000000000000007143 -0.04759752502628956938 
0.91995801196910909070 0.00000000000000015646 -0.04627864720334954468 
0.92565890405551143338 0.00000000000000011054 -0.04498229887233138463 
0.93133104677525013759 0.00000000000000008333 -0.04370875071112020893 
0.93694758503832287211 0.00000000000000017687 -0.04245823424220303982 
0.94247748100482442446 0.00000000000000012415 -0.04123094321472303703 
0.94788491603686619857 0.00000000000000011564 -0.04002703498971894175 
0.95312903974986318278 -0.00000000000000000340 -0.03884663192589235536 
0.95816405136571780599 0.00000000000000010544 -0.03768982276332125819 
0.96293957659232265467 0.00000000000000004082 -0.03655666400261362026 
0.96740129080200987222 0.00000000000000003911 -0.03544718127709517441 
0.97149173376163211469 0.00000000000000011394 -0.03436137071570703055 
0.97515126055288192664 -0.00000000000000001020 -0.03330060859787763172 
0.97831907604698520320 0.00000000000000006803 -0.03226334941799711975 
0.98093430516640744976 0.00000000000000003571 -0.03124951305159626158 
0.98293705807263898055 -0.00000000000000005612 -0.03025899496957103196 
0.98426951757446057290 0.00000000000000008503 -0.02929166753410064952 
0.98487735597927339448 0.00000000000000005272 -0.02834738127316244541 
0.98471162345598428622 0.00000000000000010034 -0.02742596613212456430 
0.98373078972103689122 0.00000000000000001531 -0.02652723270101046971 
0.98190263418318091126 0.00000000000000010544 -0.02565097341615186696 
0.97920579746988101189 0.00000000000000009864 -0.02479696373505373141 
0.97563089587706752770 0.00000000000000002891 -0.02396496328342145529 
0.97118116360524808783 0.00000000000000004762 -0.02315471697339787846 
0.96587263138656120898 0.00000000000000003061 -0.02236595609218442610 
0.95973387886698202642 0.00000000000000000510 -0.02159839936031419938 
0.95280541556194953134 -0.00000000000000003401 -0.02085175395896392628 
0.94513875427326943246 0.00000000000000010289 -0.02012571652577937673 
0.93679524384410950422 0.00000000000000007398 -0.01941940111524240176 
0.92784472683914165358 0.00000000000000006803 -0.01873225570552231392 
0.91836408356335796910 0.00000000000000009098 -0.01806483104674582243 
0.90843571784312315831 -0.00000000000000001105 -0.01741678679837481772 
0.89814603299088369148 -0.00000000000000005612 -0.01678777678385268146 
0.88758393895578735489 0.00000000000000002466 -0.01617744978161819377 
0.87683942425571215207 0.00000000000000009864 -0.01558545028403739846 
0.86600221919168052231 0.00000000000000003316 -0.01501141922440263690 
0.85516057026224723270 0.00000000000000010799 -0.01445499467221015959 
0.84440013974507466266 0.00000000000000002381 -0.01391581249699646965 
0.83380303915881404109 0.00000000000000005442 -0.01339350700107264092 
0.82344700078085153461 0.00000000000000001701 -0.01288771152154529268 
0.81340468756423878194 0.00000000000000006292 -0.01239805900207215962 
0.80374313863730839635 0.00000000000000010969 -0.01192418253483823118 
0.79452334503458077464 0.00000000000000002636 -0.01146571587329168161 
0.78579994834138777726 0.00000000000000008248 -0.01102229391620437697 
0.77762105347638532660 -0.00000000000000011564 -0.01059355316367163909 
0.77002814582377643315 0.00000000000000006037 -0.01017913214568537741 
0.76305610229957476776 0.00000000000000004932 -0.00977867182395007230 
0.75673328563535346980 -0.00000000000000005995 -0.00939181596762997048 
0.75108171113405686192 0.00000000000000006462 -0.00901821150374621482 
0.74611727534564997733 0.00000000000000005102 -0.00865750884294473610 
0.74185003648039116175 0.00000000000000000893 -0.00830936218139037563 
0.73828453688418615997 0.00000000000000004422 -0.00797342977953714033 
0.73542015850845876557 0.00000000000000013818 -0.00764937421854621890 
0.73325150298574881536 0.00000000000000001190 -0.00733686263512029618 
0.73176878864563232874 0.00000000000000002891 -0.00703556693553719636 
0.73095825755164289816 0.00000000000000001786 -0.00674516398965729208 
0.73080258639036221879 0.00000000000000009056 -0.00646533580568649929 
0.73128129578400191679 0.00000000000000011692 -0.00619576968646918993 
0.73237115331571367438 0.00000000000000002338 -0.00593615836808673424 
0.73404656624350950178 0.00000000000000006462 -0.00568620014152210022 
0.73627996052710653618 0.00000000000000009651 -0.00544559895815604177 
0.73904214339749263463 0.00000000000000008886 -0.00521406451983634413 
0.74230264725828298822 0.00000000000000007058 -0.00499131235426506989 
0.74603005321939219741 0.00000000000000003529 -0.00477706387642595071 
0.75019229302649181879 -0.00000000000000000850 -0.00457104643676790184 
0.75475692856469822623 0.00000000000000011713 -0.00437299335684246393 
0.75969140848297578295 0.00000000000000002742 -0.00418264395308026553 
0.76496330180870208970 -0.00000000000000002891 -0.00399974354937572118 
0.77054050870187973388 0.00000000000000003635 -0.00382404347913022167 
0.77639144873814813774 0.00000000000000006059 -0.00365530107739092626 
0.78248522731178948852 0.00000000000000006484 -0.00349327966369980666 
0.78879178091722945698 -0.00000000000000002700 -0.00333774851625479431 
0.79528200220303013612 -0.00000000000000004464 -0.00318848283796233090 
0.80192784579900233677 -0.00000000000000001956 -0.00304526371494124410 
0.80870241599769843166 0.00000000000000004804 -0.00290787806802615201 
0.81558003725701266884 0.00000000000000004039 -0.00277611859778796556 
0.82253627461876277494 -0.00000000000000012585 -0.00264978372358166655 
0.82954762333483400560 0.00000000000000001934 -0.00252867751710286227 
0.83659060660855733005 0.00000000000000002530 -0.00241260963092296971 
0.84364053038550324004 -0.00000000000000005633 -0.00230139522244692928 
0.85067021312900348295 0.00000000000000003104 -0.00219485487372688987 
0.85764889395775101288 0.00000000000000004719 -0.00209281450753497121 
0.86454143224982693550 0.00000000000000011288 -0.00199510530009426893 
0.87130784743862843555 -0.00000000000000002296 -0.00190156359083521842 
0.87790320330328153187 0.00000000000000000457 -0.00181203078953666636 
0.88427781183168874257 0.00000000000000007185 -0.00172635328118595985 
0.89037771391951392452 0.00000000000000009885 -0.00164438232888327522 
0.89614538476602556560 0.00000000000000003561 -0.00156597397508856807 
0.90152060848513160263 -0.00000000000000002530 -0.00149127708075068050 
0.90644146733702857244 0.00000000000000012319 -0.00142097295062884512 
0.91084539469401082368 -0.00000000000000010342 -0.00135374971263888975 
0.91467024631362914278 0.00000000000000008131 -0.00128948567947799898 
0.91785535811021012886 -0.00000000000000004039 -0.00122806321999022108 
0.92034271486551411101 -0.00000000000000003571 -0.00116936866639475367 
0.92207857297389017592 0.00000000000000006335 -0.00111329222108186082 
0.92301545330710699222 -0.00000000000000003842 -0.00105972786317665483 
0.92311415022740683778 -0.00000000000000007451 -0.00100857325506478507 
0.92234550167419537825 0.00000000000000004145 -0.00095972964905438596 
0.92069177215218578336 0.00000000000000008163 -0.00091310179433994022 
0.91814757818141023993 0.00000000000000002285 -0.00086859784442207451 
0.91472034064034113410 0.00000000000000004071 -0.00082612926512195173 
0.91043028568606887418 0.00000000000000006223 -0.00078561074332346231 
0.90531003977738022659 0.00000000000000004491 -0.00074696009656054631 
0.89940387811369182369 -0.00000000000000002583 -0.00071009818356148864 
0.89276669219408888445 0.00000000000000002652 -0.00067494881584804697 
0.88546274328667029518 0.00000000000000005968 -0.00064058404169772896 
0.87756426600765191637 0.00000000000000001286 -0.00060728180692923588 
0.86914998119753472672 0.00000000000000002482 -0.00057555621410647914 
0.86030357080302888306 -0.00000000000000002822 -0.00054533794929915850 
0.85111216024320890394 0.00000000000000010026 -0.00051656043800783519 
0.84166484628055227013 0.00000000000000006510 -0.00048915975449019566 
0.83205130110588487735 -0.00000000000000005317 -0.00046307453306963293 
0.82236047643703746868 -0.00000000000000012768 -0.00043824588145141509 
0.81267942508983581629 0.00000000000000005623 -0.00041461729605790138 
0.80309225180322263427 0.00000000000000010334 -0.00039213457939346635 
0.79367920013236625820 0.00000000000000006643 -0.00037074575944325754 
0.78451587797083999209 -0.00000000000000002854 -0.00035040101110728254 
0.77567262070455356149 0.00000000000000000943 -0.00033105257966441985 
0.76721398809647800565 -0.00000000000000002057 -0.00031265470626302418 
0.75919838870083378168 0.00000000000000003981 -0.00029516355542177122 
0.75167782384974002330 -0.00000000000000001172 -0.00027853714453314812 
0.74469774198280280775 -0.00000000000000000926 -0.00026273527534702979 
0.73829699323882991280 -0.00000000000000000158 -0.00024771946741999695 
0.73250787373874881592 -0.00000000000000002366 -0.00023345289350475322 
0.72735624880294458272 0.00000000000000003553 -0.00021990031685851466 
0.72286174441186457074 0.00000000000000003397 -0.00020702803044087714 
0.71903799648771660191 -0.00000000000000002170 -0.00019480379797796760 
0.71589294800424152498 0.00000000000000004508 -0.00018319679685870605 
0.71342918448261960496 -0.00000000000000006983 -0.00017217756283548254 
0.71164429907121173891 0.00000000000000008228 -0.00016171793649661579 
0.71053127910626212582 -0.00000000000000000019 -0.00015179101147511984 
0.71007890678550988905 0.00000000000000013204 -0.00014237108436242671 
0.71027216733641240776 0.00000000000000004318 -0.00013343360629159483 
0.71109265880856986630 0.00000000000000011477 -0.00012495513615186013 
0.71251899835238408087 0.00000000000000010259 -0.00011691329540200362 
0.71452722055228845566 0.00000000000000006818 -0.00010928672444270921 
0.71709116405487882684 0.00000000000000010359 -0.00010205504051340247 
0.72018284336393934009 0.00000000000000005878 -0.00009519879707384498 
0.72377280326159065815 0.00000000000000003292 -0.00008869944463667366 
0.72783045385500622082 0.00000000000000005113 -0.00008253929300934655 
0.73232438474014249774 0.00000000000000001521 -0.00007670147491231525 
0.73722265721754809409 0.00000000000000002554 -0.00007116991093268053 
0.74249307389126051326 0.00000000000000006108 -0.00006592927577924539 
0.74810342533155149702 -0.00000000000000005713 -0.00006096496580057208 
0.75402171378770965759 0.00000000000000002275 -0.00005626306772981537 
0.76021635420059785471 0.00000000000000009755 -0.00005181032862116140 
0.76665635298893874960 0.00000000000000003823 -0.00004759412694042753 
0.77331146527105665278 0.00000000000000006811 -0.00004360244477785498 
0.78015233133797623477 0.00000000000000004911 -0.00003982384114455492 
0.78715059331736170201 0.00000000000000004382 -0.00003624742632113434 
0.79427899306361693377 0.00000000000000004461 -0.00003286283722358102 
0.80151145238048582264 0.00000000000000005729 -0.00002966021375497713 
0.80882313406941963585 -0.00000000000000002111 -0.00002663017610856644 
0.81619038175371905197 0.00000000000000004613 -0.00002376380299170679 
0.82359017204117390687 0.00000000000000002308 -0.00002105261073987385 
0.83099903036253508493 0.00000000000000012907 -0.00001848853328882136 
0.83839174390260695624 0.00000000000000009114 -0.00001606390297672335 
0.84574014366935801323 0.00000000000000009367 -0.00001377143214629968 
0.85301211942502230823 0.00000000000000007397 -0.00001160419551948121 
0.86017095208571558995 0.00000000000000001049 -0.00000955561331485093 
0.86717499244086948540 -0.00000000000000004105 -0.00000761943508385916 
0.87397767721259511653 0.00000000000000003094 -0.00000578972423698956 
0.88052784922117954824 -0.00000000000000003173 -0.00000406084323474165 
0.88677033429362261963 0.00000000000000003574 -0.00000242743942185737 
0.89264672082421347987 0.00000000000000009224 -0.00000088443147423591 
0.89809628643939365400 0.00000000000000007346 -0.00000000000000002806 
0.90305701838304475171 0.00000000000000004985 -0.00000000000000008503 
0.90746667875873732179 0.00000000000000007383 -0.00000000000000001042 
0.91126387168760181190 0.00000000000000007611 -0.00000000000000014434 
0.91438907605571917436 -0.00000000000000000912 -0.00000000000000009141 
0.91678561431913729862 -0.00000000000000002146 -0.00000000000000011564 
0.91840053444605918020 0.00000000000000000028 0.00000000000000002721 
0.91918538826082463178 -0.00000000000000000142 -0.00000000000000011862 
0.91909689506009617510 0.00000000000000008642 -0.00000000000000003954 
0.91809748431358784160 0.00000000000000004216 -0.00000000000000008769 
0.91615571550606955675 -0.00000000000000004161 -0.00000000000000005272 
0.91324657672719000701 0.00000000000000005626 -0.00000000000000011511 
0.90935166649968524055 -0.00000000000000005099 -0.00000000000000011012 
0.90445926560070655231 -0.00000000000000001561 -0.00000000000000011235 
0.89856430733183134674 0.00000000000000008234 -0.00000000000000006282 
0.89166825589294196330 0.00000000000000006106 -0.00000000000000005612 
0.88377890327754327071 -0.00000000000000000463 -0.00000000000000003252 
0.87491009549541676193 0.00000000000000004605 -0.00000000000000002604 
0.86508139900317893023 -0.00000000000000002449 -0.00000000000000008184 
0.85431771804074629895 0.00000000000000003498 -0.00000000000000007621 
0.84264887318355052859 -0.00000000000000001044 -0.00000000000000008524 
0.83010915087295489290 0.00000000000000004750 -0.00000000000000003051 
0.81673683302180200005 0.00000000000000005255 -0.00000000000000008152 
0.80257371504409891205 0.00000000000000002501 -0.00000000000000002647 
0.78766461985822311398 0.00000000000000002223 -0.00000000000000006659 
0.77205691458758129997 0.00000000000000007167 -0.00000000000000015954 
0.75580003585292288015 -0.00000000000000002300 -0.00000000000000006393 
0.73894502873392853282 -0.00000000000000002819 0.00000000000000003513 
0.72154410368822696764 0.00000000000000010660 -0.00000000000000003741 
0.70365021496432844650 0.00000000000000000516 -0.00000000000000002147 
0.68531666333910934430 0.00000000000000007801 0.00000000000000006792 
0.66659672535596758980 0.00000000000000005883 0.00000000000000001467 
0.64754331064022352393 -0.00000000000000000569 -0.00000000000000010629 
0.62820864832549516699 -0.00000000000000001949 0.00000000079581128663 
0.60864400313919098107 -0.00000000000000013453 0.00000006783503708776 
0.58889942126611860562 0.00000000000000001893 0.00000079354332789643 
0.56902350573495730224 0.00000000000000000433 0.00000432183450713417 
0.54906322075061564369 -0.00000000000000000701 0.00001563218221825133 
0.52906372412346480694 -0.00000000000000004041 0.00004378847683640364 
0.50906822672085316750 -0.00000000000000005638 0.00010297087485810463 
0.48911787768373332641 -0.00000000000000002893 0.00021319336253662927 
0.46925167400799933093 -0.00000000000000007114 0.00040066966310968406 
0.44950639298265693267 -0.00000000000000001066 0.00069783110257245822 
0.42991654590153910442 -0.00000000000000006398 0.00114302666181772248 
0.41051435141843345411 -0.00000000000000000064 0.00177995130151232996 
0.39132972689376738229 -0.00000000000000003156 0.00265685660858681460 
0.37239029608116352987 0.00000000000000002735 0.00382560011958905152 
0.35372281982462949745 -0.00000000000000005341 0.00534058806548248083 
0.33534892828837564727 0.00000000000000000466 0.00725766209009654894 
0.31728955386387347470 -0.00000000000000001607 0.00963297473206564149 
0.29956349721208486159 -0.00000000000000001684 0.01252189188151482668 
0.28218749305385176784 -0.00000000000000003796 0.01597795357764899074 
0.26517628325918357612 -0.00000000000000003166 0.02005191779135356844 
0.24854269596716649371 -0.00000000000000013102 0.02479090550287820632 
0.23229772955113908717 0.00000000000000007668 0.03023765960801401420 
0.21645064032865524162 -0.00000000000000003468 0.03642992506360387406 
0.20100903300143543873 0.00000000000000004076 0.04339995325751132282 
0.18597895289590721246 -0.00000000000000009772 0.05117412986270188091 
0.17136497915919693402 -0.00000000000000001669 0.05977272238549966726 
0.15717031814780696442 -0.00000000000000000503 0.06920974120124903650 
0.14339689632606875125 -0.00000000000000006396 0.07949290603165090618 
0.13004545206831924498 -0.00000000000000009749 0.09062370849552794927 
0.11711562583220108680 -0.00000000000000003567 0.10259756049479881734 
0.10460604824023295167 0.00000000000000008463 0.11540401771638066075 
0.09251442567262456451 -0.00000000000000008539 0.12902706737744396026 
0.08083762303606460697 -0.00000000000000005343 0.14344546945846098351 
0.06957174343081036494 0.00000000000000000131 0.15863314100314124255 
0.05871220449182987938 -0.00000000000000007735 0.17455957356899801103 
0.04825381122900015973 -0.00000000000000010249 0.19119027454473022654 
0.03819082523651524258 -0.00000000000000011560 0.20848722377389575233 
0.02851703018279115598 0.00000000000000000192 0.22640933770670609859 
0.01922579352939121286 -0.00000000000000009625 0.24491293411623790699 
0.01031012446097821431 -0.00000000000000013271 0.26395219123949209550 
0.00176272803817497476 -0.00000000000000001722 0.28347959601913241823 
-0.00642394438831779459 0.00000000000000000046 0.30344637691375203614 
-0.01425764844080344186 -0.00000000000000001425 0.32380291750166206866 
-0.02174630357316572130 -0.00000000000000005796 0.34449914781692186905 
-0.02889795342595955635 -0.00000000000000008879 0.36548491102048497048 
-0.03572072956442699787 0.00000000000000004187 0.38671030361992236868 
-0.04222281847372608143 -0.00000000000000000669 0.40812598800593830051 
-0.04841243167583114682 -0.00000000000000005307 0.42968347657206840129 
-0.05429777882484534274 0.00000000000000002461 0.45133538712593268549 
-0.05988704363166971745 -0.00000000000000005925 0.47303566968763871570 
-0.06518836246494189024 -0.00000000000000004110 0.49473980510548060119 
-0.07020980547269724259 -0.00000000000000003126 0.51640497620370007237 
-0.07495936006818593178 -0.00000000000000012917 0.53799021241483435674 
-0.07944491662352068384 0.00000000000000005769 0.55945650904349408794 
-0.08367425621620486198 -0.00000000000000015061 0.58076692246278360798 
-0.08765504027595465153 -0.00000000000000010339 0.60188664266266178604 
-0.09139480198245907017 -0.00000000000000005341 0.62278304465488676378 
-0.09490093926868983787 0.00000000000000000940 0.64342572029536271305 
-0.09818070928897490446 0.00000000000000004196 0.66378649211510332151 
-0.10124122421618314549 0.00000000000000007126 0.68383941075889942418 
-0.10408944823792250223 -0.00000000000000003985 0.70356073744724134666 
-0.10673219562756353085 -0.00000000000000005563 0.72292887894014967731 
-0.10917612977206830882 -0.00000000000000002925 0.74192399461731728394 
-0.11142776304495752293 -0.00000000000000003390 0.76052701484829265954 
-0.11349345741923282105 -0.00000000000000007020 0.77871831980031591680 
-0.11537942572161444255 -0.00000000000000008469 0.79647639678413251207 
-0.11709173343600087769 0.00000000000000008939 0.81377667963577982047 
-0.11863630097057524526 -0.00000000000000004803 0.83059068331900098858 
-0.12001890630940795224 -0.00000000000000004428 0.84688548251756667895 
-0.12124518797572070294 -0.00000000000000004595 0.86262353853116202629 
-0.12232064824013330617 -0.00000000000000006053 0.87776284953484828844 
-0.12325065651319529192 -0.00000000000000009611 0.89225738142150079479 
-0.12404045286728314357 -0.00000000000000020077 0.90605772702162234999 
-0.12469515163849691219 0.00000000000000001266 0.91911193813281888421 
-0.12522087811489482356 -0.00000000000000008030 0.93136647566155184030 
-0.12562158523917604791 -0.00000000000000010795 0.94276722687384229005 
-0.12590174472133380812 -0.00000000000000009900 0.95326054419892858327 
-0.12606600816803642529 -0.00000000000000004590 0.96279426909195764406 
-0.12611891908134359452 0.00000000000000013305 0.97131881180085866134 
-0.12606491619372317547 -0.00000000000000003103 0.97878862899645102669 
-0.12590833667132386720 -0.00000000000000007230 0.98516412982265788578 
-0.12565341917129677074 0.00000000000000003593 0.99041366467819758057 
-0.12530430674214834696 -0.00000000000000004267 0.99451531760020539519 
-0.12486504955901774061 -0.00000000000000006108 0.99745833593263200090 
-0.12433960748843388144 -0.00000000000000007861 0.99924411386521028167 
-0.12373185247952089849 0.00000000000000004289 0.99988670528493983625 
-0.12304557078079338128 -0.00000000000000008014 0.99941288167084652017 
-0.12228446498362104122 -0.00000000000000006719 0.99786177688491328741 
-0.12145215589516901444 -0.00000000000000010712 0.99528417618159847891 
-0.12055218424512299802 -0.00000000000000004818 0.99174151436285140626 
-0.11958715760304079734 0.00000000000000001890 0.98730464993972522070 
-0.11856080951744815688 -0.00000000000000003422 0.98205248013833312815 
-0.11747703110589295672 -0.00000000000000010471 0.97607045692977723039 
-0.11633905267348863821 -0.00000000000000008730 0.96944905797958313975 
-0.11515003093058563677 0.00000000000000002239 0.96228225925960531040 
-0.11391304984331607209 -0.00000000000000004857 0.95466604860184511860 
-0.11263112137546160696 -0.00000000000000005524 0.94669701209904322248 
-0.11130718613175594189 -0.00000000000000010281 0.93847101824761147704 
-0.10994411391285002777 -0.00000000000000009872 0.93008201826532255208 
-0.10854470419217319976 0.00000000000000001655 0.92162097520696406594 
-0.10711168652484871766 -0.00000000000000015020 0.91317492939867428436 
-0.10564772089865473448 -0.00000000000000008537 0.90482620332822738529 
-0.10415539803679872699 -0.00000000000000000711 0.89665174544725345651 
-0.10263723966196340587 -0.00000000000000010837 0.88872260932532209932 
-0.10109569873074264468 -0.00000000000000003096 0.88110356219486940521 
-0.09953315964717909803 -0.00000000000000005585 0.87385281508225776115 
-0.09795193846368407953 0.00000000000000001676 0.86702186537219338991 
-0.09635428307714330454 -0.00000000000000004801 0.86065544173804053862 
-0.09474237342752232782 -0.00000000000000011166 0.85479154082841102280 
-0.09311832170576654633 -0.00000000000000003306 0.84946154487300196134 
-0.09148417257726292051 -0.00000000000000012840 0.84469040940417283725 
-0.08984190342658962547 -0.00000000000000001393 0.84049691053602770818 
-0.08819342462874524280 -0.00000000000000007824 0.83689394165553920857 
-0.08654057985149544996 0.00000000000000000043 0.83388884992124023832 
-0.08488514639295297037 -0.00000000000000006693 0.83148380359988327548 
-0.08322883555796524446 0.00000000000000004012 0.82967618197054282536 
-0.08157329307637263549 -0.00000000000000002719 0.82845898026369324540 
-0.07992009956569549878 0.00000000000000003932 0.82782122285862747013 
-0.07827077104032099941 -0.00000000000000000011 0.82774837871875039941 
-0.07662675946878962085 0.00000000000000003699 0.82822277378659803215 
-0.07498945338033578822 -0.00000000000000003267 0.82922399577775152135 
-0.07336017852140758189 0.00000000000000001998 0.83072928749649055380 
-0.07174019856249029548 -0.00000000000000006004 0.83271392543973032918 
-0.07013071585517237361 0.00000000000000011645 0.83515158105509512687 
-0.06853287223904529213 0.00000000000000001437 0.83801466257107048996 
-0.06694774989769033957 -0.00000000000000007345 0.84127463582067030234 
-0.06537637226270819057 0.00000000000000000802 0.84490232293462619317 
-0.06381970496446129348 -0.00000000000000011609 0.84886817818637649857 
-0.06227865682794795493 -0.00000000000000009392 0.85314254063046934817 
-0.06075408091200021343 0.00000000000000003340 0.85769586349026338823 
-0.05924677558978668629 -0.00000000000000002433 0.86249892052238685825 
-0.05775748566842871939 -0.00000000000000005522 0.86752298981687581136 
-0.05628690354537593810 -0.00000000000000006670 0.87274001568611925261 
-0.05483567039905511836 -0.00000000000000010858 0.87812274945560253592 
-0.05340437741119538617 0.00000000000000000778 0.88364487009792680450 
-0.05199356701814027149 -0.00000000000000014016 0.88928108575167708061 
-0.05060373418838386150 -0.00000000000000019234 0.89500721724126774959 
-0.04923532772352220283 -0.00000000000000007888 0.90080026396991652593 
-0.04788875157977239005 -0.00000000000000010486 0.90663839112112443175 
-0.04656436620719572872 -0.00000000000000003193 0.91250050397250637157 
-0.04526248990376182529 -0.00000000000000005410 0.91836524682137443687 
-0.04398340018140371732 -0.00000000000000004796 0.92420973034344833241 
-0.04272733514124046200 -0.00000000000000008580 0.93000828333504415024 
-0.04149449485518789255 -0.00000000000000004114 0.93573141177155794157 
-0.04028504275122345157 -0.00000000000000004364 0.94134506355898195373 
-0.03909910699964137121 -0.00000000000000007662 0.94681023740016168055 
-0.03793678189769909143 -0.00000000000000007940 0.95208293315984782179 
-0.03679812925014099706 0.00000000000000000687 0.95711441444432232561 
-0.03568317974317360836 -0.00000000000000009738 0.96185173819508185122 
-0.03459193430955419951 -0.00000000000000013645 0.96623849807444361915 
-0.03352493848612412425 -0.00000000000000005784 0.97021572605486516849 
-0.03248236817938715548 -0.00000000000000003595 0.97372289817486201713 
-0.03146326304194577150 -0.00000000000000018210 0.97669899455790187837 
-0.03046752251005828416 -0.00000000000000010878 0.97908356966733456339 
-0.02949502267229985736 -0.00000000000000002432 0.98081782920169091611 
-0.02854561754857029565 -0.00000000000000003454 0.98184596464788187475 
-0.02761914034643367030 -0.00000000000000004539 0.98211698356717036518 
-0.02671540469336168219 -0.00000000000000010185 0.98158676993670102018 
-0.02583420584357990976 0.00000000000000008283 0.98022004557649666801 
-0.02497532185831799131 -0.00000000000000008352 0.97799202329710865911 
-0.02413851475839184565 -0.00000000000000012750 0.97488963702150654989 
-0.02332353164815000393 -0.00000000000000007424 0.97091230215533730341 
-0.02253010580993347611 -0.00000000000000011437 0.96607220686620665084 
-0.02175795776830338410 -0.00000000000000003857 0.96039416648704967194 
-0.02100679632339670644 -0.00000000000000004009 0.95391509282569963979 
-0.02027631955287607229 -0.00000000000000004710 0.94668314080189908122 
-0.01956621578203377940 -0.00000000000000008856 0.93875659896153818007 
-0.01887475621824152849 -0.00000000000000007648 0.93020258993021720517 
-0.01820309912974842764 -0.00000000000000002800 0.92109564323459613977 
-0.01755090487457309362 -0.00000000000000002908 0.91151619726846377922 
-0.01691782783118269545 -0.00000000000000001507 0.90154908036433889507 
-0.01630351719554145803 -0.00000000000000005102 0.89128201358490932726 
-0.01570761774605422545 -0.00000000000000004280 0.88080417043232239749 
-0.01512977057653421692 -0.00000000000000002691 0.87020482151145339689 
-0.01456961379740073087 0.00000000000000005321 0.85957208549394159558 
-0.01402678320537387169 -0.00000000000000007607 0.84899180164942933402 
-0.01350091292199128226 -0.00000000000000009769 0.83854653381370913845 
-0.01299163600133183827 -0.00000000000000005662 0.82831471097886022470 
-0.01249858500737925301 -0.00000000000000002457 0.81836990571293144470 
-0.01202139256150938119 0.00000000000000004046 0.80878024831763806191 
-0.01155969186062545326 -0.00000000000000002288 0.79960797196738375714 
-0.01111311716650701005 0.00000000000000001196 0.79090908198723963718 
-0.01068130426697461513 -0.00000000000000003951 0.78273314086156220437 
-0.01026389090950337833 -0.00000000000000004241 0.77512315945701315556 
-0.00986051720794747268 -0.00000000000000010564 0.76811558423276238283 
-0.00947082602306136348 -0.00000000000000002078 0.76174036983783310895 
-0.00909446331752957089 0.00000000000000001047 0.75602112640576080160 
-0.00873107848623028496 0.00000000000000006594 0.75097533099908597709 
-0.00838032466247580834 0.00000000000000004927 0.74661459298466004153 
-0.00804185900098622862 -0.00000000000000001560 0.74294496359413086939 
-0.00771534293836143026 0.00000000000000006440 0.73996728050609783534 
-0.00740044243182364468 0.00000000000000004578 0.73767753894575682772 
-0.00709682817700723473 -0.00000000000000009536 0.73606728150747491313 
-0.00680417580557480736 -0.00000000000000001768 0.73512399964278940523 
-0.00652216606344161159 0.00000000000000003227 0.73483154050189569695 
-0.00625048497037982397 0.00000000000000006819 0.73517051355525531164 
-0.00598882396178333255 0.00000000000000001886 0.73611869214109348913 
-0.00573688001335252804 0.00000000000000000466 0.73765140577460830418 
-0.00549435574946736428 0.00000000000000003596 0.73974191970833891308 
-0.00526095953599304330 -0.00000000000000003472 0.74236179884510689053 
-0.00503640555826222625 -0.00000000000000006242 0.74548125367171147460 
-0.00482041388496207059 -0.00000000000000000358 0.74906946640113336588 
-0.00461271051864276752 -0.00000000000000001153 0.75309489598251033726 
-0.00441302743354949831 -0.00000000000000003196 0.75752556106182322715 
-0.00422110260146329498 -0.00000000000000006828 0.76232930035303392291 
-0.00403668000622698937 0.00000000000000003091 0.76747401021096950391 
-0.00385950964760667240 0.00000000000000000281 0.77292785948564435294 
-0.00368934753513010119 0.00000000000000001955 0.77865948198539736147 
-0.00352595567252202103 -0.00000000000000004351 0.78463814708588575098 
-0.00336910203333821989 0.00000000000000000827 0.79083390919644991346 
-0.00321856052838317714 -0.00000000000000003269 0.79721773693755504375 
-0.00307411096547753268 0.00000000000000005550 0.80376162299583286952 
-0.00293553900212154429 0.00000000000000010200 0.81043867570958660895 
-0.00280263609158021678 -0.00000000000000006734 0.81722319347930738598 
-0.00267519942290243102 0.00000000000000000644 0.82409070645048432269 
-0.00255303185536022914 0.00000000000000002008 0.83101776785849346130 
-0.00243594184777946735 -0.00000000000000007736 0.83798116310487724689 
-0.00232374338321278450 -0.00000000000000002267 0.84495670479217455107 
-0.00221625588938811251 0.00000000000000002211 0.85191794850689706031 
-0.00211330415534398451 0.00000000000000007097 0.85883505448008812255 
-0.00201471824464936108 -0.00000000000000008841 0.86567392399173570539 
-0.00192033340558196122 -0.00000000000000008121 0.87239567034532339296 
-0.00182998997862715909 0.00000000000000010975 0.87895643624055264098 
-0.00174353330163560497 0.00000000000000002198 0.88530753744019241580 
-0.00166081361296436386 -0.00000000000000004469 0.89139589279372899444 
-0.00158168595290983805 0.00000000000000003720 0.89716468980316566029 
-0.00150601006372172636 0.00000000000000007278 0.90255423052392769190 
-0.00143478333886036015 0.00000000000000009815 0.90750290276039502491 
-0.00136695378885121283 -0.00000000000000006943 0.91194822475540560092 
-0.00130210745368134037 -0.00000000000000005988 0.91582791675412356103 
-0.00124012589836927601 0.00000000000000013720 0.91908096175750264578 
-0.00118089466990506983 0.00000000000000005351 0.92164872509275941326 
-0.00112430320411488157 -0.00000000000000007247 0.92347647358545470464 
-0.00107024473225615494 -0.00000000000000007777 0.92451532380561840530 
-0.00101861618753633560 0.00000000000000001415 0.92472427273369284251 
-0.00096931811173386656 0.00000000000000016984 0.92407203088533729218 
-0.00092225456208928555 -0.00000000000000010512 0.92253849088606543205 
-0.00087733301862154744 -0.00000000000000004234 0.92011574752736613458 
-0.00083446429201361895 -0.00000000000000000285 0.91680864432302622280 
-0.00079356243219818039 0.00000000000000001066 0.91263486199398546894 
-0.00075454463776828101 -0.00000000000000005473 0.90762459054092581301 
-0.00071733116632025432 -0.00000000000000006557 0.90181984212893417929 
-0.00068184524583512216 -0.00000000000000010671 0.89527346969538923460 
-0.00064743998362960808 0.00000000000000007475 0.88804795819559156911 
-0.00061381385523045693 0.00000000000000000251 0.88021405343410130673 
-0.00058177856841305059 -0.00000000000000000512 0.87184928881683154689 
-0.00055126425030600052 -0.00000000000000006384 0.86303646410957524093 
-0.00052220378584140958 -0.00000000000000001688 0.85386212316134924016 
-0.00049453272668424089 -0.00000000000000003510 0.84441507010445671089 
-0.00046818920214405094 -0.00000000000000005921 0.83478495617845516197 
-0.00044311383208752662 0.00000000000000002611 0.82506096231968839572 
-0.00041924964187002513 0.00000000000000004845 0.81533059619357228787 
-0.00039654197929201015 0.00000000000000002865 0.80567861653211536588 
-0.00037493843359338549 -0.00000000000000012990 0.79618609252782068797 
-0.00035438875647840056 -0.00000000000000002590 0.78692960164022995873 
-0.00033484478517642263 0.00000000000000001375 0.77798056547669913741 
-0.00031626036752521427 -0.00000000000000000154 0.76940472037819651607 
-0.00029859128907339208 -0.00000000000000004851 0.76126171692433941551 
-0.00028179520218284929 0.00000000000000002812 0.75360484071211908397 
-0.00026583155711892701 0.00000000000000006241 0.74648084539850911856 
-0.00025066153510729821 0.00000000000000000804 0.73992988806647430611 
-0.00023624798333794249 -0.00000000000000005017 0.73398555641614493528 
-0.00022255535189109101 0.00000000000000001709 0.72867497704053607599 
-0.00020954963256032859 -0.00000000000000004150 0.72401899406446212915 
-0.00019719829954499820 -0.00000000000000014687 0.72003240765717335670 
-0.00018547025198241310 -0.00000000000000009224 0.71672426232952413105 
-0.00017433575829101409 -0.00000000000000000972 0.71409817545594600485 
-0.00016376640229030879 0.00000000000000007531 0.71215269708582273900 
-0.00015373503106485854 -0.00000000000000001030 0.71088169279837454262 
-0.00014421570454121375 -0.00000000000000003192 0.71027474208460805727 
-0.00013518364673830883 -0.00000000000000009043 0.71031754548807324312 
-0.00012661519865980942 -0.00000000000000010083 0.71099233448556420356 
-0.00011848777279028133 0.00000000000000002893 0.71227827882534155979 
-0.00011077980915837896 -0.00000000000000006287 0.71415188675267815555 
-0.00010347073293221299 0.00000000000000000716 0.71658739423188799744 
-0.00009654091350685724 0.00000000000000004921 0.71955713991408898345 
-0.00008997162504958846 -0.00000000000000006156 0.72303192319628362128 
-0.00008374500846290554 -0.00000000000000005259 0.72698134326707730679 
-0.00007784403473035117 -0.00000000000000007329 0.73137411753601300202 
-0.00007225246960672685 -0.00000000000000005322 0.73617837829673138383 
-0.00006695483961507000 -0.00000000000000018143 0.74136194687954848348 
-0.00006193639931473052 -0.00000000000000004330 0.74689258490784615763 
-0.00005718309980484372 0.00000000000000002709 0.75273822258679579100 
-0.00005268155842452286 0.00000000000000004562 0.75886716422461508724 
-0.00004841902961570043 -0.00000000000000003284 0.76524827141842921563 
-0.00004438337691413891 -0.00000000000000000297 0.77185112453160720225 
-0.00004056304603206836 0.00000000000000004273 0.77864616325011237752 
-0.00003694703899902032 -0.00000000000000002688 0.78560480713484071025 
-0.00003352488932677850 -0.00000000000000016478 0.79269955718809181899 
-0.00003028663816688756 -0.00000000000000009111 0.79990407952804898351 
-0.00002722281142553419 -0.00000000000000008119 0.80719327152242770218 
-0.00002432439780646208 -0.00000000000000000446 0.81454324929697019542 
-0.00002158282774828668 -0.00000000000000001999 0.82193092240430154494 
-0.00001898995322898004 -0.00000000000000006218 0.82933299313555564058 
-0.00001653802840311318 0.00000000000000001378 0.83672468428054225242 
-0.00001421969104705283 -0.00000000000000008185 0.84407849127256218136 
-0.00001202794478072920 -0.00000000000000009225 0.85136314163777349062 
-0.00000995614203916714 -0.00000000000000001438 0.85854286011426594882 
-0.00000799796776665098 0.00000000000000005257 0.86557697785224108067 
-0.00000614742380758026 0.00000000000000008720 0.87241988307028006666 
-0.00000439881396621143 -0.00000000000000009171 0.87902128387559319567 
-0.00000274672971385768 -0.00000000000000014624 0.88532673804099093484 
-0.00000118603651510186 -0.00000000000000002735 0.89127839651077500616 
0.00000000000000001503 0.00000000000000003114 0.89681590504269370623 
-0.00000000000000004223 -0.00000000000000002336 0.90187740994516574222 
-0.00000000000000003859 -0.00000000000000021737 0.90640061800337101694 
-0.00000000000000001447 -0.00000000000000004509 0.91032386639335016731 
0.00000000000000002390 0.00000000000000005319 0.91358716490655977882 
-0.00000000000000002489 0.00000000000000003551 0.91613317959903650678 
0.00000000000000003766 -0.00000000000000002741 0.91790813365014478631 
0.00000000000000003340 0.00000000000000000784 0.91886260750103587736 
0.00000000000000007682 -0.00000000000000002064 0.91895222607325477426 
0.00000000000000002201 -0.00000000000000011799 0.91813822594674887601 
0.00000000000000006292 -0.00000000000000013040 0.91638789976119394698 
0.00000000000000011689 0.00000000000000003220 0.91367491879166773394 
0.00000000000000000030 -0.00000000000000004398 0.90997953766366179718 
0.00000000000000003831 0.00000000000000002043 0.90528868755629787746 
-0.00000000000000000512 -0.00000000000000004962 0.89959596605126279645 
0.00000000000000007004 -0.00000000000000000484 0.89290153307974395869 
0.00000000000000002687 -0.00000000000000004970 0.88521192326437070363 
-0.00000000000000008695 -0.00000000000000001080 0.87653978541137000935 
-0.00000000000000005259 -0.00000000000000004946 0.86690356004088320319 
-0.00000000000000009702 0.00000000000000003474 0.85632710570800385508 
-0.00000000000000001150 0.00000000000000000851 0.84483928451615331046 
-0.00000000000000008251 0.00000000000000005159 0.83247351670543523472 
-0.00000000000000004753 -0.00000000000000001749 0.81926731355366810838 
-0.00000000000000000405 0.00000000000000008234 0.80526179709376011218 
0.00000000000000003661 0.00000000000000003556 0.79050121435957221294 
0.00000000000000001423 -0.00000000000000013380 0.77503245305029155876 
-0.00000000000000007192 0.00000000000000000336 0.75890456467293010423 
0.00000000000000009904 0.00000000000000006859 0.74216830040214665232 
-0.00000000000000009772 -0.00000000000000010163 0.72487566410072978851 
0.00000000000000009231 -0.00000000000000004372 0.70707948618415172870 
0.00000000000000000209 -0.00000000000000004875 0.68883302129705836769 
-0.00000000000000003504 0.00000000000000005033 0.67018957210444374262 
-0.00000000000000002305 0.00000000000000004132 0.65120214088951045017 
-0.00000000000000008180 0.00000000017196889579 0.63192311009596835447 
-0.00000000000000004836 0.00000003528450845212 0.61240395245550272030 
-0.00000000000000006221 0.00000052528313800136 0.59269497090081391111 
-0.00000000000000001120 0.00000320431630390928 0.57284506807957158436 
-0.00000000000000006390 0.00001238046057462832 0.55290154495260535050 
-0.00000000000000004350 0.00003620937583808481 0.53290992767793077256 
0.00000000000000002858 0.00008777964825648507 0.51291382174761568358 
-0.00000000000000000844 0.00018589781291142318 0.49295479215358278813 
-0.00000000000000012375 0.00035552538187146569 0.47307226820765685416 
0.00000000000000008923 0.00062786457631135086 0.45330347152680783296 
0.00000000000000018976 0.00104011863213353760 0.43368336561302484045 
-0.00000000000000008388 0.00163497030717203620 0.41424462540495199381 
-0.00000000000000001977 0.00245983156263183738 0.39501762515196098269 
-0.00000000000000000460 0.00356592067538042626 0.37603044295734983082 
0.00000000000000012876 0.00500722209195025685 0.35731028865630493074 
-0.00000000000000004841 0.00683938056881390737 0.33887923354249094299 
-0.00000000000000000202 0.00911857562741859307 0.32075864107731355546 
-0.00000000000000005420 0.01190041588730040255 0.30296773102719415371 
-0.00000000000000003462 0.01523888601308650941 0.28552364362770116246 
-0.00000000000000005156 0.01918537223979309078 0.26844151130991494858 
-0.00000000000000001286 0.02378778601295528095 0.25173453670455381292 
-0.00000000000000006050 0.02908979938221412445 0.23541407572172215468 
-0.00000000000000003799 0.03513020052868572052 0.21948972458876070402 
0.00000000000000000267 0.04194237324000240491 0.20396940981425129569 
-0.00000000000000007122 0.04955390028260966279 0.18885948013178452398 
0.00000000000000002374 0.05798628743908450928 0.17416479956163852250 
0.00000000000000001280 0.06725480243896576893 0.15988884081132173631 
-0.00000000000000008920 0.07736842106181800183 0.14603377831633440609 
0.00000000000000006857 0.08832987127052963072 0.13260058029999693963 
-0.00000000000000012981 0.10013576527748878353 0.11958909930534690480 
-0.00000000000000002499 0.11277680889244783013 0.10699816072262184619 
-0.00000000000000001043 0.12623807728674651951 0.09482564890246139577 
-0.00000000000000008074 0.14049934637591923736 0.08306859050754389351 
-0.00000000000000006419 0.15553546931779363427 0.07172323481380490917 
-0.00000000000000006100 0.17131678809740150116 0.06078513072664336325 
-0.00000000000000004798 0.18780957078002066818 0.05024920032760204353 
0.00000000000000000986 0.20497646572149968991 0.04010980881297399742 
-0.00000000000000003806 0.22277696479785524808 0.03036083072771176075 
-0.00000000000000000498 0.24116786852611943326 0.02099571243602633627 
-0.00000000000000002888 0.26010374677219860740 0.01200753080427532232 
-0.00000000000000007085 0.27953738955995671711 0.00338904810233132698 
0.00000000000000003489 0.29942024329342603606 -0.00486723684325191669 
0.00000000000000004116 0.31970282846895076156 -0.01276904118711707538 
-0.00000000000000010714 0.34033513567704087865 -0.02032425421612117644 
-0.00000000000000004116 0.36126699736816220154 -0.02754089701774593141 
-0.00000000000000003268 0.38244843347822515822 -0.03442708555503271040 
0.00000000000000002072 0.40382996957555811202 -0.04099099702456406730 
-0.00000000000000002959 0.42536292670064190791 -0.04724083936374778858 
-0.00000000000000014978 0.44699968252302241245 -0.05318482376552390728 
-0.00000000000000006162 0.46869390383783915421 -0.05883114005246399547 
-0.00000000000000001718 0.49040075076929734443 -0.06418793475784305425 
-0.00000000000000008089 0.51207705334277420217 -0.06926329175852152797 
-0.00000000000000003649 0.53368146133412319720 -0.07406521530316548252 
-0.00000000000000001631 0.55517456850746249586 -0.07860161527934472758 
0.00000000000000003081 0.57651901251480774935 -0.08288029456419772345 
-0.00000000000000003790 0.59767955185596322032 -0.08690893830554380362 
-0.00000000000000008881 0.61862312138868735811 -0.09069510498337129967 
-0.00000000000000012831 0.63931886794089298753 -0.09424621910547704984 
0.00000000000000004724 0.65973816761191084179 -0.09756956539550616647 
-0.00000000000000005798 0.67985462636199012199 -0.10067228433668014287 
-0.00000000000000003235 0.69964406546034019208 -0.10356136893997741621 
-0.00000000000000006025 0.71908447664810237754 -0.10624366261138055989 
0.00000000000000011788 0.73815572975252885524 -0.10872585799891654190 
-0.00000000000000009986 0.75683870110972273348 -0.11101449670655171020 
-0.00000000000000006515 0.77511399125685909173 -0.11311596976845469942 
-0.00000000000000000091 0.79296056686713900508 -0.11503651878368144346 
0.00000000000000001354 0.81035455219460594822 -0.11678223761788433799 
0.00000000000000002284 0.82726829899083997866 -0.11835907458517913593 
0.00000000000000000435 0.84366979477755443817 -0.11977283502974200857 
-0.00000000000000010312 0.85952242132664480323 -0.12102918423305815410 
-0.00000000000000002962 0.87478504323657613195 -0.12213365057892475174 
0.00000000000000003822 0.88941238663358890282 -0.12309162891433830800 
-0.00000000000000007285 0.90335565712504040103 -0.12390838405020843105 
-0.00000000000000006435 0.91656334171907671848 -0.12458905435144608520 
0.00000000000000006030 0.92898213957355035841 -0.12513978842172121531 
-0.00000000000000015755 0.94055796966182225738 -0.12556456181001701689 
-0.00000000000000008703 0.95123700861153570596 -0.12586786813355807513 
0.00000000000000003918 0.96096671840707725831 -0.12605438022299739198 
-0.00000000000000000845 0.96969686428659385147 -0.12612866214163054313 
-0.00000000000000007546 0.97738077773806242288 -0.12609517254484087223 
-0.00000000000000016462 0.98397710634653723361 -0.12595826791099823394 
-0.00000000000000015633 0.98945178817304701990 -0.12572220562895433660 
-0.00000000000000005910 0.99377992466912046243 -0.12539114693049052685 
-0.00000000000000005967 0.99694734532275375294 -0.12496915965906224555 
0.00000000000000000894 0.99895175143170100718 -0.12446022086887834068 
-0.00000000000000007486 0.99980339401505269326 -0.12386821925082804052 
-0.00000000000000003142 0.99952528788004579852 -0.12319695738397899720 
-0.00000000000000002338 0.99815299506747401370 -0.12245015381336324389 
-0.00000000000000006527 0.99573403015500727697 -0.12163144495652628008 
-0.00000000000000007289 0.99232695026449313502 -0.12074438684287062962 
0.00000000000000001194 0.98800019651411996602 -0.11979216855192226232 
-0.00000000000000014034 0.98283075297229172129 -0.11877737390901366155 
0.00000000000000004745 0.97690268537520341674 -0.11770450827832516782 
-0.00000000000000002456 0.97030561608965626430 -0.11657681623358959189 
-0.00000000000000006568 0.96313318488686672225 -0.11539746858820089381 
-0.00000000000000007083 0.95548153767276156056 -0.11416956326829641455 
-0.00000000000000016307 0.94744787785293427262 -0.11289612607515865650 
-0.00000000000000010414 0.93912910781705771779 -0.11158011134701395495 
-0.00000000000000003220 0.93062058132326219706 -0.11022440253043869207 
-0.00000000000000003982 0.92201498148149174661 -0.10883181267162130024 
-0.00000000000000004715 0.91340133364821496365 -0.10740508483765150161 
-0.00000000000000003673 0.90486415787931451238 -0.10594689247787905662 
-0.00000000000000004298 0.89648276163647999670 -0.10445983973514846865 
-0.00000000000000006348 0.88833067017454392378 -0.10294646171644808441 
-0.00000000000000007331 0.88047518940688085376 -0.10140922473215303878 
-0.00000000000000011502 0.87297709399748857351 -0.09985052651266825008 
0.00000000000000017684 0.86589043190080905443 -0.09827269641083420659 
-0.00000000000000002242 0.85926243550112868519 -0.09667799559800432929 
-0.00000000000000006563 0.85313352883065640686 -0.09506861726120138800 
-0.00000000000000002994 0.84753742000976728388 -0.09344668680825839180 
-0.00000000000000008445 0.84250126799878100048 -0.09181426208731423289 
-0.00000000000000014521 0.83804591292681351877 -0.09017333362650351014 
-0.00000000000000008980 0.83418615962337760994 -0.08852582489913293773 
-0.00000000000000010690 0.83093110448119567035 -0.08687359261910206076 
-0.00000000000000000471 0.82828449638778900432 -0.08521842707077802170 
-0.00000000000000006923 0.82624512314732045937 -0.08356205247701570249 
-0.00000000000000008835 0.82480721554590219480 -0.08190612740848075835 
0.00000000000000000487 0.82396086197040396826 -0.08025224523693932910 
-0.00000000000000002856 0.82369242725382507686 -0.07860193463467460284 
0.00000000000000003272 0.82398497017410821108 -0.07695666012173089932 
-0.00000000000000009019 0.82481865476560622952 -0.07531782266222061817 
-0.00000000000000011168 0.82617115130368856679 -0.07368676031050723496 
0.00000000000000005874 0.82801802348603259496 -0.07206474890766371988 
-0.00000000000000011421 0.83033309895386242516 -0.07045300282822607174 
-0.00000000000000002236 0.83308882086941460354 -0.06885267577689192786 
0.00000000000000002948 0.83625657879032400110 -0.06726486163449384159 
0.00000000000000000435 0.83980701755676778753 -0.06569059535225003910 
-0.00000000000000005784 0.84371032333337470099 -0.06413085389302490558 
-0.00000000000000007526 0.84793648632624418759 -0.06258655721806397065 
0.00000000000000002154 0.85245554002764478696 -0.06105856931743741667 
-0.00000000000000005416 0.85723777712926962913 -0.05954769928221558678 
-0.00000000000000013181 0.86225394249190090434 -0.05805470241621633193 
-0.00000000000000009955 0.86747540376773246695 -0.05658028138500038190 
-0.00000000000000007860 0.87287430044433722554 -0.05512508739965565202 
-0.00000000000000000174 0.87842367221937789346 -0.05368972143278981368 
0.00000000000000005399 0.88409756772555725401 -0.05227473546406151417 
-0.00000000000000007352 0.88987113470901535450 -0.05088063375249994580 
0.00000000000000002125 0.89572069280324762008 -0.04950787413281160232 
0.00000000000000004901 0.90162377339041421820 -0.04815686933283025439 
-0.00000000000000007266 0.90755890898138102951 -0.04682798830925297140 
-0.00000000000000015018 0.91350484022231204229 -0.04552155759879344954 
-0.00000000000000004221 0.91943930879041968485 -0.04423786268190169069 
0.00000000000000004647 0.92533777100084901868 -0.04297714935621780447 
-0.00000000000000001830 0.93117225728356833869 -0.04173962511697251049 
-0.00000000000000010864 0.93691050642302331486 -0.04052546054158831512 
-0.00000000000000012156 0.94251543441051888195 -0.03933479067580517713 
0.00000000000000000705 0.94794494975832077621 -0.03816771641871449794 
0.00000000000000003534 0.95315209518979393533 -0.03702430590417356282 
0.00000000000000002988 0.95808547578412450729 -0.03590459587615209280 
-0.00000000000000016926 0.96268992277452236639 -0.03480859305565805334 
0.00000000000000010508 0.96690733780418269827 -0.03373627549699177025 
0.00000000000000003627 0.97067766260880450346 -0.03268900223464703270 
-0.00000000000000013034 0.97393992233232862255 -0.03166521133856606274 
-0.00000000000000004709 0.97663329586250402503 -0.03066480706991208879 
0.00000000000000008016 0.97869818005241959735 -0.02968767008377755715 
0.00000000000000004069 0.98007737090820501447 -0.02873365871254348128 
0.00000000000000008342 0.98071770351416553968 -0.02780261022687071509 
-0.00000000000000009000 0.98057206554150100342 -0.02689434207287118989 
-0.00000000000000002097 0.97960142924569004741 -0.02600865308413280105 
-0.00000000000000000460 0.97777664588692747571 -0.02514532466737737573 
-0.00000000000000000841 0.97507985354953641277 -0.02430412196065850211 
0.00000000000000000064 0.97150542720741306368 -0.02348479496310682674 
-0.00000000000000006123 0.96706045488618730399 -0.02268707963534890779 
0.00000000000000001504 0.96176476114909847936 -0.02191069896983740065 
-0.00000000000000005858 0.95565052308784081969 -0.02115536403042640040 
-0.00000000000000010956 0.94876153788669392863 -0.02042077496064018116 
0.00000000000000011946 0.94115220750675054884 -0.01970662196017741383 
0.00000000000000006028 0.93288630719760912147 -0.01901145317890442360 
0.00000000000000003292 0.92403560201572210175 -0.01833586256097382433 
-0.00000000000000005037 0.91467837056775325166 -0.01767980320919327816 
0.00000000000000009097 0.90489788875973897753 -0.01704293063314682444 
-0.00000000000000009692 0.89478091913441160088 -0.01642489500307832764 
-0.00000000000000000938 0.88441624394485485183 -0.01582534192124626649 
-0.00000000000000002927 0.87389327281752859911 -0.01524391316127291993 
0.00000000000000004246 0.86330074895888819775 -0.01468024737567721720 
-0.00000000000000004779 0.85272557152387962187 -0.01413398077184539227 
-0.00000000000000007558 0.84225174608875152948 -0.01360474775675393072 
-0.00000000000000010508 0.83195947020018190532 -0.01309218155081974012 
0.00000000000000004482 0.82192435671467689584 -0.01259591477129771812 
0.00000000000000000803 0.81221679407641433901 -0.01211557998570326339 
0.00000000000000001984 0.80290143976909755796 -0.01165081023577343132 
0.00000000000000000395 0.79403684086693315791 -0.01120123953252611347 
0.00000000000000002491 0.78567517384341778452 -0.01076650332301258214 
0.00000000000000006413 0.77786209451295051931 -0.01034623892938859972 
-0.00000000000000002554 0.77063668811780283718 -0.00994008596096174722 
-0.00000000000000001541 0.76403150907178796203 -0.00954768669989925281 
0.00000000000000009755 0.75807269967538126743 -0.00916868646129643909 
-0.00000000000000003388 0.75278017717239431583 -0.00880273392833566364 
-0.00000000000000001350 0.74816787877758983427 -0.00844948146327057989 
-0.00000000000000000266 0.74424405472471000245 -0.00810858539499339712 
0.00000000000000002984 0.74101159992711640445 -0.00777970628394448506 
-0.00000000000000000158 0.73846841547520880589 -0.00746250916513889039 
-0.00000000000000011401 0.73660779188731839717 -0.00715666377008490010 
-0.00000000000000001720 0.73541880675936610601 -0.00686184472837283142 
-0.00000000000000001895 0.73488673020283890036 -0.00657773174971350207 
0.00000000000000001555 0.73499343220369872665 -0.00630400978720737498 
0.00000000000000000627 0.73571778676309373957 -0.00604036918261315579 
-0.00000000000000003483 0.73703606838346924501 -0.00578650579438935459 
0.00000000000000012335 0.73892233713264932060 -0.00554212110926819400 
0.00000000000000005504 0.74134880914763023885 -0.00530692233811520028 
-0.00000000000000010368 0.74428621002503003723 -0.00508062249681791745 
-0.00000000000000007181 0.74770410908377660242 -0.00486294047293430332 
0.00000000000000005479 0.75157123297640804349 -0.00465360107881963771 
-0.00000000000000000437 0.75585575756811362869 -0.00445233509193868233 
0.00000000000000000084 0.76052557739805359827 -0.00425887928305089796 
-0.00000000000000000646 0.76554855238694585751 -0.00407297643294583095 
-0.00000000000000007644 0.77089273176030159718 -0.00389437533838606119 
0.00000000000000002960 0.77652655542037407610 -0.00372283080790024963 
-0.00000000000000008264 0.78241903322442951652 -0.00355810364804973363 
-0.00000000000000001186 0.78853990281517527539 -0.00339996064077605119 
-0.00000000000000000143 0.79485976680393144456 -0.00324817451241586619 
-0.00000000000000008601 0.80135021023137187335 -0.00310252389495394238 
-0.00000000000000004549 0.80798389932725012130 -0.00296279328006459263 
-0.00000000000000002633 0.81473466266231653332 -0.00282877296647132161 
0.00000000000000001328 0.82157755317340852574 -0.00270025900113970334 
0.00000000000000011202 0.82848878900026989847 -0.00257705311479344964 
-0.00000000000000007189 0.83544520668624311366 -0.00245896265223135516 
-0.00000000000000007223 0.84242317807045696831 -0.00234580049789578958 
0.00000000000000000760 0.84939732427941982973 -0.00223738499713264710 
0.00000000000000001151 0.85633929885539261662 -0.00213353987355651212 
0.00000000000000000544 0.86321680373830222965 -0.00203409414292432186 
-0.00000000000000002513 0.86999292270128136817 -0.00193888202389123714 
-0.00000000000000006780 0.87662580108546372948 -0.00184774284601884947 
-0.00000000000000005858 0.88306866284919105503 -0.00176052095537282882 
-0.00000000000000008983 0.88927013169355417777 -0.00167706561804419692 
-0.00000000000000007386 0.89517480889753575646 -0.00159723092189903025 
0.00000000000000003584 0.90072405376872388683 -0.00152087567685400740 
-0.00000000000000002524 0.90585691115936572970 -0.00144871794273666258 
0.00000000000000000424 0.91051113266193739459 -0.00138027718061813618 
-0.00000000000000002859 0.91462424261929420322 -0.00131484380633638308 
0.00000000000000008773 0.91813460617899067540 -0.00125229857737801258 
