5.798552 5.735256 5.672274 5.609603 5.547245 5.485197 5.423459 5.362032 5.300913 6.748734 7.288831 7.105309 6.384149 5.790470 6.269807 8.996358 8.301194 7.786670 5.310129 5.555086 4.921039 6.518103 6.144228 6.446266 5.592149 5.593738 7.166729 7.141090 7.954389 7.094068 7.500534 7.400360 8.609809 7.954801 8.768033 7.668876 7.274331 8.281915 7.940487 6.746950 6.615348 6.424469 6.292613 5.725251 5.832498 4.022287 4.925775 4.251004 3.708785 4.189269 3.944713 3.196192 4.529406 3.793091 3.310233 2.158602 2.066877 2.596403 2.481002 1.368602 0.289276 -0.298766 -0.458768 0.949271 1.655045 1.815708 1.320977 -0.132810 -0.134618 0.772504 1.679815 1.852283 3.504986 1.161037 -1.218243 -0.838748 -0.125403 1.042995 0.821722 1.127815 -0.817808 -2.192837 -2.487259 -0.524549 -0.842631 -0.893881 -2.279492 -2.419620 -3.576269 -3.508845 -5.017538 -4.552237 -3.774634 -4.490768 -4.202401 -3.790369 -4.435570 -4.691130 -6.314208 -4.847518 -4.854328 -3.976563 -4.185026 -4.916570 -3.963449 -4.828075 -4.663398 -5.325844 -4.933169 -6.231396 -5.624582 -4.381496 -4.395097 -5.199964 -5.601640 -5.871335 -6.926374 -7.557758 -6.779566 -5.313234 -4.559641 -6.076094 -6.200018 -6.262514 -6.338529 -8.640254 -6.624458 -5.294529 -4.043172 -5.124612 -5.323804 -6.529256 -4.800992 -5.195487 -4.632542 -3.797760 -3.237678 -3.890244 -6.033952 -3.510631 -1.657958 -1.456062 -2.360015 -2.431131 -3.119647 -2.680146 -1.971511 -1.154157 -0.774906 -0.156565 -1.476786 -1.437601 -1.249815 -0.520312 -0.855927 -0.368801 0.326539 0.454798 -0.894758 -1.827438 -1.252847 -0.206982 0.483069 -0.183768 0.174341 -0.681535 0.424268 -1.196929 -2.131330 -2.715954 -0.722080 -0.776508 0.853260 -0.478516 -1.576429 -1.645487 -1.091350 -2.264108 -2.265188 -1.611243 -1.551547 -1.001599 -1.930169 -1.787693 -1.808000 -2.628791 -2.135397 -2.060248 -1.718688 -1.484991 -1.526208 -2.343159 -2.519699 -1.248639 0.509153 -1.146055 -0.723151 -0.952353 -1.897573 -2.215979 -1.590065 -0.234299 -1.304392 -0.189672 -0.135728 -0.489843 -2.325206 -2.213744 -1.220934 -0.340823 0.245850 0.482153 -1.270041 -1.849701 -1.022471 -0.839263 -1.661263 -1.700668 -0.526083 -1.219860 -1.926557 -1.426177 -1.383351 -1.544958 -2.581764 -1.802584 -2.228128 -0.968200 -1.062112 -1.675386 -2.292673 -2.892955 -2.787834 -3.439448 -2.483170 -1.000943 -0.957678 -1.953080 -3.907766 -3.520981 -3.898958 -3.227582 -3.317472 -2.022512 -2.202372 -2.500459 -3.248812 -3.139604 -3.707289 -3.708250 -3.330859 -1.594507 -1.737109 -1.379502 -1.573049 -2.965811 -3.494454 -2.251742 -1.365418 -0.546615 -0.157810 -0.679365 -2.144642 -2.293414 -1.094393 -0.433487 0.374390 0.776417 0.625074 -1.045124 -0.219656 -0.704055 1.223656 1.368478 1.704314 0.506941 0.370346 0.003818 -0.217143 0.356936 -0.711868 -0.892388 -0.913023 0.117061 -1.311737 -0.524157 -1.026854 -1.131383 -2.449676 -2.118506 -1.514321 -0.974315 -0.976402 -0.496520 -0.566053 -1.950835 -2.291504 -1.959872 -1.961377 -3.007513 -2.370499 -1.539737 -1.786463 -1.854750 -1.455088 -2.641396 -2.447828 -2.813639 -2.927474 -2.833641 -1.409697 -0.855630 -2.309135 -2.375007 -3.215323 -3.366811 -3.017983 -2.860036 -3.899296 -2.217680 -1.509434 -1.800996 -2.610953 -2.543257 -2.709779 -3.442314 -4.141246 -2.143896 -2.145381 -1.617046 -3.149520 -2.402234 -2.862055 -2.702735 -3.058089 -3.383538 -3.893707 -3.308523 -2.785557 -1.121467 -1.372770 -3.049991 -3.412489 -2.737332 -3.180870 -3.967032 -2.960977 -1.773522 -1.369399 -2.078483 -2.275718 -2.455054 -2.859198 -3.403312 -3.246221 -1.938680 -2.543073 -2.744603 -1.867146 -2.541063 -3.495658 -3.780849 -2.160514 -2.461074 -3.111818 -3.257403 -2.113098 -1.686618 -2.007503 -1.548323 -1.491050 -1.972453 -3.081212 -3.130391 -2.712071 -0.707348 -1.493865 -1.461395 -2.692655 -2.100599 -2.370510 -1.770400 -2.019455 -1.297082 -1.367403 -0.947990 -1.304907 -0.916697 -0.214223 -1.144229 -1.338598 -1.936137 -0.624348 -0.761355 -0.173252 0.644253 0.096167 -1.139459 -0.548472 -0.517545 -0.424781 0.093728 1.084329 1.275128 0.404055 0.136352 0.120310 1.276935 0.042582 -0.206842 0.536531 0.930652 1.000126 2.391162 2.442290 2.406608 1.804282 1.961042 0.357877 1.888262 3.361234 4.334999 3.058130 2.911178 2.641847 1.817152 1.770585 2.466669 2.725554 3.630826 2.968143 3.229048 2.647701 2.710602 1.864211 1.192684 1.926633 3.265090 3.069096 2.611868 2.565726 2.160722 1.401489 0.877495 2.286050 3.214713 3.030461 2.901288 3.154157 2.755206 1.556585 0.678957 1.745673 3.558534 3.215621 3.226248 2.416506 2.629905 0.589414 1.400363 2.175727 3.075042 3.106039 3.279122 2.487473 1.780503 1.457201 1.607011 1.663090 1.570137 2.573137 2.518915 2.225222 2.059199 2.372447 1.361276 1.875291 1.669193 2.476734 2.872582 3.867950 2.404433 2.004624 1.863027 2.632259 1.775415 2.734613 3.139156 3.043518 2.159815 1.589762 2.220576 2.082208 1.751640 2.335826 3.237740 4.451417 3.945655 4.127737 2.289890 2.086751 3.483436 4.536105 5.503223 5.420848 4.445513 3.523189 4.010914 4.397516 4.486057 4.878891 4.822277 6.118418 6.976781 7.197455 5.294968 6.198708 6.261842 5.747322 5.895494 7.573883 7.928877 6.594663 6.800890 6.371964 5.302012 5.461119 6.567874 7.916838 8.157740 7.193204 7.884176 8.728417 8.082633 7.388399 7.849573 7.911406 8.525981 9.071585 8.235956 7.155546 7.679567 6.544311 6.549000 8.147988 8.890165 6.963065 6.365307 7.809146 7.238070 6.683294 8.253309 8.162803 6.818286 6.569784 7.858830 8.145915 7.256671 7.452507 7.554579 6.522466 6.884744 8.449666 9.610315 8.025389 8.207854 7.941208 7.870503 8.343300 9.029702 8.741387 9.504366 9.495030 9.581094 9.027104 8.223144 7.991757 6.364815 7.463141 7.879963 8.338976 7.490150 8.119715 8.382711 6.968144 6.099379 6.539888 7.094118 7.839388 9.001970 8.799667 8.542171 7.070382 6.740097 7.752927 8.996484 8.986615 8.799989 8.392590 8.426471 8.594422 7.526111 8.612649 8.343694 10.285924 9.200631 9.397216 7.976649 7.648404 7.128910 7.741607 8.610367 8.823646 8.844308 7.461934 6.680159 7.627796 8.630053 9.696102 8.576063 8.150390 8.304359 8.575570 8.291164 9.372084 9.942083 9.360664 7.706488 8.055755 8.286010 8.408542 7.003514 7.379875 7.970562 7.443426 7.769147 7.366700 7.415465 5.217812 6.246318 7.188869 8.071908 7.922526 7.258077 6.417955 6.660078 5.674436 5.658453 5.566799 6.308484 4.976446 5.322030 5.114924 4.383347 3.386072 3.082212 3.987673 3.837130 2.514484 2.806229 3.581645 3.821584 4.130886 3.740519 2.417961 2.499091 2.679567 3.199557 4.132269 4.787373 4.082509 2.532162 2.710610 3.699770 3.721976 2.800995 2.818143 1.620251 1.855620 1.598521 4.125317 4.421985 3.843625 2.560458 2.604417 2.979512 3.230374 4.971128 5.285216 4.427357 2.900930 4.190136 3.333133 2.917411 3.893696 4.366203 3.709188 3.100825 3.864750 4.418651 4.218452 3.406495 3.590779 3.750917 4.958072 4.258422 4.595594 4.591969 5.258033 4.251493 3.254789 2.218700 4.192555 6.547172 5.538714 5.005443 5.370918 4.689928 2.961885 3.865130 4.741605 4.142893 3.259740 4.548790 5.409688 4.409386 3.175199 4.294369 4.293060 4.568504 3.886382 4.273009 3.873894 5.924693 5.805440 5.863839 5.959583 5.459140 3.682204 3.221990 4.973782 6.835213 7.160521 7.328267 6.890130 6.223937 5.423024 6.537035 6.277751 5.766548 7.122013 7.062916 6.996418 6.489715 6.652679 6.364941 5.688746 5.661545 4.637192 5.171755 6.731044 6.940951 6.470445 6.345237 5.852282 5.519932 5.774751 5.718736 8.218295 9.145930 7.372608 6.548248 6.430473 5.931095 6.230985 6.207082 7.490897 7.779227 7.395355 6.020159 7.279541 5.887374 4.857541 4.960051 7.083512 7.282164 6.207843 5.520636 5.949764 5.861262 5.002383 5.205332 5.482169 6.623277 5.457693 6.368071 5.545669 6.638419 5.754420 5.760362 4.981846 5.811489 5.914797 6.977656 5.794562 5.297061 4.981613 4.479391 3.379050 4.057752 5.659628 5.276184 3.765703 3.394644 3.487684 2.510887 3.624072 3.249946 3.489424 3.053603 5.895495 3.764863 3.119575 3.960334 3.071018 2.428341 3.547077 2.997537 2.282929 3.692079 3.474478 2.767088 1.155848 0.543631 0.507080 1.580585 1.928948 1.838715 2.120357 2.073918 1.740295 1.815419 1.731268 2.319235 2.686393 1.030666 1.487524 1.408754 3.245269 2.567096 2.803014 2.115252 1.898518 0.591746 0.274404 1.519844 4.158683 4.658190 4.232009 2.101441 2.177885 3.030890 2.843835 4.489229 5.697551 4.457261 3.033952 3.275096 3.565161 3.498874 2.899137 2.206587 2.939967 4.457524 4.267449 3.680361 3.025468 4.975446 2.910728 2.534528 1.768181 3.922981 4.007963 3.930710 3.713264 4.131741 4.304614 3.109523 3.106509 3.963067 4.760110 5.759105 6.408667 6.539301 6.275195 5.771764 5.046937 5.242173 5.550436 5.132311 6.043861 8.308863 5.508159 5.204755 5.953273 7.232533 7.084381 6.612600 5.753920 5.521065 7.434751 7.667262 6.992146 6.933607 8.291875 7.369017 6.405511 6.422217 6.929479 8.100460 9.172883 8.266070 8.961438 8.615628 8.005922 5.280730 6.783235 8.005999 8.547585 9.088385 9.099117 9.231874 6.740546 6.469531 7.995061 8.670930 6.713749 6.208658 8.319374 8.139676 8.171336 5.990253 4.431530 3.883588 5.291789 8.503372 9.410835 7.042663 6.347595 5.096899 4.340062 4.145853 4.991625 4.321336 5.025289 4.080033 3.870729 4.429304 5.172181 4.377823 3.984788 2.745155 3.414085 4.872500 5.105376 4.013518 4.903944 4.685199 6.011962 4.505206 3.389963 3.229974 3.842671 4.584581 4.649038 5.396184 5.412081 4.519898 3.292844 2.674991 3.346481 4.438810 4.757832 4.529409 5.050218 3.689929 3.881203 3.253332 2.965531 3.803658 3.855509 4.300113 3.361924 3.291376 2.933077 3.174133 2.981370 3.966599 4.822176 5.206922 4.299093 6.280540 7.257205 7.793940 8.932113 7.293125 6.482114 5.447174 4.641285 3.797721 3.832126 4.342341 4.146516 2.712582 1.986063 1.782635 3.127040 1.428856 1.533345 1.356389 2.820001 1.626828 2.468837 3.865725 3.525953 2.526805 -0.392013 -0.243853 0.325257 1.303724 2.798381 1.472037 0.318034 1.043752 2.139183 0.665809 1.696356 1.559307 2.726750 0.665028 2.925065 1.977296 2.099469 1.011586 0.528932 0.200210 -0.248238 -1.175675 -0.349489 0.818659 0.340258 -1.130977 -0.186094 -1.540312 -2.230540 -2.845533 -3.410675 -3.048011 -2.034174 -1.608682 -2.111951 -3.102532 -2.657252 -3.039533 -2.348877 -5.024541 -5.039358 -6.963584 -6.802820 -6.495711 -5.521542 -6.154824 -5.891249 -6.620288 -7.457454 -9.404471 -9.658556 -9.621113 -9.465729 -9.204675 -7.682286 -8.838773 -9.641439 -9.467687 -9.936323 -10.550786 -12.775987 -11.128294 -10.723652 -10.273140 -10.570020 -11.391820 -11.682445 -12.269582 -12.876563 -13.335995 -13.130740 -12.581636 -12.406082 -12.609820 -13.533707 -14.602270 -14.350293 -13.177987 -13.420358 -11.689177 -11.676939 -11.604303 -12.164400 -11.568125 -10.728391 -10.087646 -8.547038 -8.476765 -8.553403 -9.472509 -9.283123 -8.595385 -7.192861 -6.837932 -6.820621 -5.591361 -4.770033 -3.808384 -4.157718 -3.930014 -3.162768 -3.749856 -3.525664 -3.243235 -2.822237 -1.732788 -1.070710 0.472706 0.299279 1.683595 1.022253 1.778224 1.972408 2.831732 2.036659 3.310969 3.901832 2.912721 2.446854 3.594927 5.052932 5.900053 5.552816 4.746522 5.056800 6.340015 4.387979 4.319037 4.737696 3.427551 2.253764 0.929124 1.311011 1.620383 0.410620 -0.543792 -0.308476 -1.307827 -0.069219 1.161987 0.743580 -1.049366 -1.555435 1.624736 -0.922373 0.407395 -1.262841 -3.331894 -5.851255 -2.854271 -1.950348 -3.953131 -6.590438 -5.883922 -5.757680 -6.000384 -6.192985 -6.685659 -5.927720 -5.473258 -5.259484 -5.465699 -5.281472 -6.477237 -7.119520 -7.886466 -7.204284 -7.233647 -6.641623 -5.953412 -7.009479 -7.907615 -7.301742 -5.186413 -3.697561 -4.055360 -5.661948 -4.841683 -3.894757 -2.050547 -3.582569 -2.951761 -3.121539 -2.965583 -2.022970 -0.991931 -2.103758 -3.120218 -1.726262 -0.498927 0.698484 -0.141895 0.297932 1.100281 1.956153 2.704287 1.911404 1.575061 3.522965 4.266040 4.076147 3.066212 3.197052 3.220579 3.860058 4.978033 4.804533 4.917739 4.533766 3.194599 3.005369 2.253542 3.728110 4.296366 4.478971 4.563385 4.240564 4.067411 3.386627 2.769532 3.221983 4.214498 5.231633 4.630180 2.840890 2.045857 1.484720 1.999134 4.769504 3.676391 2.063310 1.879282 0.988919 1.040986 0.235334 2.195674 1.156170 0.547833 -0.039948 -0.419822 -0.324886 -1.990497 -1.565390 -0.640725 -0.047536 0.721649 0.080944 -0.424151 -2.045248 -2.208770 -2.802825 -2.258088 -2.789905 -2.677995 -2.307210 -3.334363 -3.097920 -3.817955 -3.491394 -3.494633 -3.077915 -2.545048 -2.237474 -2.183042 -2.240143 -2.773206 -2.959409 -2.270033 -1.722808 -1.709287 -1.823529 -0.553533 -1.825469 -1.469214 -2.096860 -2.282131 -2.648337 -2.351013 -1.836522 0.225662 -1.378913 -1.561780 -0.609240 -0.834239 -1.029682 0.249069 0.407161 1.701673 0.846728 -0.386629 0.095936 1.231254 0.118358 0.589706 1.992401 2.299094 1.887058 2.154841 2.330254 1.667658 1.004728 3.471780 4.262146 3.476080 3.968439 4.217520 3.335950 3.542153 4.493656 4.663532 4.426219 5.233755 4.259616 3.506056 3.445748 3.105275 2.652801 4.423420 4.779193 4.833200 4.123545 4.706420 3.639288 4.644331 3.721581 3.775436 4.932709 5.179807 5.301250 5.893822 5.211539 5.570678 5.098812 5.166843 3.725991 4.663499 4.582980 4.781182 4.821876 5.276519 5.863891 5.464696 4.176034 4.852683 4.468808 4.793441 5.657876 5.656132 4.942793 3.951001 4.417091 4.517300 3.496383 2.946767 3.902953 3.807373 4.606635 3.863372 4.008419 3.140815 3.193396 2.737335 2.033068 3.553178 5.475567 3.582518 2.130589 1.811809 2.688367 2.237279 1.846538 2.842686 2.868576 3.869260 2.452209 1.877393 1.546046 0.637579 0.823247 1.248063 2.647354 2.533324 1.647680 0.424343 0.646563 -0.121063 1.533615 2.501145 3.429404 2.512397 1.584810 1.277018 1.494607 2.571859 4.369946 4.369669 2.642282 2.309491 2.098947 2.826699 3.855512 3.921996 2.709121 2.558907 1.644575 1.858562 1.423022 2.072374 4.343571 4.199847 1.787287 0.898536 2.033769 2.275179 3.508706 3.166016 3.663082 2.708801 2.222712 1.272177 1.762974 1.552119 0.103035 0.491166 0.808098 0.639933 0.114932 0.630860 -0.516025 -2.468799 -3.065263 -2.205592 -2.423392 -2.818787 -3.225402 -3.126603 -2.855413 -3.840517 -3.783601 -3.708715 -5.276524 -4.936173 -6.095635 -5.953534 -5.177798 -5.005740 -5.044519 -4.888181 -6.415070 -6.860321 -6.078636 -6.128048 -5.497592 -6.253577 -4.704791 -5.193147 -5.070805 -4.785142 -6.737698 -6.555143 -5.586232 -3.830731 -4.340898 -4.225706 -4.276366 -5.576120 -5.501658 -4.175214 -4.554827 -4.660071 -2.840795 -2.917269 -3.706708 -2.872328 -2.379607 -2.586857 -1.928303 -0.920074 0.307060 -1.497100 -1.640070 -2.270849 -1.369189 -0.542060 0.662390 0.736870 -0.964748 -1.895036 -2.375151 -2.732107 -1.562531 0.393992 1.488914 -0.617951 -1.392967 -2.581385 -2.068349 -2.025985 -1.982597 -1.297408 -0.626103 -1.141755 -0.725024 -0.984041 -1.708509 -1.664528 -1.977809 -2.521491 -1.774483 -1.516458 -0.562511 -0.652819 -1.823177 -2.365470 -2.957068 -2.095680 -2.805769 -1.333834 -1.201099 -1.497363 -2.041099 -1.338988 -2.213963 -2.064033 -1.167749 0.195672 0.341678 0.325866 0.311965 -1.449683 -0.964093 -1.764949 1.027528 0.974928 0.728704 0.377825 0.360669 -0.214502 -0.394392 0.024314 0.459417 0.867465 0.109957 1.360261 2.348934 1.690965 -0.215436 -1.455240 0.262773 0.210718 1.402219 1.123393 -0.035597 -0.105494 -0.887073 0.868666 1.646930 1.960440 1.779560 1.063528 0.448194 0.432505 1.984458 1.897597 3.112601 2.253399 1.744689 1.660270 0.998003 1.430652 2.865092 3.091995 4.171311 2.376201 3.579232 3.517295 2.686875 2.337430 1.992553 2.506279 3.355716 2.949190 3.254551 2.094292 2.138461 1.087454 0.226288 0.049981 0.807808 1.682523 2.508170 1.806380 1.140918 1.130783 0.978030 0.623484 1.883358 2.130699 3.297389 4.094665 2.770654 2.437600 1.706022 2.020146 2.386212 3.847288 4.570042 3.086884 2.502728 3.226800 2.481175 2.843564 3.811611 4.413589 4.192622 3.970537 2.904042 3.009939 3.155448 4.983167 4.993075 4.676114 4.835972 3.696403 3.823765 3.163558 3.088920 4.380270 4.219661 4.595822 3.819160 3.815367 4.503362 2.899884 2.450920 1.879047 2.366778 2.788527 2.861514 3.890387 4.473657 3.544960 4.486118 3.614426 2.991471 3.002382 4.239643 5.070499 5.319402 5.676845 4.401338 4.101586 3.567671 4.955761 4.345427 4.665932 5.289495 4.874826 3.832087 3.687719 2.966068 3.643674 4.451352 4.922163 4.720756 3.557704 3.640592 3.254547 3.953373 5.791828 6.470767 5.767211 6.602306 5.598226 4.328298 5.381890 5.710407 6.684234 6.825650 6.613697 6.935873 6.010681 3.782632 4.717892 4.414917 5.307601 5.581546 6.101531 6.503415 4.946630 4.829030 5.333007 5.476865 5.917757 6.840663 6.480441 4.959918 4.236005 5.690936 5.617101 5.626975 5.425798 4.367700 4.332468 5.772042 5.847371 5.875813 5.483991 5.324417 4.790004 4.218830 4.390486 3.291655 4.008210 6.352398 5.580244 5.485207 4.297184 3.589664 3.725615 3.481216 3.358374 4.150821 3.966465 4.060507 4.442505 5.053699 4.968904 4.084797 3.128836 2.459568 1.809686 3.316648 4.190462 5.589101 6.233139 2.519502 2.159959 2.349616 1.470700 1.990504 2.205429 3.315252 3.535128 2.732845 2.083232 2.113962 1.970356 2.399372 2.773284 3.160733 3.019472 3.032928 3.668063 2.774373 1.668699 1.425237 2.092730 2.411780 2.566010 3.654877 5.056864 2.918701 2.222652 1.001793 0.806247 2.050948 3.613291 4.133602 4.547091 3.711293 1.996609 0.661032 1.478591 3.534130 3.776753 4.346608 4.331355 3.064525 1.837890 1.199920 2.106872 3.484655 5.043153 4.137900 3.196219 2.587998 1.706976 1.806641 3.165714 2.217565 3.235617 3.878008 3.199665 3.586347 2.906412 2.545743 3.555512 4.516224 4.548467 4.481268 4.202319 4.262714 3.652693 3.726940 3.915504 6.013542 5.127283 5.294976 3.252428 3.675555 4.863701 6.235348 5.326790 7.154172 5.689142 3.314018 3.313882 4.875541 6.027564 6.708439 6.144487 6.493321 4.025454 3.759728 3.944654 3.357351 3.509260 2.839741 2.923478 3.087912 2.326636 2.202314 1.730253 1.366363 0.732757 0.431563 -0.021612 -0.267223 -0.201578 1.138829 2.164416 2.831874 2.616268 0.984969 0.341440 0.159449 0.494309 2.768855 2.867152 3.080697 3.013774 2.249828 2.229341 0.956963 2.041521 1.722770 1.735758 2.418476 2.838931 1.519629 1.569565 1.485701 1.667704 -0.518684 0.369820 2.280181 2.631976 2.394854 1.737331 1.699497 1.272269 0.225912 0.929443 2.004398 3.526359 3.955615 4.222084 3.000890 1.324733 0.614180 2.218726 4.854618 5.757696 4.097993 3.968466 2.864189 3.192680 4.061923 3.956798 4.008180 4.472500 4.912221 4.718905 2.934294 3.252064 3.441163 4.009524 2.652333 1.219411 1.717703 2.784095 3.734130 3.482180 3.454560 2.676700 2.261054 1.638517 0.968437 1.578123 3.058678 3.481609 4.890481 5.676393 2.669280 1.739210 0.261646 2.326871 2.872077 3.179241 3.735414 3.825558 2.897963 3.237850 3.195932 3.135185 1.759862 2.851144 4.457609 4.875601 4.388449 4.492451 3.995715 3.282898 4.529307 6.967995 7.064693 5.831144 5.468715 5.961909 5.945338 5.985179 6.767103 7.542715 8.212190 7.574741 6.533444 5.035955 4.864356 5.632709 7.174564 7.515037 6.766568 6.863346 7.179148 7.196847 5.711651 5.588441 5.152342 4.325204 5.121991 5.228411 5.903164 7.095063 7.892337 6.986944 4.937544 5.386465 5.158689 4.208605 4.636910 4.540482 4.436289 5.374321 6.883587 7.194621 5.734220 3.880082 3.413288 2.277891 2.433307 4.206769 5.508684 5.557519 6.252012 4.803105 3.061153 2.540516 2.115849 3.175580 2.854746 4.056368 7.311807 5.083118 4.339798 3.345010 1.404614 1.457123 2.008696 2.857395 4.286279 3.954322 4.084846 2.962536 1.435770 1.022215 1.528973 0.341499 2.465990 2.893759 4.138176 2.996079 1.763579 1.044716 0.115533 0.487775 2.730027 3.249894 3.512874 1.843105 2.001396 2.562632 1.792909 2.149430 3.175732 2.805947 1.776243 2.904844 2.273628 1.123381 1.865641 2.683517 2.943889 2.908371 2.197318 1.991995 0.965880 0.732319 0.185830 1.663359 2.316500 3.272542 3.153604 0.666146 -0.017999 -0.103260 -0.008799 1.010688 2.374288 2.528498 2.640847 2.142691 0.819381 0.808616 -0.253172 -1.261865 0.087287 1.539701 2.524925 1.807757 0.464472 -0.402432 -0.848750 -0.085181 0.305785 -0.183040 -0.532493 -0.033666 0.069226 0.125744 -0.552685 -0.288090 -0.894335 -0.901888 -2.106015 -3.719077 -3.072151 -0.955542 -0.116453 -0.144078 -1.474702 -1.619924 -2.554685 -3.373482 -2.751607 -1.196763 -0.264512 -0.624153 0.482081 0.930545 -0.205926 -0.036884 -0.685839 -0.479470 -0.368369 1.676989 2.834923 1.998118 1.314944 -0.006658 0.060422 0.339058 0.385772 2.844978 2.602090 2.528586 1.283532 0.168016 1.298400 1.687963 2.125327 3.330152 3.489957 2.438943 2.737840 4.662810 4.422108 4.983077 6.117757 4.988709 4.756285 4.161601 4.914414 6.310717 5.623625 5.058123 5.202477 5.615004 4.306468 3.832588 5.150412 5.683420 5.402994 5.401296 6.005489 5.191043 4.127462 4.610499 5.741472 5.610776 6.557379 8.379389 7.544875 5.685702 4.958668 3.846549 4.962221 4.318777 4.865377 5.649581 5.543564 5.180176 4.236619 3.927227 4.520955 3.216789 3.181085 2.238740 1.967677 1.968582 4.373686 4.362543 5.336926 3.733365 2.472510 2.197448 1.275950 1.796914 2.514415 -0.293734 1.534810 2.616774 3.020956 2.907751 2.027148 0.735073 0.254173 0.008171 0.062417 0.255448 2.102998 2.741405 2.682934 2.388506 1.754835 0.411455 -0.997022 -0.779184 0.179480 1.539168 2.146078 2.272556 0.443663 0.244670 -0.066237 -1.962305 -1.062703 1.359068 0.951203 1.388716 1.418533 1.124013 -0.821553 0.213751 -0.292867 -0.365918 0.289371 1.519481 2.459520 0.924628 -0.442930 -0.519656 -1.114888 0.492457 1.844148 2.593010 1.606442 -0.174803 -1.077139 -0.813170 0.823633 0.345257 0.576605 1.200423 1.882794 -0.075898 -0.285832 -0.567225 -1.367367 -0.575866 -1.075187 -0.922932 0.536973 0.396327 0.380593 -1.555405 -1.305516 -1.609983 -0.965009 -0.633873 -0.563877 -0.344427 -1.071953 -2.058671 -2.985239 -2.255360 -0.607504 -0.942615 -0.479311 -1.124834 -1.290563 -2.400792 -3.221045 -1.447879 -1.103693 -1.482843 -1.880548 -2.589926 -3.984980 -3.663979 -4.302046 -3.375902 -2.890307 -3.399773 -3.729742 -5.158217 -6.444811 -4.491859 -4.897758 -3.853833 -3.434193 -3.927176 -2.863268 -4.498189 -4.711310 -5.415346 -5.619107 -6.139247 -6.491443 -5.922334 -5.318368 -6.610538 -5.685416 -6.634453 -7.425316 -7.133815 -6.779740 -7.099112 -8.284618 -8.426354 -6.658110 -7.294691 -6.874657 -5.601261 -6.145560 -6.190037 -7.960091 -7.434815 -7.957021 -9.322028 -9.559136 -7.318841 -6.136303 -6.330461 -7.580512 -7.764198 -9.561766 -10.673667 -10.570063 -8.221864 -8.787564 -8.207213 -7.986633 -7.166524 -7.668972 -8.734390 -9.014019 -8.514255 -8.766125 -8.334891 -8.511560 -8.188611 -8.095776 -7.422487 -7.095586 -7.829957 -8.345672 -9.313697 -8.313156 -9.046899 -9.637294 -7.481509 -6.842138 -8.368228 -7.630707 -8.152680 -7.782657 -9.607842 -8.485321 -7.837067 -7.496405 -7.055649 -7.232324 -7.423746 -7.488013 -6.830299 -5.962071 -5.902339 -4.532228 -4.811732 -3.735668 -3.762866 -5.764444 -3.621650 -4.265852 -3.024812 -2.488650 -2.431617 -1.238391 -2.248746 -4.127373 -3.272686 -4.079393 -4.340277 -3.368323 -3.036378 -2.231886 -2.616152 -4.396328 -3.914976 -3.975162 -4.101953 -3.803872 -3.780048 -3.039805 -3.449832 -2.962516 -2.362925 -3.081001 -3.394944 -3.056916 -3.578636 -4.034229 -4.462973 -4.663957 -2.916460 -1.649745 -1.958476 -1.581050 -2.223384 -3.021294 -3.221644 -2.664576 -2.179159 -3.952083 -3.860712 -3.074477 -2.072226 -2.201046 -2.166474 -2.278418 -3.631835 -3.913362 -3.362742 -3.445267 -2.733530 -1.808460 -1.507964 -2.465755 -2.392908 -2.064874 -1.715893 -1.730357 -1.871249 -0.215286 -1.289708 -1.968398 -0.892926 -1.282023 -1.871308 -1.706580 -1.928888 -2.447084 -2.679079 -1.786491 -1.992290 -3.257362 -2.645542 -3.830760 -3.874487 -2.729178 -2.150357 -1.299884 -3.216893 -3.188677 -2.176086 -2.276710 -2.167666 -2.374600 -2.415989 -2.476318 -2.516147 -0.867929 -1.203861 -0.268574 -1.598625 -2.192920 -1.992332 -1.829140 -0.126527 -0.424171 -1.172923 -1.388790 -1.250016 -1.240670 -2.599864 -2.898264 -2.618628 -1.616232 -0.772999 -1.502951 -1.990906 -2.394916 -2.804130 -1.935459 -2.952178 -2.865657 -1.210653 -1.541159 -1.386181 0.001020 -0.508530 -0.842073 -2.281331 -2.773523 -2.005206 -1.528924 -0.863447 0.551273 -0.615034 -1.390575 -1.230023 -3.200029 -2.513420 -0.833229 -3.024014 -2.321715 -1.837883 -1.779438 -1.667393 -1.068938 -2.528095 -3.061224 -3.102326 -3.328357 -3.482779 -2.021653 -1.556513 -0.857237 -1.724517 -1.355534 -0.656131 -1.556025 -2.065515 -2.780085 -2.456097 -2.504764 -0.210229 0.864241 0.209695 -0.018470 -0.301459 -1.457206 -1.206252 -0.812903 1.097446 1.867496 0.666217 1.688157 1.445724 0.853284 0.339415 1.609139 3.766472 3.087826 2.200012 2.088424 2.148395 1.799392 1.705738 1.898531 2.550112 3.970134 2.712519 2.271130 2.109757 1.522202 0.208863 0.353919 1.886362 4.476750 3.019348 3.220634 1.847174 1.172196 0.836612 2.187143 3.100710 3.713750 3.066677 3.695209 3.326411 1.512703 0.954126 1.951390 3.477790 4.569286 4.254033 4.144966 3.693960 2.249579 2.354787 2.462244 1.658219 1.305812 2.875799 3.399677 3.782873 2.975139 2.507648 2.513721 1.086573 1.151557 1.547508 2.745308 1.949108 1.913981 2.736335 3.647936 2.407909 2.872116 1.703537 1.676745 -0.027363 2.128069 3.133764 3.337414 2.268043 2.127401 2.619831 2.320697 1.988609 1.600435 1.175203 2.265785 1.284430 1.654905 2.316451 1.283057 1.226852 -0.901821 -0.740082 1.080838 1.806296 2.799311 2.326140 0.498518 0.577692 0.914645 1.901761 2.716872 3.845105 4.101196 3.497701 3.133544 2.371371 4.173722 4.331674 5.607566 4.978273 4.637763 5.046817 5.316515 6.364428 6.490153 5.891289 6.825778 4.609560 3.239853 4.237860 4.014360 3.865919 5.377583 6.055926 6.295099 4.874376 4.536741 2.595676 2.527469 3.298091 4.321562 4.306689 4.526130 5.248633 3.228246 2.403121 3.008611 2.352572 1.298962 2.000713 1.658123 3.491730 2.182648 2.577612 2.556856 0.181229 0.484471 1.429385 0.804916 0.409887 0.565518 0.757841 1.650529 1.717612 0.882849 0.779318 -0.043855 -1.121259 -1.579935 -0.699014 -0.800977 -0.013255 0.030189 0.731036 1.060726 -1.066004 -1.323528 -0.784029 -1.381493 -2.307619 -1.785001 -1.478575 -0.337549 -0.451785 -0.222613 -1.951758 -3.708749 -5.080913 -2.870574 -2.455092 -1.382645 -1.257821 -0.428222 -2.103261 -2.725275 -2.537428 -3.216589 -3.144170 -2.443400 -2.278569 -1.393801 -2.358589 -2.150298 -2.161989 -3.217560 -2.503013 -2.831746 -3.026010 -2.836800 -2.944903 -2.118809 -1.911865 -2.760221 -1.557814 -1.356831 -1.992596 -2.095136 -1.964146 -3.886820 -3.955810 -3.034783 -0.992856 -1.885703 -1.224178 -1.751540 -1.118201 -2.491222 -2.963661 -4.897035 -3.330927 -3.649377 -1.889892 -0.744592 -0.284476 -2.012996 -4.107688 -3.749160 -3.803236 -4.155266 -3.425984 -2.573343 -2.709892 -1.003930 -1.291430 -1.938500 -2.061403 -3.800919 -4.454418 -3.908926 -2.852339 -1.371136 -0.679501 -0.774820 -0.976547 -2.456247 -2.615239 -2.350837 -2.519730 -2.348170 -0.703886 -0.285056 -1.128022 -2.278366 -2.656001 -2.919228 -2.299539 -0.946417 -0.244165 -0.487988 -1.565855 -1.398083 -1.730570 -1.037932 -1.014919 0.365237 2.182822 3.422625 2.168741 1.274259 2.889062 2.504251 2.238762 3.315292 3.742046 2.067161 1.901554 2.869619 3.488763 3.047171 1.737538 3.053432 3.573667 4.028204 2.754252 2.957133 4.326895 3.378472 4.305504 4.389236 3.663341 4.824637 5.101117 4.024126 3.934929 2.139716 2.273865 2.937849 4.280803 4.783393 3.866899 1.487966 2.117946 2.391468 0.721462 -1.107725 2.070439 2.803456 1.717665 3.025228 1.688519 -0.105757 -0.497222 -0.118561 -0.015892 -1.546368 -0.216512 0.492045 1.225763 1.150273 0.921054 0.452071 -0.430913 -1.470583 -1.565260 -0.968330 -1.254864 -2.506433 -2.147317 -1.423982 -0.993424 -3.084998 -2.491521 -3.525366 -3.719352 -3.429790 -3.528521 -2.448341 -1.092573 -1.374695 -0.376638 -1.681715 -2.205876 -3.679213 -4.014081 -2.079045 -2.694155 -1.023086 -1.012133 -1.867577 -2.275071 -1.621579 -2.831083 -3.650891 -3.916577 -2.871346 -2.921372 -3.395716 -2.899645 -2.208731 -1.091828 -2.045242 -2.160645 -1.415555 -1.319702 -3.521181 -2.799862 -2.340296 -0.263970 -1.184131 -0.452570 -0.378201 -2.304093 -3.398713 -1.321263 0.139839 0.093384 1.317331 0.338728 1.635296 1.556110 0.381960 0.918452 0.745858 -0.581673 -0.438471 -0.393317 1.858251 1.601493 1.191124 0.383560 0.530148 -0.380724 -0.193939 0.150175 2.077279 2.233991 1.620472 2.009012 3.056695 1.528145 2.094861 2.692639 3.635182 2.299247 2.809886 3.772899 3.304562 2.060567 2.227668 2.717693 2.146301 2.644720 1.582009 1.810502 1.551736 1.567905 2.282992 2.078034 0.728169 1.310932 1.996928 0.081854 1.143247 1.528949 3.045297 3.335706 1.355415 0.454190 0.391008 -0.040128 1.314754 1.165327 2.458928 0.175228 -0.231218 1.448490 2.175417 0.549242 -0.226283 -0.940389 -1.005387 0.422296 1.437105 1.589662 1.233815 0.021259 0.299514 0.821997 1.911111 0.913488 -0.312534 -0.061209 1.793944 1.408994 1.638395 1.502158 2.075522 1.145085 0.406477 -0.452892 1.059189 1.326193 1.584737 1.572525 1.522014 1.794231 2.951130 0.930930 1.267737 0.635956 1.134081 2.282499 3.034175 2.779448 2.024844 1.996104 1.597170 -0.143395 -1.294349 0.160704 1.243608 1.650759 2.398681 1.606541 -0.064825 0.333660 1.641819 1.527610 4.093247 8.988980 10.349061 9.654647 9.629772 6.376289 7.333893 8.765092 11.487565 12.559784 14.250838 13.163257 12.033185 9.743818 8.114129 7.671195 9.015232 10.139138 8.827035 9.384211 6.713317 3.804214 3.789626 4.231468 3.346348 3.343722 4.351359 2.920381 1.984759 1.681363 0.046059 0.978058 -0.000706 0.259445 2.085128 4.064714 5.970174 3.614332 3.033765 2.455525 3.225056 1.664122 2.575273 4.083290 3.132773 3.688811 3.466394 2.859260 2.731181 1.914516 2.515664 3.069801 1.368591 3.341205 3.857792 2.374656 1.874544 1.671833 0.719611 2.247754 0.324085 0.732818 1.203443 3.672783 1.217175 1.478290 0.882634 0.454763 0.697650 -0.032603 -0.555743 -0.611888 0.472600 1.008405 2.062488 1.147010 0.198108 -2.066152 -0.796590 -0.317947 -2.722650 -0.798625 -0.270039 -1.092550 0.144177 1.116784 1.401291 0.223895 -0.654353 -0.316132 1.488511 -0.949153 0.108657 0.048045 -0.618392 -0.405477 -1.627574 -2.408874 -2.351322 -4.428987 -4.743097 -4.215713 -3.527667 -6.158786 -6.081193 -6.333200 -6.120142 -4.069022 -3.828921 -4.076701 -4.138562 -3.827933 -3.072833 -1.772554 -0.624996 0.163815 -0.619366 -0.789922 -0.755822 -0.358873 -2.368908 -3.079233 -2.687885 -2.397646 -2.424728 -2.631232 -3.110474 -1.863685 -3.722996 -4.336498 -3.144464 -2.405534 -2.075966 -2.680991 -1.856612 -3.439979 -3.483626 -2.686544 -0.450004 -0.507365 0.904606 0.262587 -1.039612 -1.948396 -0.916318 0.448280 0.595137 0.193389 -0.771444 -2.084907 -1.183608 -0.471291 -2.279478 -1.805131 -4.088967 -3.341352 -3.900588 -3.243314 -3.847200 -4.944509 -5.204427 -5.557541 -6.029485 -5.181570 -5.075357 -5.696821 -5.523629 -6.237462 -7.012039 -6.788578 -6.518892 -6.250255 -6.354622 -7.316730 -7.619667 -7.171604 -8.329085 -8.669608 -8.992609 -10.480096 -11.185769 -10.843448 -9.851932 -9.544029 -9.910556 -10.195490 -11.111144 -13.667252 -12.309609 -11.450449 -11.500216 -12.005917 -13.173316 -13.006024 -13.755339 -12.527901 -13.231721 -12.977636 -14.692632 -14.403015 -14.438180 -14.060283 -14.205083 -13.410241 -14.921975 -14.602783 -14.838028 -15.132796 -14.732501 -14.524403 -13.748049 -13.413667 -13.570132 -12.796363 -13.173535 -13.337566 -12.487778 -12.018617 -10.985705 -10.658034 -10.523394 -11.162977 -10.772635 -10.385914 -10.648172 -10.170106 -9.145760 -9.476375 -10.417648 -9.554480 -9.586221 -8.899535 -8.807308 -9.179524 -8.811405 -7.976070 -7.552509 -7.157555 -7.278542 -7.819175 -6.669839 -6.800201 -6.540902 -6.606724 -7.220337 -6.202519 -6.998145 -6.028637 -4.872459 -6.465297 -6.069886 -5.725977 -6.105574 -5.516757 -6.778384 -6.980705 -6.541867 -6.450414 -6.149076 -6.302097 -6.575697 -5.904656 -5.837918 -6.964877 -6.723858 -5.927826 -6.737335 -5.834194 -5.496731 -6.496695 -6.650806 -5.359238 -7.129175 -8.002647 -7.330073 -6.988312 -7.240550 -7.663519 -7.594327 -8.349506 -9.180140 -9.795685 -7.795542 -7.952523 -7.244340 -7.440254 -7.988103 -7.870529 -8.749397 -10.344900 -7.975553 -7.030558 -7.790040 -8.110028 -7.012637 -6.368988 -8.351651 -8.584642 -7.303000 -7.434175 -7.106127 -7.325932 -7.382325 -7.776252 -8.049191 -7.850693 -6.404196 -5.395491 -7.481640 -7.455677 -7.292288 -7.333492 -5.604322 -5.951183 -4.723191 -5.987449 -6.001609 -5.655365 -5.869999 -5.559040 -4.242050 -4.113546 -3.228168 -2.639412 -4.022169 -4.748520 -4.978711 -3.653451 -1.805752 -1.764742 -1.964805 -3.044172 -3.029752 -1.939218 -1.796785 -1.084790 -2.040576 -1.383313 -0.389493 -0.363990 -1.160755 -0.150765 2.189020 2.202051 1.670934 2.417813 1.791336 2.575310 3.320574 4.287213 4.380380 4.118056 3.491670 4.015217 5.389703 6.555973 6.611807 5.824913 4.957598 4.680490 4.894065 6.742422 8.247534 7.869167 6.578484 5.869917 6.482633 5.868176 6.977951 7.083778 8.920662 7.923297 7.510774 7.177240 6.863919 7.124826 5.941446 7.141518 6.748376 7.349239 6.155543 6.326549 5.419140 5.350093 4.226098 4.486331 5.338898 6.122210 5.194565 4.731358 3.165993 1.967667 2.152048 2.238403 2.905753 3.291167 4.454303 3.871603 2.470535 1.931352 1.690944 1.635842 1.535590 1.751782 2.966318 3.144579 3.472838 2.095195 1.357680 1.660567 1.619416 1.711211 1.434768 1.868190 1.890862 1.651537 0.965426 1.330306 1.253462 1.296875 1.146880 0.775017 0.424368 0.866445 1.224471 2.102327 1.024231 0.458943 0.065238 -0.456575 -0.545710 0.866522 0.928937 1.674768 0.291339 0.532717 -0.260286 -0.278877 -0.032400 -0.773925 -0.113727 0.991841 1.244412 1.018451 0.085517 0.356919 -2.050137 -2.310610 -1.042291 -0.156144 0.163257 0.045562 0.981230 -0.334591 -1.339899 -1.643072 -0.098902 -1.111227 -1.498063 -0.320195 0.508194 -0.030340 -1.045179 -1.843259 -1.795536 -3.170882 -2.542182 -2.037081 -1.979095 -1.246785 -0.556620 -1.512549 -1.782126 -2.394456 -2.734698 -4.163906 -3.533734 -1.427519 -1.003497 -0.227985 -1.251154 -2.329953 -2.523084 -2.716626 -2.075811 -1.014833 -2.083931 -1.678625 -1.209008 -1.057013 -0.847786 -0.418666 -1.622663 -1.696560 -2.061833 -1.862708 0.081821 1.233005 1.852398 -0.188797 -0.930690 -0.062982 -0.410860 -0.962303 0.426880 1.410892 2.547978 0.671796 -0.046214 0.253550 -0.365194 -0.956494 -0.607678 -0.564071 0.092547 1.023787 1.286456 0.772441 -0.639709 -0.373097 -0.693132 -0.983723 -0.387594 0.983088 1.943961 1.972699 2.278357 0.627466 0.652003 -0.127868 0.367942 2.131574 2.984467 3.251277 3.568984 2.097241 2.019753 1.714468 3.219226 3.452531 3.735631 3.750996 3.326560 3.971916 4.288458 5.535051 5.254151 4.560828 3.139602 3.636986 4.316117 6.194923 6.377627 6.800914 4.618240 3.697264 4.142632 5.896817 5.229512 4.151815 4.722035 4.982983 5.294352 6.036997 6.065922 4.908046 3.611369 4.162478 3.775705 4.603141 6.097076 5.911150 4.796009 3.706723 2.436647 2.017891 2.440722 2.798808 2.785428 2.550201 2.841085 2.728824 1.586852 0.645960 1.206363 -0.213346 0.370298 -0.325693 1.107389 1.585811 0.526788 0.181696 -1.180700 -2.351805 -2.495624 -2.327813 -2.082860 -1.937585 -2.736948 -2.136312 -3.486491 -1.895402 -2.234976 -3.910468 -4.765137 -5.774279 -5.549905 -4.993492 -3.046852 -2.859807 -3.972419 -5.807413 -6.691055 -7.086717 -6.465544 -5.591427 -4.855264 -5.346521 -4.773959 -6.059098 -5.875718 -5.749233 -6.678087 -5.757811 -4.726143 -3.363823 -4.378805 -5.451201 -5.885332 -6.300031 -5.511117 -3.214276 -1.652704 -3.594992 -4.598347 -5.946750 -4.405875 -4.948761 -4.688814 -3.173159 -2.622384 -2.700834 -3.854861 -4.666832 -4.857494 -5.977023 -4.219915 -1.766376 -1.608810 -2.388383 -2.778354 -4.412689 -4.455390 -4.469959 -2.757839 -2.754792 -3.433137 -3.394028 -2.313579 -3.255347 -4.282040 -3.179531 -4.105265 -4.090695 -4.577083 -5.111259 -4.627712 -4.137508 -2.977169 -3.056069 -4.119568 -4.284674 -4.945177 -5.595004 -5.423805 -4.520923 -3.086157 -2.470778 -2.601466 -3.559343 -4.715313 -4.709515 -4.769966 -3.926304 -3.503851 -3.091823 -2.544749 -2.938167 -4.195322 -4.257604 -4.226939 -4.417935 -4.811397 -3.593408 -3.341475 -3.483473 -4.289913 -5.022962 -4.924965 -6.350122 -5.217590 -4.513562 -4.034514 -3.263418 -4.443341 -5.754220 -5.477804 -4.773271 -4.310530 -4.318682 -5.200528 -4.469236 -4.253299 -3.903593 -2.868159 -3.923301 -5.499516 -5.923185 -6.114185 -4.494475 -3.458742 -2.073746 -2.731131 -3.836968 -5.146968 -5.385067 -6.138561 -5.428255 -4.163948 -3.119043 -3.056594 -3.699490 -5.629260 -6.286612 -5.572426 -5.730007 -6.078076 -6.131754 -6.125440 -5.286185 -4.637797 -3.984227 -3.996511 -5.441552 -6.912669 -6.668237 -5.675025 -5.444890 -5.062354 -4.341941 -3.468787 -4.060638 -4.718202 -5.727423 -6.715290 -7.403836 -6.188321 -5.714199 -3.574776 -4.488740 -5.363102 -6.048931 -5.886592 -6.752277 -7.450343 -6.258369 -5.951815 -5.963175 -5.754226 -5.138048 -5.981543 -6.218695 -6.029268 -7.163423 -7.103532 -7.756357 -5.845193 -5.051237 -4.298293 -3.383659 -5.001960 -6.531952 -7.242761 -7.386370 -6.690941 -4.883122 -4.337420 -3.941765 -5.094261 -6.050047 -6.681431 -7.472661 -7.352148 -6.758670 -6.727026 -5.339073 -4.322470 -4.998312 -5.265083 -6.747909 -7.775334 -7.793686 -6.548915 -3.935808 -4.057418 -4.639982 -5.939882 -6.550111 -7.327051 -6.718636 -5.703425 -4.813550 -4.250805 -4.019977 -4.430111 -4.498805 -4.648412 -5.120111 -5.032974 -5.099739 -4.985904 -2.854397 -2.679870 -3.011310 -3.852908 -5.333398 -5.779790 -5.978232 -4.420797 -4.562498 -3.771421 -2.811009 -1.682098 -3.085043 -5.234370 -4.493139 -4.436670 -4.556901 -3.369378 -2.205281 -1.482386 -3.395595 -3.514865 -3.736365 -3.750759 -5.017140 -5.460325 -3.581694 -3.396711 -1.908894 -1.397551 -2.295961 -2.976693 -4.556331 -4.549318 -2.291118 -1.422288 -0.819112 -1.060456 -2.026313 -2.217200 -2.942212 -2.702928 -2.667244 -3.326099 -1.900778 -1.322635 -1.102742 -1.812019 -2.608590 -4.287278 -3.821119 -2.431887 -1.546903 -1.833406 -1.482113 -2.320451 -3.284154 -3.853498 -3.520535 -1.626831 -2.418279 -1.301328 -1.466480 -2.649944 -3.016769 -4.071016 -3.898854 -3.587315 -3.757359 -3.144588 -1.561819 -2.234113 -2.441093 -4.407973 -6.023134 -5.088408 -5.475049 -4.172958 -4.153049 -3.709234 -3.075487 -4.079213 -4.739160 -4.500463 -5.321098 -6.142231 -5.541487 -4.558800 -4.082802 -4.462213 -4.612143 -5.398698 -5.254104 -6.616109 -6.706868 -6.112410 -6.899564 -6.958529 -6.743008 -5.252431 -5.394110 -7.135954 -7.282071 -8.306006 -8.320139 -7.596061 -7.233259 -6.232703 -6.380258 -6.394059 -6.460887 -7.462050 -7.344118 -8.471449 -7.936022 -7.701305 -7.045185 -6.093100 -6.600388 -6.364658 -7.108402 -7.937722 -9.169159 -8.795422 -7.436883 -6.072856 -5.697388 -5.734850 -8.195384 -9.101378 -9.514884 -9.610175 -7.843328 -5.794730 -5.516262 -5.983103 -7.622501 -7.841651 -8.931792 -9.250097 -7.369137 -7.418831 -5.912016 -5.881739 -5.419050 -6.102748 -6.937958 -7.745126 -8.813669 -7.520199 -7.091473 -6.120748 -5.225833 -4.604388 -5.199008 -7.461620 -7.424636 -6.811523 -7.391283 -5.730852 -5.385955 -4.429966 -5.047406 -6.161814 -5.395812 -7.304040 -6.731802 -6.637922 -6.278376 -5.178275 -5.444567 -5.164062 -5.605166 -5.518690 -7.183631 -7.246726 -6.863595 -6.015274 -4.537543 -4.936196 -4.505395 -5.453551 -6.056811 -6.601415 -6.935112 -4.726241 -3.717284 -4.960123 -4.914461 -5.869636 -7.336013 -7.834846 -6.876411 -4.782377 -4.996961 -5.253169 -5.188129 -6.431456 -7.211717 -7.411766 -7.456930 -6.315771 -4.803339 -5.189143 -5.511303 -6.797482 -6.964877 -7.888220 -7.936236 -4.933471 -4.587737 -5.852086 -6.191053 -7.476304 -7.353078 -7.259944 -6.936564 -5.765773 -6.080734 -5.857511 -5.962772 -7.459401 -7.170819 -7.179059 -8.070203 -6.827562 -6.910656 -6.320220 -6.482260 -6.497787 -5.622950 -6.573483 -7.985339 -7.464303 -6.235776 -5.188845 -5.444659 -5.023737 -6.657556 -7.910525 -7.112165 -6.463300 -6.253013 -7.340491 -6.791145 -6.198757 -6.317038 -6.501123 -6.476413 -8.543779 -8.141343 -8.909862 -7.561735 -6.822406 -6.469784 -5.699842 -6.314772 -7.292310 -8.220072 -9.280313 -8.713522 -7.660587 -6.430703 -4.981315 -6.861820 -6.865626 -6.903123 -8.767722 -9.278324 -7.341998 -6.210445 -4.667813 -5.813240 -6.468640 -7.615915 -8.035181 -7.399645 -7.226692 -6.296117 -6.455427 -6.646174 -6.384681 -6.323840 -5.988663 -7.126027 -7.415174 -6.825123 -6.752122 -5.510633 -4.551389 -2.986377 -2.644409 -2.382409 -3.108496 -2.616662 