10.53236024457827646472 6.99785196430313405358 6.99785196430313405358 8.76510610444070614733 8.76510610444070614733 8.76510610444070614733 10.53236024457827646472 6.99785196430313405358 8.76510610444070614733 10.53236024457827646472 6.99785196430313405358 5.23059782416556284801 6.99785196430313405358 8.76510610444070614733 6.99785196430313405358 8.76510610444070614733 6.99785196430313405358 8.76510610444070614733 1.69608954389042021482 3.46334368402799075426 5.23059782416556284801 6.99785196430313405358 8.76510610444070614733 5.23059782416556284801 5.23059782416556284801 3.46334368402799075426 -1.83841873638472197428 5.23059782416556284801 3.46334368402799075426 6.99785196430313405358 3.46334368402799075426 1.69608954389042021482 3.46334368402799075426 3.46334368402799075426 -0.07116459624715085197 -3.60567287652229317985 1.69608954389042021482 1.69608954389042021482 -0.07116459624715085197 3.46334368402799075426 -1.83841873638472197428 -0.07116459624715085197 -5.37292701665986438542 -3.60567287652229317985 -1.83841873638472197428 -1.83841873638472197428 -5.37292701665986438542 -5.37292701665986438542 -5.37292701665986438542 -3.60567287652229317985 -7.14018115679743470281 -5.37292701665986438542 -5.37292701665986438542 -5.37292701665986438542 -3.60567287652229317985 -3.60567287652229317985 -5.37292701665986438542 -7.14018115679743470281 -5.37292701665986438542 -3.60567287652229317985 -1.83841873638472197428 -1.83841873638472197428 -1.83841873638472197428 -1.83841873638472197428 -1.83841873638472197428 -1.83841873638472197428 -5.37292701665986438542 -1.83841873638472197428 -3.60567287652229317985 -1.83841873638472197428 -0.07116459624715085197 -3.60567287652229317985 -3.60567287652229317985 -5.37292701665986438542 -3.60567287652229317985 -5.37292701665986438542 -3.60567287652229317985 -1.83841873638472197428 -1.83841873638472197428 -0.07116459624715085197 -3.60567287652229317985 -1.83841873638472197428 -1.83841873638472197428 -5.37292701665986438542 -3.60567287652229317985 -3.60567287652229317985 -3.60567287652229317985 -0.07116459624715085197 -3.60567287652229317985 -5.37292701665986438542 -5.37292701665986438542 -5.37292701665986438542 -3.60567287652229317985 -1.83841873638472197428 -1.83841873638472197428 -1.83841873638472197428 -1.83841873638472197428 -3.60567287652229317985 -5.37292701665986438542 -3.60567287652229317985 -7.14018115679743470281 -1.83841873638472197428 -3.60567287652229317985 -0.07116459624715085197 -3.60567287652229317985 -5.37292701665986438542 -3.60567287652229317985 -5.37292701665986438542 -3.60567287652229317985 -5.37292701665986438542 -5.37292701665986438542 -3.60567287652229317985 -3.60567287652229317985 -0.07116459624715085197 -5.37292701665986438542 -7.14018115679743470281 -7.14018115679743470281 -5.37292701665986438542 -7.14018115679743470281 -7.14018115679743470281 -7.14018115679743470281 -7.14018115679743470281 -3.60567287652229317985 -8.90743529693500768474 -5.37292701665986438542 -7.14018115679743470281 -5.37292701665986438542 -12.44194357721014831952 -8.90743529693500768474 -3.60567287652229317985 -8.90743529693500768474 -10.67468943707257800213 -5.37292701665986438542 -7.14018115679743470281 -5.37292701665986438542 -8.90743529693500768474 -10.67468943707257800213 -12.44194357721014831952 -8.90743529693500768474 -8.90743529693500768474 -7.14018115679743470281 -5.37292701665986438542 -8.90743529693500768474 -7.14018115679743470281 -10.67468943707257800213 -12.44194357721014831952 -10.67468943707257800213 -12.44194357721014831952 -8.90743529693500768474 -8.90743529693500768474 -8.90743529693500768474 -10.67468943707257800213 -10.67468943707257800213 -10.67468943707257800213 -10.67468943707257800213 -10.67468943707257800213 -10.67468943707257800213 -10.67468943707257800213 -8.90743529693500768474 -8.90743529693500768474 -7.14018115679743470281 -8.90743529693500768474 -8.90743529693500768474 -7.14018115679743470281 -8.90743529693500768474 -7.14018115679743470281 -8.90743529693500768474 -10.67468943707257800213 -10.67468943707257800213 -7.14018115679743470281 -7.14018115679743470281 -7.14018115679743470281 -8.90743529693500768474 -8.90743529693500768474 -10.67468943707257800213 -10.67468943707257800213 -7.14018115679743470281 -8.90743529693500768474 -7.14018115679743470281 -7.14018115679743470281 -8.90743529693500768474 -7.14018115679743470281 -5.37292701665986438542 -5.37292701665986438542 -7.14018115679743470281 -5.37292701665986438542 -7.14018115679743470281 -7.14018115679743470281 -3.60567287652229317985 -5.37292701665986438542 -1.83841873638472197428 -5.37292701665986438542 -8.90743529693500768474 -3.60567287652229317985 -5.37292701665986438542 -0.07116459624715085197 1.69608954389042021482 -1.83841873638472197428 -0.07116459624715085197 -3.60567287652229317985 -3.60567287652229317985 -1.83841873638472197428 -3.60567287652229317985 -1.83841873638472197428 -0.07116459624715085197 -1.83841873638472197428 -1.83841873638472197428 -5.37292701665986438542 -1.83841873638472197428 -3.60567287652229317985 -5.37292701665986438542 -0.07116459624715085197 -0.07116459624715085197 -0.07116459624715085197 -0.07116459624715085197 -1.83841873638472197428 -1.83841873638472197428 -3.60567287652229317985 -3.60567287652229317985 -0.07116459624715085197 -3.60567287652229317985 -0.07116459624715085197 3.46334368402799075426 -0.07116459624715085197 1.69608954389042021482 -3.60567287652229317985 -0.07116459624715085197 -1.83841873638472197428 -1.83841873638472197428 1.69608954389042021482 -0.07116459624715085197 -0.07116459624715085197 1.69608954389042021482 -3.60567287652229317985 -1.83841873638472197428 1.69608954389042021482 -1.83841873638472197428 -3.60567287652229317985 -1.83841873638472197428 -1.83841873638472197428 -5.37292701665986438542 -0.07116459624715085197 -0.07116459624715085197 -1.83841873638472197428 -1.83841873638472197428 -0.07116459624715085197 -0.07116459624715085197 -3.60567287652229317985 -1.83841873638472197428 -3.60567287652229317985 -0.07116459624715085197 -1.83841873638472197428 -1.83841873638472197428 -3.60567287652229317985 -3.60567287652229317985 -1.83841873638472197428 -1.83841873638472197428 -1.83841873638472197428 -1.83841873638472197428 -1.83841873638472197428 -1.83841873638472197428 -3.60567287652229317985 -1.83841873638472197428 -5.37292701665986438542 -5.37292701665986438542 -1.83841873638472197428 -0.07116459624715085197 -0.07116459624715085197 -1.83841873638472197428 -1.83841873638472197428 -3.60567287652229317985 -1.83841873638472197428 -1.83841873638472197428 -1.83841873638472197428 -1.83841873638472197428 1.69608954389042021482 -0.07116459624715085197 -1.83841873638472197428 -0.07116459624715085197 -0.07116459624715085197 -1.83841873638472197428 -1.83841873638472197428 -3.60567287652229317985 -1.83841873638472197428 1.69608954389042021482 3.46334368402799075426 1.69608954389042021482 1.69608954389042021482 -0.07116459624715085197 -0.07116459624715085197 -0.07116459624715085197 -3.60567287652229317985 -5.37292701665986438542 -0.07116459624715085197 1.69608954389042021482 -0.07116459624715085197 1.69608954389042021482 1.69608954389042021482 1.69608954389042021482 1.69608954389042021482 -0.07116459624715085197 -0.07116459624715085197 -0.07116459624715085197 -0.07116459624715085197 -0.07116459624715085197 8.76510610444070614733 3.46334368402799075426 1.69608954389042021482 1.69608954389042021482 -0.07116459624715085197 -3.60567287652229317985 1.69608954389042021482 3.46334368402799075426 1.69608954389042021482 5.23059782416556284801 5.23059782416556284801 5.23059782416556284801 3.46334368402799075426 -0.07116459624715085197 -0.07116459624715085197 1.69608954389042021482 1.69608954389042021482 5.23059782416556284801 3.46334368402799075426 1.69608954389042021482 1.69608954389042021482 3.46334368402799075426 5.23059782416556284801 5.23059782416556284801 1.69608954389042021482 3.46334368402799075426 3.46334368402799075426 3.46334368402799075426 1.69608954389042021482 5.23059782416556284801 1.69608954389042021482 8.76510610444070614733 3.46334368402799075426 3.46334368402799075426 5.23059782416556284801 6.99785196430313405358 -0.07116459624715085197 1.69608954389042021482 5.23059782416556284801 6.99785196430313405358 3.46334368402799075426 6.99785196430313405358 5.23059782416556284801 5.23059782416556284801 6.99785196430313405358 6.99785196430313405358 5.23059782416556284801 8.76510610444070614733 3.46334368402799075426 6.99785196430313405358 5.23059782416556284801 6.99785196430313405358 5.23059782416556284801 3.46334368402799075426 8.76510610444070614733 5.23059782416556284801 5.23059782416556284801 3.46334368402799075426 3.46334368402799075426 5.23059782416556284801 5.23059782416556284801 8.76510610444070614733 6.99785196430313405358 6.99785196430313405358 6.99785196430313405358 3.46334368402799075426 5.23059782416556284801 3.46334368402799075426 6.99785196430313405358 10.53236024457827646472 5.23059782416556284801 6.99785196430313405358 6.99785196430313405358 12.29961438471584678211 5.23059782416556284801 5.23059782416556284801 1.69608954389042021482 3.46334368402799075426 8.76510610444070614733 6.99785196430313405358 6.99785196430313405358 6.99785196430313405358 5.23059782416556284801 6.99785196430313405358 3.46334368402799075426 6.99785196430313405358 6.99785196430313405358 5.23059782416556284801 6.99785196430313405358 8.76510610444070614733 5.23059782416556284801 8.76510610444070614733 8.76510610444070614733 8.76510610444070614733 8.76510610444070614733 6.99785196430313405358 6.99785196430313405358 6.99785196430313405358 6.99785196430313405358 8.76510610444070614733 6.99785196430313405358 6.99785196430313405358 5.23059782416556284801 6.99785196430313405358 8.76510610444070614733 6.99785196430313405358 8.76510610444070614733 5.23059782416556284801 5.23059782416556284801 5.23059782416556284801 3.46334368402799075426 6.99785196430313405358 8.76510610444070614733 6.99785196430313405358 10.53236024457827646472 6.99785196430313405358 6.99785196430313405358 6.99785196430313405358 6.99785196430313405358 8.76510610444070614733 8.76510610444070614733 10.53236024457827646472 5.23059782416556284801 5.23059782416556284801 5.23059782416556284801 5.23059782416556284801 5.23059782416556284801 1.69608954389042021482 3.46334368402799075426 3.46334368402799075426 -0.07116459624715085197 8.76510610444070614733 6.99785196430313405358 8.76510610444070614733 3.46334368402799075426 5.23059782416556284801 1.69608954389042021482 -0.07116459624715085197 5.23059782416556284801 3.46334368402799075426 1.69608954389042021482 3.46334368402799075426 3.46334368402799075426 1.69608954389042021482 5.23059782416556284801 5.23059782416556284801 8.76510610444070614733 6.99785196430313405358 3.46334368402799075426 1.69608954389042021482 3.46334368402799075426 8.76510610444070614733 5.23059782416556284801 3.46334368402799075426 1.69608954389042021482 1.69608954389042021482 -0.07116459624715085197 8.76510610444070614733 6.99785196430313405358 3.46334368402799075426 5.23059782416556284801 1.69608954389042021482 1.69608954389042021482 -0.07116459624715085197 -1.83841873638472197428 1.69608954389042021482 -3.60567287652229317985 -0.07116459624715085197 1.69608954389042021482 1.69608954389042021482 5.23059782416556284801 3.46334368402799075426 3.46334368402799075426 3.46334368402799075426 -0.07116459624715085197 1.69608954389042021482 -0.07116459624715085197 1.69608954389042021482 1.69608954389042021482 5.23059782416556284801 5.23059782416556284801 1.69608954389042021482 1.69608954389042021482 -0.07116459624715085197 3.46334368402799075426 5.23059782416556284801 5.23059782416556284801 1.69608954389042021482 3.46334368402799075426 1.69608954389042021482 -0.07116459624715085197 -1.83841873638472197428 3.46334368402799075426 1.69608954389042021482 1.69608954389042021482 -0.07116459624715085197 -0.07116459624715085197 1.69608954389042021482 -0.07116459624715085197 -0.07116459624715085197 3.46334368402799075426 -0.07116459624715085197 3.46334368402799075426 -0.07116459624715085197 -1.83841873638472197428 1.69608954389042021482 1.69608954389042021482 3.46334368402799075426 3.46334368402799075426 3.46334368402799075426 5.23059782416556284801 3.46334368402799075426 3.46334368402799075426 -0.07116459624715085197 5.23059782416556284801 6.99785196430313405358 5.23059782416556284801 1.69608954389042021482 3.46334368402799075426 -1.83841873638472197428 -1.83841873638472197428 -0.07116459624715085197 1.69608954389042021482 1.69608954389042021482 3.46334368402799075426 6.99785196430313405358 3.46334368402799075426 1.69608954389042021482 -3.60567287652229317985 -3.60567287652229317985 -3.60567287652229317985 -1.83841873638472197428 1.69608954389042021482 -0.07116459624715085197 -3.60567287652229317985 -3.60567287652229317985 -0.07116459624715085197 1.69608954389042021482 1.69608954389042021482 3.46334368402799075426 -1.83841873638472197428 -0.07116459624715085197 -3.60567287652229317985 -1.83841873638472197428 -5.37292701665986438542 -1.83841873638472197428 -1.83841873638472197428 -0.07116459624715085197 -1.83841873638472197428 -1.83841873638472197428 -0.07116459624715085197 -0.07116459624715085197 -1.83841873638472197428 -3.60567287652229317985 -0.07116459624715085197 3.46334368402799075426 -0.07116459624715085197 -1.83841873638472197428 5.23059782416556284801 1.69608954389042021482 -3.60567287652229317985 -0.07116459624715085197 -0.07116459624715085197 1.69608954389042021482 3.46334368402799075426 1.69608954389042021482 -0.07116459624715085197 -0.07116459624715085197 -0.07116459624715085197 -0.07116459624715085197 1.69608954389042021482 1.69608954389042021482 -1.83841873638472197428 -0.07116459624715085197 1.69608954389042021482 1.69608954389042021482 3.46334368402799075426 -3.60567287652229317985 1.69608954389042021482 3.46334368402799075426 3.46334368402799075426 1.69608954389042021482 3.46334368402799075426 -0.07116459624715085197 -3.60567287652229317985 -1.83841873638472197428 -1.83841873638472197428 1.69608954389042021482 -1.83841873638472197428 -1.83841873638472197428 -1.83841873638472197428 -0.07116459624715085197 -1.83841873638472197428 -0.07116459624715085197 1.69608954389042021482 -0.07116459624715085197 1.69608954389042021482 1.69608954389042021482 3.46334368402799075426 -1.83841873638472197428 3.46334368402799075426 1.69608954389042021482 -0.07116459624715085197 1.69608954389042021482 -0.07116459624715085197 -0.07116459624715085197 1.69608954389042021482 -1.83841873638472197428 -3.60567287652229317985 -3.60567287652229317985 3.46334368402799075426 3.46334368402799075426 -0.07116459624715085197 5.23059782416556284801 1.69608954389042021482 -0.07116459624715085197 -1.83841873638472197428 -0.07116459624715085197 -0.07116459624715085197 1.69608954389042021482 -0.07116459624715085197 1.69608954389042021482 -0.07116459624715085197 -0.07116459624715085197 -5.37292701665986438542 -0.07116459624715085197 1.69608954389042021482 3.46334368402799075426 3.46334368402799075426 3.46334368402799075426 -0.07116459624715085197 -0.07116459624715085197 -1.83841873638472197428 1.69608954389042021482 -0.07116459624715085197 3.46334368402799075426 3.46334368402799075426 -0.07116459624715085197 -1.83841873638472197428 -1.83841873638472197428 -0.07116459624715085197 -0.07116459624715085197 -0.07116459624715085197 1.69608954389042021482 -1.83841873638472197428 1.69608954389042021482 -0.07116459624715085197 -3.60567287652229317985 -0.07116459624715085197 -0.07116459624715085197 1.69608954389042021482 5.23059782416556284801 -0.07116459624715085197 5.23059782416556284801 1.69608954389042021482 3.46334368402799075426 1.69608954389042021482 5.23059782416556284801 3.46334368402799075426 5.23059782416556284801 1.69608954389042021482 3.46334368402799075426 3.46334368402799075426 -0.07116459624715085197 5.23059782416556284801 8.76510610444070614733 8.76510610444070614733 6.99785196430313405358 8.76510610444070614733 6.99785196430313405358 3.46334368402799075426 5.23059782416556284801 3.46334368402799075426 8.76510610444070614733 5.23059782416556284801 5.23059782416556284801 1.69608954389042021482 6.99785196430313405358 5.23059782416556284801 6.99785196430313405358 8.76510610444070614733 6.99785196430313405358 3.46334368402799075426 8.76510610444070614733 5.23059782416556284801 5.23059782416556284801 8.76510610444070614733 5.23059782416556284801 5.23059782416556284801 6.99785196430313405358 5.23059782416556284801 5.23059782416556284801 1.69608954389042021482 5.23059782416556284801 5.23059782416556284801 5.23059782416556284801 8.76510610444070614733 5.23059782416556284801 5.23059782416556284801 5.23059782416556284801 5.23059782416556284801 6.99785196430313405358 6.99785196430313405358 5.23059782416556284801 3.46334368402799075426 1.69608954389042021482 1.69608954389042021482 5.23059782416556284801 6.99785196430313405358 5.23059782416556284801 5.23059782416556284801 1.69608954389042021482 3.46334368402799075426 5.23059782416556284801 5.23059782416556284801 6.99785196430313405358 5.23059782416556284801 3.46334368402799075426 3.46334368402799075426 3.46334368402799075426 -0.07116459624715085197 5.23059782416556284801 5.23059782416556284801 5.23059782416556284801 5.23059782416556284801 -0.07116459624715085197 3.46334368402799075426 5.23059782416556284801 5.23059782416556284801 5.23059782416556284801 6.99785196430313405358 3.46334368402799075426 1.69608954389042021482 3.46334368402799075426 -1.83841873638472197428 -0.07116459624715085197 1.69608954389042021482 3.46334368402799075426 1.69608954389042021482 1.69608954389042021482 -0.07116459624715085197 -1.83841873638472197428 1.69608954389042021482 -1.83841873638472197428 1.69608954389042021482 -0.07116459624715085197 3.46334368402799075426 1.69608954389042021482 -0.07116459624715085197 -1.83841873638472197428 1.69608954389042021482 -0.07116459624715085197 -1.83841873638472197428 -0.07116459624715085197 1.69608954389042021482 -3.60567287652229317985 -3.60567287652229317985 -5.37292701665986438542 -0.07116459624715085197 -1.83841873638472197428 -0.07116459624715085197 -0.07116459624715085197 -0.07116459624715085197 -3.60567287652229317985 -5.37292701665986438542 -1.83841873638472197428 3.46334368402799075426 -1.83841873638472197428 -0.07116459624715085197 -1.83841873638472197428 -0.07116459624715085197 -5.37292701665986438542 -0.07116459624715085197 -3.60567287652229317985 -1.83841873638472197428 -1.83841873638472197428 -1.83841873638472197428 -3.60567287652229317985 -1.83841873638472197428 -1.83841873638472197428 -3.60567287652229317985 -1.83841873638472197428 -0.07116459624715085197 -0.07116459624715085197 5.23059782416556284801 1.69608954389042021482 1.69608954389042021482 -0.07116459624715085197 -3.60567287652229317985 -1.83841873638472197428 1.69608954389042021482 -0.07116459624715085197 1.69608954389042021482 -0.07116459624715085197 -0.07116459624715085197 3.46334368402799075426 3.46334368402799075426 1.69608954389042021482 5.23059782416556284801 3.46334368402799075426 1.69608954389042021482 -0.07116459624715085197 5.23059782416556284801 1.69608954389042021482 3.46334368402799075426 1.69608954389042021482 -0.07116459624715085197 -1.83841873638472197428 -0.07116459624715085197 3.46334368402799075426 1.69608954389042021482 -1.83841873638472197428 -1.83841873638472197428 -1.83841873638472197428 -3.60567287652229317985 -0.07116459624715085197 3.46334368402799075426 5.23059782416556284801 1.69608954389042021482 5.23059782416556284801 3.46334368402799075426 -0.07116459624715085197 -1.83841873638472197428 -0.07116459624715085197 -5.37292701665986438542 1.69608954389042021482 -0.07116459624715085197 3.46334368402799075426 5.23059782416556284801 -0.07116459624715085197 -1.83841873638472197428 -1.83841873638472197428 -3.60567287652229317985 -3.60567287652229317985 -1.83841873638472197428 3.46334368402799075426 1.69608954389042021482 3.46334368402799075426 -0.07116459624715085197 1.69608954389042021482 -0.07116459624715085197 -1.83841873638472197428 3.46334368402799075426 -1.83841873638472197428 3.46334368402799075426 -1.83841873638472197428 3.46334368402799075426 -1.83841873638472197428 -0.07116459624715085197 -0.07116459624715085197 3.46334368402799075426 6.99785196430313405358 5.23059782416556284801 3.46334368402799075426 1.69608954389042021482 -0.07116459624715085197 1.69608954389042021482 3.46334368402799075426 -1.83841873638472197428 -1.83841873638472197428 5.23059782416556284801 1.69608954389042021482 1.69608954389042021482 5.23059782416556284801 1.69608954389042021482 -0.07116459624715085197 5.23059782416556284801 3.46334368402799075426 3.46334368402799075426 6.99785196430313405358 8.76510610444070614733 1.69608954389042021482 8.76510610444070614733 6.99785196430313405358 3.46334368402799075426 6.99785196430313405358 3.46334368402799075426 5.23059782416556284801 5.23059782416556284801 5.23059782416556284801 6.99785196430313405358 6.99785196430313405358 6.99785196430313405358 1.69608954389042021482 1.69608954389042021482 1.69608954389042021482 6.99785196430313405358 8.76510610444070614733 6.99785196430313405358 8.76510610444070614733 5.23059782416556284801 5.23059782416556284801 3.46334368402799075426 8.76510610444070614733 3.46334368402799075426 10.53236024457827646472 10.53236024457827646472 6.99785196430313405358 10.53236024457827646472 12.29961438471584678211 10.53236024457827646472 5.23059782416556284801 10.53236024457827646472 10.53236024457827646472 10.53236024457827646472 14.06686852485341887586 14.06686852485341887586 12.29961438471584678211 14.06686852485341887586 8.76510610444070614733 6.99785196430313405358 10.53236024457827646472 6.99785196430313405358 8.76510610444070614733 10.53236024457827646472 10.53236024457827646472 8.76510610444070614733 6.99785196430313405358 5.23059782416556284801 5.23059782416556284801 6.99785196430313405358 8.76510610444070614733 12.29961438471584678211 12.29961438471584678211 10.53236024457827646472 10.53236024457827646472 6.99785196430313405358 5.23059782416556284801 8.76510610444070614733 8.76510610444070614733 10.53236024457827646472 10.53236024457827646472 6.99785196430313405358 6.99785196430313405358 8.76510610444070614733 6.99785196430313405358 3.46334368402799075426 10.53236024457827646472 10.53236024457827646472 10.53236024457827646472 6.99785196430313405358 6.99785196430313405358 8.76510610444070614733 3.46334368402799075426 3.46334368402799075426 5.23059782416556284801 8.76510610444070614733 10.53236024457827646472 3.46334368402799075426 6.99785196430313405358 5.23059782416556284801 5.23059782416556284801 3.46334368402799075426 5.23059782416556284801 6.99785196430313405358 10.53236024457827646472 8.76510610444070614733 8.76510610444070614733 6.99785196430313405358 8.76510610444070614733 3.46334368402799075426 8.76510610444070614733 8.76510610444070614733 10.53236024457827646472 15.83412266499099096961 8.76510610444070614733 6.99785196430313405358 6.99785196430313405358 8.76510610444070614733 8.76510610444070614733 12.29961438471584678211 10.53236024457827646472 12.29961438471584678211 12.29961438471584678211 6.99785196430313405358 10.53236024457827646472 8.76510610444070614733 8.76510610444070614733 6.99785196430313405358 12.29961438471584678211 10.53236024457827646472 8.76510610444070614733 8.76510610444070614733 8.76510610444070614733 6.99785196430313405358 12.29961438471584678211 10.53236024457827646472 8.76510610444070614733 12.29961438471584678211 10.53236024457827646472 10.53236024457827646472 3.46334368402799075426 6.99785196430313405358 8.76510610444070614733 10.53236024457827646472 12.29961438471584678211 8.76510610444070614733 12.29961438471584678211 3.46334368402799075426 12.29961438471584678211 10.53236024457827646472 10.53236024457827646472 10.53236024457827646472 12.29961438471584678211 10.53236024457827646472 8.76510610444070614733 10.53236024457827646472 6.99785196430313405358 6.99785196430313405358 6.99785196430313405358 8.76510610444070614733 10.53236024457827646472 3.46334368402799075426 6.99785196430313405358 6.99785196430313405358 6.99785196430313405358 3.46334368402799075426 6.99785196430313405358 6.99785196430313405358 6.99785196430313405358 8.76510610444070614733 5.23059782416556284801 6.99785196430313405358 5.23059782416556284801 3.46334368402799075426 1.69608954389042021482 -0.07116459624715085197 3.46334368402799075426 1.69608954389042021482 5.23059782416556284801 5.23059782416556284801 8.76510610444070614733 6.99785196430313405358 5.23059782416556284801 5.23059782416556284801 -0.07116459624715085197 5.23059782416556284801 5.23059782416556284801 12.29961438471584678211 8.76510610444070614733 6.99785196430313405358 6.99785196430313405358 5.23059782416556284801 1.69608954389042021482 3.46334368402799075426 5.23059782416556284801 8.76510610444070614733 6.99785196430313405358 10.53236024457827646472 3.46334368402799075426 6.99785196430313405358 6.99785196430313405358 3.46334368402799075426 6.99785196430313405358 8.76510610444070614733 6.99785196430313405358 8.76510610444070614733 6.99785196430313405358 6.99785196430313405358 1.69608954389042021482 5.23059782416556284801 5.23059782416556284801 6.99785196430313405358 6.99785196430313405358 6.99785196430313405358 6.99785196430313405358 5.23059782416556284801 5.23059782416556284801 3.46334368402799075426 3.46334368402799075426 6.99785196430313405358 6.99785196430313405358 6.99785196430313405358 12.29961438471584678211 3.46334368402799075426 6.99785196430313405358 3.46334368402799075426 5.23059782416556284801 3.46334368402799075426 5.23059782416556284801 6.99785196430313405358 3.46334368402799075426 5.23059782416556284801 1.69608954389042021482 3.46334368402799075426 3.46334368402799075426 3.46334368402799075426 5.23059782416556284801 6.99785196430313405358 3.46334368402799075426 6.99785196430313405358 3.46334368402799075426 5.23059782416556284801 1.69608954389042021482 3.46334368402799075426 3.46334368402799075426 5.23059782416556284801 6.99785196430313405358 5.23059782416556284801 3.46334368402799075426 5.23059782416556284801 1.69608954389042021482 6.99785196430313405358 5.23059782416556284801 10.53236024457827646472 6.99785196430313405358 5.23059782416556284801 5.23059782416556284801 6.99785196430313405358 3.46334368402799075426 1.69608954389042021482 5.23059782416556284801 6.99785196430313405358 3.46334368402799075426 5.23059782416556284801 1.69608954389042021482 6.99785196430313405358 6.99785196430313405358 3.46334368402799075426 5.23059782416556284801 6.99785196430313405358 3.46334368402799075426 3.46334368402799075426 5.23059782416556284801 6.99785196430313405358 10.53236024457827646472 5.23059782416556284801 6.99785196430313405358 3.46334368402799075426 5.23059782416556284801 3.46334368402799075426 8.76510610444070614733 1.69608954389042021482 5.23059782416556284801 5.23059782416556284801 1.69608954389042021482 3.46334368402799075426 8.76510610444070614733 5.23059782416556284801 10.53236024457827646472 5.23059782416556284801 3.46334368402799075426 3.46334368402799075426 3.46334368402799075426 3.46334368402799075426 5.23059782416556284801 6.99785196430313405358 5.23059782416556284801 6.99785196430313405358 6.99785196430313405358 8.76510610444070614733 10.53236024457827646472 10.53236024457827646472 1.69608954389042021482 1.69608954389042021482 3.46334368402799075426 1.69608954389042021482 5.23059782416556284801 5.23059782416556284801 5.23059782416556284801 3.46334368402799075426 1.69608954389042021482 5.23059782416556284801 -0.07116459624715085197 5.23059782416556284801 3.46334368402799075426 5.23059782416556284801 3.46334368402799075426 1.69608954389042021482 1.69608954389042021482 3.46334368402799075426 5.23059782416556284801 3.46334368402799075426 5.23059782416556284801 6.99785196430313405358 3.46334368402799075426 12.29961438471584678211 5.23059782416556284801 6.99785196430313405358 6.99785196430313405358 3.46334368402799075426 5.23059782416556284801 6.99785196430313405358 5.23059782416556284801 8.76510610444070614733 6.99785196430313405358 5.23059782416556284801 3.46334368402799075426 8.76510610444070614733 6.99785196430313405358 3.46334368402799075426 5.23059782416556284801 3.46334368402799075426 3.46334368402799075426 6.99785196430313405358 6.99785196430313405358 1.69608954389042021482 1.69608954389042021482 1.69608954389042021482 -0.07116459624715085197 1.69608954389042021482 1.69608954389042021482 -0.07116459624715085197 -1.83841873638472197428 -1.83841873638472197428 1.69608954389042021482 -1.83841873638472197428 -0.07116459624715085197 -1.83841873638472197428 -3.60567287652229317985 -3.60567287652229317985 -1.83841873638472197428 -0.07116459624715085197 1.69608954389042021482 -1.83841873638472197428 -5.37292701665986438542 -1.83841873638472197428 -3.60567287652229317985 -0.07116459624715085197 -0.07116459624715085197 -5.37292701665986438542 -5.37292701665986438542 3.46334368402799075426 1.69608954389042021482 -5.37292701665986438542 -5.37292701665986438542 -7.14018115679743470281 -3.60567287652229317985 -1.83841873638472197428 -3.60567287652229317985 -3.60567287652229317985 -3.60567287652229317985 -7.14018115679743470281 -0.07116459624715085197 -5.37292701665986438542 -3.60567287652229317985 -3.60567287652229317985 -5.37292701665986438542 -0.07116459624715085197 -3.60567287652229317985 -0.07116459624715085197 -5.37292701665986438542 -1.83841873638472197428 -5.37292701665986438542 -1.83841873638472197428 -0.07116459624715085197 -3.60567287652229317985 -3.60567287652229317985 -1.83841873638472197428 -0.07116459624715085197 -0.07116459624715085197 -1.83841873638472197428 -3.60567287652229317985 -5.37292701665986438542 -1.83841873638472197428 -3.60567287652229317985 -0.07116459624715085197 -3.60567287652229317985 -1.83841873638472197428 -5.37292701665986438542 -8.90743529693500768474 -1.83841873638472197428 -5.37292701665986438542 -7.14018115679743470281 -3.60567287652229317985 -5.37292701665986438542 -8.90743529693500768474 -7.14018115679743470281 -7.14018115679743470281 -7.14018115679743470281 -5.37292701665986438542 -5.37292701665986438542 -8.90743529693500768474 -10.67468943707257800213 -7.14018115679743470281 -8.90743529693500768474 -3.60567287652229317985 -8.90743529693500768474 -7.14018115679743470281 -10.67468943707257800213 -7.14018115679743470281 -10.67468943707257800213 -5.37292701665986438542 -5.37292701665986438542 -7.14018115679743470281 -8.90743529693500768474 -7.14018115679743470281 -3.60567287652229317985 -7.14018115679743470281 -5.37292701665986438542 -8.90743529693500768474 -7.14018115679743470281 -7.14018115679743470281 -5.37292701665986438542 -5.37292701665986438542 -3.60567287652229317985 -5.37292701665986438542 -7.14018115679743470281 -10.67468943707257800213 -5.37292701665986438542 -5.37292701665986438542 -3.60567287652229317985 -8.90743529693500768474 -5.37292701665986438542 -5.37292701665986438542 -3.60567287652229317985 -5.37292701665986438542 -7.14018115679743470281 -8.90743529693500768474 -5.37292701665986438542 -5.37292701665986438542 -0.07116459624715085197 -3.60567287652229317985 -5.37292701665986438542 -3.60567287652229317985 -3.60567287652229317985 -7.14018115679743470281 -1.83841873638472197428 1.69608954389042021482 -5.37292701665986438542 -5.37292701665986438542 -3.60567287652229317985 -1.83841873638472197428 -0.07116459624715085197 -3.60567287652229317985 -5.37292701665986438542 -5.37292701665986438542 -3.60567287652229317985 -1.83841873638472197428 -1.83841873638472197428 -0.07116459624715085197 -3.60567287652229317985 -3.60567287652229317985 -3.60567287652229317985 -5.37292701665986438542 -7.14018115679743470281 -8.90743529693500768474 -3.60567287652229317985 -5.37292701665986438542 -0.07116459624715085197 -3.60567287652229317985 -1.83841873638472197428 -5.37292701665986438542 -1.83841873638472197428 -3.60567287652229317985 -5.37292701665986438542 -0.07116459624715085197 -3.60567287652229317985 -1.83841873638472197428 1.69608954389042021482 -0.07116459624715085197 -1.83841873638472197428 -5.37292701665986438542 -0.07116459624715085197 -5.37292701665986438542 -1.83841873638472197428 -5.37292701665986438542 -1.83841873638472197428 1.69608954389042021482 1.69608954389042021482 -3.60567287652229317985 -1.83841873638472197428 -1.83841873638472197428 -3.60567287652229317985 -0.07116459624715085197 -0.07116459624715085197 -3.60567287652229317985 -0.07116459624715085197 -0.07116459624715085197 -1.83841873638472197428 -1.83841873638472197428 -0.07116459624715085197 1.69608954389042021482 -0.07116459624715085197 -0.07116459624715085197 3.46334368402799075426 -3.60567287652229317985 1.69608954389042021482 -1.83841873638472197428 -1.83841873638472197428 1.69608954389042021482 3.46334368402799075426 -0.07116459624715085197 -0.07116459624715085197 1.69608954389042021482 -1.83841873638472197428 -1.83841873638472197428 5.23059782416556284801 -0.07116459624715085197 -0.07116459624715085197 -0.07116459624715085197 -3.60567287652229317985 3.46334368402799075426 5.23059782416556284801 3.46334368402799075426 3.46334368402799075426 3.46334368402799075426 -0.07116459624715085197 -0.07116459624715085197 3.46334368402799075426 1.69608954389042021482 -0.07116459624715085197 5.23059782416556284801 -0.07116459624715085197 6.99785196430313405358 1.69608954389042021482 1.69608954389042021482 5.23059782416556284801 5.23059782416556284801 3.46334368402799075426 1.69608954389042021482 5.23059782416556284801 6.99785196430313405358 5.23059782416556284801 5.23059782416556284801 6.99785196430313405358 6.99785196430313405358 6.99785196430313405358 6.99785196430313405358 3.46334368402799075426 3.46334368402799075426 6.99785196430313405358 6.99785196430313405358 3.46334368402799075426 3.46334368402799075426 5.23059782416556284801 5.23059782416556284801 3.46334368402799075426 1.69608954389042021482 6.99785196430313405358 5.23059782416556284801 5.23059782416556284801 3.46334368402799075426 3.46334368402799075426 5.23059782416556284801 8.76510610444070614733 5.23059782416556284801 3.46334368402799075426 3.46334368402799075426 3.46334368402799075426 3.46334368402799075426 3.46334368402799075426 5.23059782416556284801 3.46334368402799075426 3.46334368402799075426 6.99785196430313405358 1.69608954389042021482 3.46334368402799075426 3.46334368402799075426 3.46334368402799075426 1.69608954389042021482 -0.07116459624715085197 -0.07116459624715085197 -0.07116459624715085197 1.69608954389042021482 -1.83841873638472197428 1.69608954389042021482 -3.60567287652229317985 -5.37292701665986438542 -1.83841873638472197428 1.69608954389042021482 3.46334368402799075426 3.46334368402799075426 -1.83841873638472197428 -0.07116459624715085197 -3.60567287652229317985 -3.60567287652229317985 -3.60567287652229317985 -1.83841873638472197428 -1.83841873638472197428 -1.83841873638472197428 -0.07116459624715085197 -1.83841873638472197428 -3.60567287652229317985 -3.60567287652229317985 -5.37292701665986438542 -5.37292701665986438542 -5.37292701665986438542 -3.60567287652229317985 -5.37292701665986438542 -3.60567287652229317985 -3.60567287652229317985 -3.60567287652229317985 -5.37292701665986438542 -5.37292701665986438542 -7.14018115679743470281 -7.14018115679743470281 -1.83841873638472197428 -3.60567287652229317985 -5.37292701665986438542 -5.37292701665986438542 -1.83841873638472197428 -7.14018115679743470281 -5.37292701665986438542 -5.37292701665986438542 -7.14018115679743470281 -5.37292701665986438542 -3.60567287652229317985 -5.37292701665986438542 -5.37292701665986438542 -3.60567287652229317985 -0.07116459624715085197 -5.37292701665986438542 -1.83841873638472197428 -1.83841873638472197428 -3.60567287652229317985 -1.83841873638472197428 -5.37292701665986438542 -5.37292701665986438542 -0.07116459624715085197 -1.83841873638472197428 -0.07116459624715085197 -1.83841873638472197428 -5.37292701665986438542 -3.60567287652229317985 -3.60567287652229317985 -5.37292701665986438542 -1.83841873638472197428 -3.60567287652229317985 -0.07116459624715085197 -1.83841873638472197428 -1.83841873638472197428 -5.37292701665986438542 -1.83841873638472197428 -3.60567287652229317985 -1.83841873638472197428 -0.07116459624715085197 -1.83841873638472197428 -1.83841873638472197428 -5.37292701665986438542 -1.83841873638472197428 -3.60567287652229317985 -1.83841873638472197428 -0.07116459624715085197 -1.83841873638472197428 -1.83841873638472197428 -1.83841873638472197428 -5.37292701665986438542 -1.83841873638472197428 -5.37292701665986438542 -5.37292701665986438542 -7.14018115679743470281 -3.60567287652229317985 -1.83841873638472197428 -0.07116459624715085197 -3.60567287652229317985 -3.60567287652229317985 -0.07116459624715085197 -3.60567287652229317985 -3.60567287652229317985 -1.83841873638472197428 -1.83841873638472197428 -0.07116459624715085197 -0.07116459624715085197 -1.83841873638472197428 -0.07116459624715085197 -0.07116459624715085197 -0.07116459624715085197 -1.83841873638472197428 1.69608954389042021482 -0.07116459624715085197 1.69608954389042021482 -1.83841873638472197428 -1.83841873638472197428 1.69608954389042021482 -0.07116459624715085197 -0.07116459624715085197 1.69608954389042021482 -0.07116459624715085197 1.69608954389042021482 -1.83841873638472197428 -1.83841873638472197428 -0.07116459624715085197 -1.83841873638472197428 -3.60567287652229317985 -0.07116459624715085197 -0.07116459624715085197 -0.07116459624715085197 -1.83841873638472197428 -0.07116459624715085197 1.69608954389042021482 -1.83841873638472197428 -0.07116459624715085197 -1.83841873638472197428 -0.07116459624715085197 -1.83841873638472197428 1.69608954389042021482 1.69608954389042021482 -0.07116459624715085197 -0.07116459624715085197 -1.83841873638472197428 -3.60567287652229317985 -1.83841873638472197428 -0.07116459624715085197 1.69608954389042021482 1.69608954389042021482 -3.60567287652229317985 3.46334368402799075426 -1.83841873638472197428 -0.07116459624715085197 -1.83841873638472197428 -0.07116459624715085197 -0.07116459624715085197 1.69608954389042021482 -0.07116459624715085197 -0.07116459624715085197 -1.83841873638472197428 5.23059782416556284801 -3.60567287652229317985 1.69608954389042021482 -1.83841873638472197428 -1.83841873638472197428 1.69608954389042021482 1.69608954389042021482 -0.07116459624715085197 1.69608954389042021482 -0.07116459624715085197 -3.60567287652229317985 -1.83841873638472197428 -0.07116459624715085197 -1.83841873638472197428 -0.07116459624715085197 5.23059782416556284801 -1.83841873638472197428 1.69608954389042021482 -1.83841873638472197428 1.69608954389042021482 -1.83841873638472197428 -0.07116459624715085197 3.46334368402799075426 5.23059782416556284801 5.23059782416556284801 3.46334368402799075426 -0.07116459624715085197 1.69608954389042021482 1.69608954389042021482 5.23059782416556284801 6.99785196430313405358 1.69608954389042021482 1.69608954389042021482 1.69608954389042021482 1.69608954389042021482 5.23059782416556284801 5.23059782416556284801 6.99785196430313405358 5.23059782416556284801 5.23059782416556284801 6.99785196430313405358 6.99785196430313405358 10.53236024457827646472 6.99785196430313405358 8.76510610444070614733 5.23059782416556284801 5.23059782416556284801 3.46334368402799075426 8.76510610444070614733 6.99785196430313405358 8.76510610444070614733 5.23059782416556284801 6.99785196430313405358 8.76510610444070614733 5.23059782416556284801 3.46334368402799075426 -0.07116459624715085197 5.23059782416556284801 6.99785196430313405358 8.76510610444070614733 1.69608954389042021482 6.99785196430313405358 5.23059782416556284801 3.46334368402799075426 3.46334368402799075426 1.69608954389042021482 -1.83841873638472197428 5.23059782416556284801 5.23059782416556284801 3.46334368402799075426 -0.07116459624715085197 5.23059782416556284801 -0.07116459624715085197 1.69608954389042021482 -0.07116459624715085197 -3.60567287652229317985 -1.83841873638472197428 1.69608954389042021482 1.69608954389042021482 -0.07116459624715085197 1.69608954389042021482 -1.83841873638472197428 -3.60567287652229317985 -5.37292701665986438542 -1.83841873638472197428 -0.07116459624715085197 3.46334368402799075426 1.69608954389042021482 -0.07116459624715085197 -3.60567287652229317985 1.69608954389042021482 -0.07116459624715085197 -3.60567287652229317985 -3.60567287652229317985 -1.83841873638472197428 -1.83841873638472197428 -3.60567287652229317985 -5.37292701665986438542 -1.83841873638472197428 -3.60567287652229317985 -5.37292701665986438542 -5.37292701665986438542 -5.37292701665986438542 -3.60567287652229317985 -1.83841873638472197428 -0.07116459624715085197 -3.60567287652229317985 -0.07116459624715085197 -0.07116459624715085197 -0.07116459624715085197 -1.83841873638472197428 1.69608954389042021482 1.69608954389042021482 -1.83841873638472197428 -0.07116459624715085197 1.69608954389042021482 1.69608954389042021482 -0.07116459624715085197 1.69608954389042021482 -0.07116459624715085197 -0.07116459624715085197 1.69608954389042021482 1.69608954389042021482 -0.07116459624715085197 3.46334368402799075426 1.69608954389042021482 -0.07116459624715085197 -0.07116459624715085197 -0.07116459624715085197 -0.07116459624715085197 1.69608954389042021482 1.69608954389042021482 5.23059782416556284801 3.46334368402799075426 1.69608954389042021482 3.46334368402799075426 1.69608954389042021482 -0.07116459624715085197 5.23059782416556284801 3.46334368402799075426 5.23059782416556284801 5.23059782416556284801 3.46334368402799075426 6.99785196430313405358 1.69608954389042021482 5.23059782416556284801 3.46334368402799075426 3.46334368402799075426 5.23059782416556284801 1.69608954389042021482 3.46334368402799075426 -0.07116459624715085197 -0.07116459624715085197 3.46334368402799075426 1.69608954389042021482 5.23059782416556284801 6.99785196430313405358 3.46334368402799075426 5.23059782416556284801 1.69608954389042021482 -0.07116459624715085197 -0.07116459624715085197 1.69608954389042021482 1.69608954389042021482 -0.07116459624715085197 1.69608954389042021482 3.46334368402799075426 3.46334368402799075426 5.23059782416556284801 3.46334368402799075426 1.69608954389042021482 -0.07116459624715085197 3.46334368402799075426 3.46334368402799075426 1.69608954389042021482 1.69608954389042021482 -0.07116459624715085197 -0.07116459624715085197 3.46334368402799075426 -0.07116459624715085197 3.46334368402799075426 1.69608954389042021482 1.69608954389042021482 -0.07116459624715085197 -0.07116459624715085197 -1.83841873638472197428 5.23059782416556284801 1.69608954389042021482 1.69608954389042021482 -0.07116459624715085197 -1.83841873638472197428 -0.07116459624715085197 -0.07116459624715085197 3.46334368402799075426 -1.83841873638472197428 3.46334368402799075426 -0.07116459624715085197 1.69608954389042021482 -0.07116459624715085197 -0.07116459624715085197 1.69608954389042021482 1.69608954389042021482 -0.07116459624715085197 1.69608954389042021482 -1.83841873638472197428 3.46334368402799075426 -0.07116459624715085197 1.69608954389042021482 3.46334368402799075426 -0.07116459624715085197 -0.07116459624715085197 3.46334368402799075426 3.46334368402799075426 3.46334368402799075426 1.69608954389042021482 1.69608954389042021482 -1.83841873638472197428 1.69608954389042021482 1.69608954389042021482 1.69608954389042021482 -0.07116459624715085197 -0.07116459624715085197 1.69608954389042021482 -0.07116459624715085197 -1.83841873638472197428 -0.07116459624715085197 -3.60567287652229317985 -5.37292701665986438542 -1.83841873638472197428 -0.07116459624715085197 1.69608954389042021482 -1.83841873638472197428 -0.07116459624715085197 -1.83841873638472197428 -7.14018115679743470281 -5.37292701665986438542 -1.83841873638472197428 -3.60567287652229317985 -3.60567287652229317985 -3.60567287652229317985 -1.83841873638472197428 -1.83841873638472197428 -0.07116459624715085197 -1.83841873638472197428 -1.83841873638472197428 -3.60567287652229317985 -7.14018115679743470281 -5.37292701665986438542 -3.60567287652229317985 -7.14018115679743470281 -0.07116459624715085197 -3.60567287652229317985 -3.60567287652229317985 -3.60567287652229317985 -7.14018115679743470281 -5.37292701665986438542 -3.60567287652229317985 -0.07116459624715085197 -0.07116459624715085197 -1.83841873638472197428 -3.60567287652229317985 -1.83841873638472197428 -3.60567287652229317985 -3.60567287652229317985 -7.14018115679743470281 -3.60567287652229317985 -3.60567287652229317985 -1.83841873638472197428 -0.07116459624715085197 -3.60567287652229317985 -0.07116459624715085197 -1.83841873638472197428 -1.83841873638472197428 -1.83841873638472197428 -0.07116459624715085197 -0.07116459624715085197 -1.83841873638472197428 -1.83841873638472197428 -0.07116459624715085197 1.69608954389042021482 1.69608954389042021482 5.23059782416556284801 1.69608954389042021482 -0.07116459624715085197 -0.07116459624715085197 1.69608954389042021482 -1.83841873638472197428 -0.07116459624715085197 3.46334368402799075426 5.23059782416556284801 3.46334368402799075426 3.46334368402799075426 1.69608954389042021482 1.69608954389042021482 -0.07116459624715085197 6.99785196430313405358 3.46334368402799075426 5.23059782416556284801 3.46334368402799075426 1.69608954389042021482 -0.07116459624715085197 -0.07116459624715085197 -0.07116459624715085197 1.69608954389042021482 1.69608954389042021482 1.69608954389042021482 8.76510610444070614733 3.46334368402799075426 5.23059782416556284801 1.69608954389042021482 1.69608954389042021482 -0.07116459624715085197 1.69608954389042021482 -1.83841873638472197428 3.46334368402799075426 1.69608954389042021482 1.69608954389042021482 1.69608954389042021482 3.46334368402799075426 1.69608954389042021482 -1.83841873638472197428 -0.07116459624715085197 3.46334368402799075426 1.69608954389042021482 3.46334368402799075426 -0.07116459624715085197 3.46334368402799075426 1.69608954389042021482 1.69608954389042021482 1.69608954389042021482 -0.07116459624715085197 1.69608954389042021482 3.46334368402799075426 5.23059782416556284801 -0.07116459624715085197 3.46334368402799075426 1.69608954389042021482 1.69608954389042021482 1.69608954389042021482 -0.07116459624715085197 -0.07116459624715085197 1.69608954389042021482 3.46334368402799075426 3.46334368402799075426 3.46334368402799075426 -1.83841873638472197428 -0.07116459624715085197 -0.07116459624715085197 1.69608954389042021482 3.46334368402799075426 1.69608954389042021482 3.46334368402799075426 -0.07116459624715085197 3.46334368402799075426 -1.83841873638472197428 1.69608954389042021482 1.69608954389042021482 1.69608954389042021482 3.46334368402799075426 1.69608954389042021482 -1.83841873638472197428 3.46334368402799075426 6.99785196430313405358 5.23059782416556284801 1.69608954389042021482 5.23059782416556284801 3.46334368402799075426 3.46334368402799075426 5.23059782416556284801 6.99785196430313405358 3.46334368402799075426 5.23059782416556284801 6.99785196430313405358 5.23059782416556284801 5.23059782416556284801 1.69608954389042021482 3.46334368402799075426 3.46334368402799075426 -0.07116459624715085197 -1.83841873638472197428 3.46334368402799075426 3.46334368402799075426 1.69608954389042021482 1.69608954389042021482 5.23059782416556284801 1.69608954389042021482 -0.07116459624715085197 3.46334368402799075426 1.69608954389042021482 1.69608954389042021482 1.69608954389042021482 -1.83841873638472197428 -1.83841873638472197428 -1.83841873638472197428 3.46334368402799075426 1.69608954389042021482 3.46334368402799075426 -0.07116459624715085197 3.46334368402799075426 1.69608954389042021482 -1.83841873638472197428 -0.07116459624715085197 -3.60567287652229317985 -1.83841873638472197428 1.69608954389042021482 -3.60567287652229317985 -0.07116459624715085197 -1.83841873638472197428 -0.07116459624715085197 -1.83841873638472197428 -1.83841873638472197428 -3.60567287652229317985 -1.83841873638472197428 -0.07116459624715085197 -1.83841873638472197428 1.69608954389042021482 -3.60567287652229317985 -3.60567287652229317985 -1.83841873638472197428 -1.83841873638472197428 -1.83841873638472197428 -0.07116459624715085197 -1.83841873638472197428 -1.83841873638472197428 1.69608954389042021482 -0.07116459624715085197 -0.07116459624715085197 -1.83841873638472197428 3.46334368402799075426 -0.07116459624715085197 -3.60567287652229317985 -3.60567287652229317985 -5.37292701665986438542 -8.90743529693500768474 -3.60567287652229317985 -3.60567287652229317985 -3.60567287652229317985 -3.60567287652229317985 -3.60567287652229317985 -8.90743529693500768474 -3.60567287652229317985 -7.14018115679743470281 -1.83841873638472197428 -3.60567287652229317985 -0.07116459624715085197 -3.60567287652229317985 -7.14018115679743470281 -3.60567287652229317985 -1.83841873638472197428 1.69608954389042021482 -0.07116459624715085197 -1.83841873638472197428 3.46334368402799075426 3.46334368402799075426 -0.07116459624715085197 3.46334368402799075426 3.46334368402799075426 5.23059782416556284801 3.46334368402799075426 5.23059782416556284801 3.46334368402799075426 3.46334368402799075426 1.69608954389042021482 -0.07116459624715085197 1.69608954389042021482 -1.83841873638472197428 1.69608954389042021482 -7.14018115679743470281 1.69608954389042021482 -0.07116459624715085197 1.69608954389042021482 5.23059782416556284801 3.46334368402799075426 3.46334368402799075426 -1.83841873638472197428 6.99785196430313405358 5.23059782416556284801 3.46334368402799075426 1.69608954389042021482 5.23059782416556284801 10.53236024457827646472 6.99785196430313405358 8.76510610444070614733 8.76510610444070614733 3.46334368402799075426 6.99785196430313405358 15.83412266499099096961 5.23059782416556284801 8.76510610444070614733 6.99785196430313405358 8.76510610444070614733 8.76510610444070614733 12.29961438471584678211 8.76510610444070614733 10.53236024457827646472 14.06686852485341887586 14.06686852485341887586 10.53236024457827646472 14.06686852485341887586 12.29961438471584678211 10.53236024457827646472 14.06686852485341887586 17.60137680512856306336 12.29961438471584678211 10.53236024457827646472 14.06686852485341887586 17.60137680512856306336 17.60137680512856306336 8.76510610444070614733 15.83412266499099096961 12.29961438471584678211 8.76510610444070614733 12.29961438471584678211 6.99785196430313405358 8.76510610444070614733 10.53236024457827646472 6.99785196430313405358 6.99785196430313405358 6.99785196430313405358 5.23059782416556284801 3.46334368402799075426 6.99785196430313405358 5.23059782416556284801 6.99785196430313405358 -0.07116459624715085197 -1.83841873638472197428 3.46334368402799075426 -0.07116459624715085197 5.23059782416556284801 5.23059782416556284801 3.46334368402799075426 5.23059782416556284801 3.46334368402799075426 1.69608954389042021482 -3.60567287652229317985 -0.07116459624715085197 -3.60567287652229317985 -3.60567287652229317985 -5.37292701665986438542 -7.14018115679743470281 -8.90743529693500768474 -5.37292701665986438542 -3.60567287652229317985 -7.14018115679743470281 -7.14018115679743470281 -5.37292701665986438542 -7.14018115679743470281 -3.60567287652229317985 -5.37292701665986438542 -5.37292701665986438542 -1.83841873638472197428 -3.60567287652229317985 -7.14018115679743470281 -5.37292701665986438542 -7.14018115679743470281 -8.90743529693500768474 -5.37292701665986438542 -8.90743529693500768474 -7.14018115679743470281 -8.90743529693500768474 -7.14018115679743470281 -7.14018115679743470281 -1.83841873638472197428 -1.83841873638472197428 -3.60567287652229317985 -5.37292701665986438542 -5.37292701665986438542 -3.60567287652229317985 -1.83841873638472197428 -5.37292701665986438542 -1.83841873638472197428 -1.83841873638472197428 -7.14018115679743470281 -3.60567287652229317985 -3.60567287652229317985 -3.60567287652229317985 1.69608954389042021482 -1.83841873638472197428 -0.07116459624715085197 -3.60567287652229317985 -5.37292701665986438542 -0.07116459624715085197 1.69608954389042021482 -1.83841873638472197428 -1.83841873638472197428 -0.07116459624715085197 -0.07116459624715085197 1.69608954389042021482 1.69608954389042021482 -1.83841873638472197428 -0.07116459624715085197 -1.83841873638472197428 -1.83841873638472197428 1.69608954389042021482 3.46334368402799075426 1.69608954389042021482 -1.83841873638472197428 -3.60567287652229317985 -1.83841873638472197428 -0.07116459624715085197 -3.60567287652229317985 -5.37292701665986438542 -1.83841873638472197428 3.46334368402799075426 1.69608954389042021482 -0.07116459624715085197 1.69608954389042021482 1.69608954389042021482 3.46334368402799075426 3.46334368402799075426 3.46334368402799075426 -0.07116459624715085197 -0.07116459624715085197 -0.07116459624715085197 -3.60567287652229317985 -0.07116459624715085197 -3.60567287652229317985 5.23059782416556284801 3.46334368402799075426 3.46334368402799075426 -1.83841873638472197428 -0.07116459624715085197 -0.07116459624715085197 -0.07116459624715085197 1.69608954389042021482 3.46334368402799075426 -3.60567287652229317985 3.46334368402799075426 -0.07116459624715085197 -0.07116459624715085197 -3.60567287652229317985 -1.83841873638472197428 -1.83841873638472197428 -0.07116459624715085197 -0.07116459624715085197 1.69608954389042021482 -1.83841873638472197428 -1.83841873638472197428 -0.07116459624715085197 -0.07116459624715085197 1.69608954389042021482 -0.07116459624715085197 -0.07116459624715085197 -1.83841873638472197428 -0.07116459624715085197 1.69608954389042021482 3.46334368402799075426 5.23059782416556284801 1.69608954389042021482 1.69608954389042021482 -1.83841873638472197428 1.69608954389042021482 1.69608954389042021482 -0.07116459624715085197 -0.07116459624715085197 1.69608954389042021482 3.46334368402799075426 -0.07116459624715085197 3.46334368402799075426 5.23059782416556284801 5.23059782416556284801 3.46334368402799075426 3.46334368402799075426 1.69608954389042021482 3.46334368402799075426 1.69608954389042021482 5.23059782416556284801 3.46334368402799075426 3.46334368402799075426 3.46334368402799075426 3.46334368402799075426 -0.07116459624715085197 -0.07116459624715085197 6.99785196430313405358 6.99785196430313405358 10.53236024457827646472 5.23059782416556284801 6.99785196430313405358 3.46334368402799075426 6.99785196430313405358 1.69608954389042021482 5.23059782416556284801 5.23059782416556284801 5.23059782416556284801 3.46334368402799075426 3.46334368402799075426 -0.07116459624715085197 3.46334368402799075426 5.23059782416556284801 5.23059782416556284801 3.46334368402799075426 3.46334368402799075426 3.46334368402799075426 5.23059782416556284801 6.99785196430313405358 3.46334368402799075426 5.23059782416556284801 6.99785196430313405358 3.46334368402799075426 3.46334368402799075426 3.46334368402799075426 3.46334368402799075426 5.23059782416556284801 5.23059782416556284801 3.46334368402799075426 5.23059782416556284801 3.46334368402799075426 -0.07116459624715085197 1.69608954389042021482 1.69608954389042021482 5.23059782416556284801 1.69608954389042021482 1.69608954389042021482 -0.07116459624715085197 1.69608954389042021482 5.23059782416556284801 1.69608954389042021482 3.46334368402799075426 5.23059782416556284801 6.99785196430313405358 5.23059782416556284801 3.46334368402799075426 6.99785196430313405358 6.99785196430313405358 6.99785196430313405358 6.99785196430313405358 6.99785196430313405358 3.46334368402799075426 5.23059782416556284801 6.99785196430313405358 5.23059782416556284801 8.76510610444070614733 8.76510610444070614733 6.99785196430313405358 5.23059782416556284801 6.99785196430313405358 6.99785196430313405358 8.76510610444070614733 10.53236024457827646472 6.99785196430313405358 6.99785196430313405358 5.23059782416556284801 5.23059782416556284801 8.76510610444070614733 6.99785196430313405358 8.76510610444070614733 5.23059782416556284801 5.23059782416556284801 5.23059782416556284801 -0.07116459624715085197 3.46334368402799075426 5.23059782416556284801 6.99785196430313405358 8.76510610444070614733 8.76510610444070614733 1.69608954389042021482 1.69608954389042021482 3.46334368402799075426 5.23059782416556284801 5.23059782416556284801 6.99785196430313405358 8.76510610444070614733 3.46334368402799075426 5.23059782416556284801 5.23059782416556284801 1.69608954389042021482 3.46334368402799075426 5.23059782416556284801 6.99785196430313405358 3.46334368402799075426 -1.83841873638472197428 1.69608954389042021482 5.23059782416556284801 -1.83841873638472197428 1.69608954389042021482 -3.60567287652229317985 3.46334368402799075426 -1.83841873638472197428 -0.07116459624715085197 1.69608954389042021482 -1.83841873638472197428 5.23059782416556284801 1.69608954389042021482 -1.83841873638472197428 -0.07116459624715085197 1.69608954389042021482 1.69608954389042021482 3.46334368402799075426 3.46334368402799075426 -0.07116459624715085197 -0.07116459624715085197 3.46334368402799075426 1.69608954389042021482 -0.07116459624715085197 -0.07116459624715085197 1.69608954389042021482 -1.83841873638472197428 6.99785196430313405358 -0.07116459624715085197 3.46334368402799075426 -1.83841873638472197428 6.99785196430313405358 3.46334368402799075426 3.46334368402799075426 1.69608954389042021482 1.69608954389042021482 1.69608954389042021482 1.69608954389042021482 3.46334368402799075426 -0.07116459624715085197 -1.83841873638472197428 -1.83841873638472197428 1.69608954389042021482 1.69608954389042021482 1.69608954389042021482 1.69608954389042021482 3.46334368402799075426 -0.07116459624715085197 1.69608954389042021482 1.69608954389042021482 -0.07116459624715085197 -3.60567287652229317985 1.69608954389042021482 -1.83841873638472197428 1.69608954389042021482 1.69608954389042021482 -1.83841873638472197428 -3.60567287652229317985 -1.83841873638472197428 -1.83841873638472197428 3.46334368402799075426 -0.07116459624715085197 -0.07116459624715085197 -1.83841873638472197428 -3.60567287652229317985 -5.37292701665986438542 -5.37292701665986438542 -3.60567287652229317985 -0.07116459624715085197 -0.07116459624715085197 1.69608954389042021482 -3.60567287652229317985 -0.07116459624715085197 -1.83841873638472197428 -3.60567287652229317985 -5.37292701665986438542 -1.83841873638472197428 -1.83841873638472197428 1.69608954389042021482 -0.07116459624715085197 -5.37292701665986438542 -3.60567287652229317985 -3.60567287652229317985 -5.37292701665986438542 -3.60567287652229317985 -1.83841873638472197428 -0.07116459624715085197 -1.83841873638472197428 -3.60567287652229317985 -5.37292701665986438542 -0.07116459624715085197 1.69608954389042021482 -3.60567287652229317985 -1.83841873638472197428 -1.83841873638472197428 -0.07116459624715085197 -1.83841873638472197428 -0.07116459624715085197 1.69608954389042021482 -0.07116459624715085197 1.69608954389042021482 -1.83841873638472197428 -0.07116459624715085197 -3.60567287652229317985 -0.07116459624715085197 -0.07116459624715085197 -3.60567287652229317985 1.69608954389042021482 -0.07116459624715085197 -3.60567287652229317985 1.69608954389042021482 -1.83841873638472197428 -0.07116459624715085197 1.69608954389042021482 1.69608954389042021482 -0.07116459624715085197 -1.83841873638472197428 -3.60567287652229317985 -1.83841873638472197428 -1.83841873638472197428 -1.83841873638472197428 -3.60567287652229317985 -0.07116459624715085197 -0.07116459624715085197 3.46334368402799075426 -0.07116459624715085197 3.46334368402799075426 -0.07116459624715085197 1.69608954389042021482 1.69608954389042021482 1.69608954389042021482 -3.60567287652229317985 -0.07116459624715085197 -0.07116459624715085197 -0.07116459624715085197 3.46334368402799075426 1.69608954389042021482 -0.07116459624715085197 1.69608954389042021482 -0.07116459624715085197 -0.07116459624715085197 -1.83841873638472197428 1.69608954389042021482 -0.07116459624715085197 1.69608954389042021482 3.46334368402799075426 -0.07116459624715085197 1.69608954389042021482 -3.60567287652229317985 -1.83841873638472197428 -0.07116459624715085197 -3.60567287652229317985 -0.07116459624715085197 1.69608954389042021482 -0.07116459624715085197 1.69608954389042021482 -0.07116459624715085197 3.46334368402799075426 -0.07116459624715085197 -1.83841873638472197428 -5.37292701665986438542 -0.07116459624715085197 3.46334368402799075426 12.29961438471584678211 5.23059782416556284801 1.69608954389042021482 -0.07116459624715085197 3.46334368402799075426 -0.07116459624715085197 1.69608954389042021482 3.46334368402799075426 -0.07116459624715085197 5.23059782416556284801 1.69608954389042021482 3.46334368402799075426 3.46334368402799075426 3.46334368402799075426 -0.07116459624715085197 3.46334368402799075426 5.23059782416556284801 5.23059782416556284801 5.23059782416556284801 8.76510610444070614733 3.46334368402799075426 1.69608954389042021482 1.69608954389042021482 3.46334368402799075426 6.99785196430313405358 3.46334368402799075426 5.23059782416556284801 1.69608954389042021482 6.99785196430313405358 5.23059782416556284801 5.23059782416556284801 -0.07116459624715085197 1.69608954389042021482 3.46334368402799075426 8.76510610444070614733 8.76510610444070614733 3.46334368402799075426 3.46334368402799075426 3.46334368402799075426 8.76510610444070614733 1.69608954389042021482 6.99785196430313405358 6.99785196430313405358 6.99785196430313405358 5.23059782416556284801 6.99785196430313405358 1.69608954389042021482 6.99785196430313405358 10.53236024457827646472 3.46334368402799075426 8.76510610444070614733 8.76510610444070614733 3.46334368402799075426 5.23059782416556284801 3.46334368402799075426 5.23059782416556284801 6.99785196430313405358 6.99785196430313405358 6.99785196430313405358 6.99785196430313405358 10.53236024457827646472 5.23059782416556284801 6.99785196430313405358 3.46334368402799075426 3.46334368402799075426 6.99785196430313405358 6.99785196430313405358 6.99785196430313405358 8.76510610444070614733 6.99785196430313405358 5.23059782416556284801 5.23059782416556284801 5.23059782416556284801 3.46334368402799075426 3.46334368402799075426 3.46334368402799075426 8.76510610444070614733 5.23059782416556284801 3.46334368402799075426 3.46334368402799075426 5.23059782416556284801 1.69608954389042021482 1.69608954389042021482 5.23059782416556284801 5.23059782416556284801 3.46334368402799075426 5.23059782416556284801 6.99785196430313405358 3.46334368402799075426 1.69608954389042021482 3.46334368402799075426 6.99785196430313405358 8.76510610444070614733 3.46334368402799075426 5.23059782416556284801 3.46334368402799075426 5.23059782416556284801 6.99785196430313405358 5.23059782416556284801 6.99785196430313405358 6.99785196430313405358 5.23059782416556284801 3.46334368402799075426 5.23059782416556284801 -0.07116459624715085197 3.46334368402799075426 6.99785196430313405358 5.23059782416556284801 5.23059782416556284801 3.46334368402799075426 3.46334368402799075426 5.23059782416556284801 5.23059782416556284801 5.23059782416556284801 1.69608954389042021482 6.99785196430313405358 5.23059782416556284801 1.69608954389042021482 5.23059782416556284801 -0.07116459624715085197 3.46334368402799075426 8.76510610444070614733 5.23059782416556284801 5.23059782416556284801 6.99785196430313405358 1.69608954389042021482 -0.07116459624715085197 5.23059782416556284801 8.76510610444070614733 6.99785196430313405358 3.46334368402799075426 3.46334368402799075426 5.23059782416556284801 3.46334368402799075426 1.69608954389042021482 5.23059782416556284801 5.23059782416556284801 1.69608954389042021482 5.23059782416556284801 5.23059782416556284801 1.69608954389042021482 5.23059782416556284801 10.53236024457827646472 3.46334368402799075426 3.46334368402799075426 3.46334368402799075426 3.46334368402799075426 5.23059782416556284801 8.76510610444070614733 6.99785196430313405358 5.23059782416556284801 -0.07116459624715085197 3.46334368402799075426 1.69608954389042021482 5.23059782416556284801 8.76510610444070614733 6.99785196430313405358 1.69608954389042021482 1.69608954389042021482 5.23059782416556284801 3.46334368402799075426 3.46334368402799075426 5.23059782416556284801 1.69608954389042021482 5.23059782416556284801 -0.07116459624715085197 1.69608954389042021482 1.69608954389042021482 8.76510610444070614733 6.99785196430313405358 3.46334368402799075426 5.23059782416556284801 -0.07116459624715085197 3.46334368402799075426 5.23059782416556284801 1.69608954389042021482 3.46334368402799075426 1.69608954389042021482 1.69608954389042021482 3.46334368402799075426 1.69608954389042021482 -1.83841873638472197428 1.69608954389042021482 -3.60567287652229317985 3.46334368402799075426 1.69608954389042021482 5.23059782416556284801 -1.83841873638472197428 -0.07116459624715085197 -0.07116459624715085197 -3.60567287652229317985 -3.60567287652229317985 -3.60567287652229317985 -0.07116459624715085197 -3.60567287652229317985 3.46334368402799075426 1.69608954389042021482 -1.83841873638472197428 -1.83841873638472197428 -0.07116459624715085197 -1.83841873638472197428 -0.07116459624715085197 -3.60567287652229317985 -3.60567287652229317985 -1.83841873638472197428 -5.37292701665986438542 -0.07116459624715085197 -1.83841873638472197428 1.69608954389042021482 1.69608954389042021482 -1.83841873638472197428 -1.83841873638472197428 -1.83841873638472197428 -0.07116459624715085197 -5.37292701665986438542 -0.07116459624715085197 -1.83841873638472197428 1.69608954389042021482 -1.83841873638472197428 -5.37292701665986438542 -1.83841873638472197428 -1.83841873638472197428 -1.83841873638472197428 1.69608954389042021482 1.69608954389042021482 -3.60567287652229317985 -3.60567287652229317985 1.69608954389042021482 -1.83841873638472197428 3.46334368402799075426 3.46334368402799075426 -0.07116459624715085197 -5.37292701665986438542 3.46334368402799075426 1.69608954389042021482 3.46334368402799075426 3.46334368402799075426 1.69608954389042021482 -1.83841873638472197428 -0.07116459624715085197 3.46334368402799075426 -1.83841873638472197428 -3.60567287652229317985 -0.07116459624715085197 -0.07116459624715085197 1.69608954389042021482 3.46334368402799075426 1.69608954389042021482 -0.07116459624715085197 -3.60567287652229317985 1.69608954389042021482 -0.07116459624715085197 3.46334368402799075426 3.46334368402799075426 1.69608954389042021482 -1.83841873638472197428 -1.83841873638472197428 -7.14018115679743470281 -3.60567287652229317985 -3.60567287652229317985 -0.07116459624715085197 -1.83841873638472197428 -1.83841873638472197428 -1.83841873638472197428 -1.83841873638472197428 -0.07116459624715085197 -3.60567287652229317985 1.69608954389042021482 -0.07116459624715085197 1.69608954389042021482 -1.83841873638472197428 -1.83841873638472197428 1.69608954389042021482 1.69608954389042021482 1.69608954389042021482 3.46334368402799075426 -0.07116459624715085197 3.46334368402799075426 -0.07116459624715085197 -0.07116459624715085197 -0.07116459624715085197 1.69608954389042021482 3.46334368402799075426 3.46334368402799075426 -0.07116459624715085197 5.23059782416556284801 -1.83841873638472197428 -0.07116459624715085197 1.69608954389042021482 -1.83841873638472197428 -0.07116459624715085197 -0.07116459624715085197 1.69608954389042021482 -1.83841873638472197428 5.23059782416556284801 3.46334368402799075426 5.23059782416556284801 -1.83841873638472197428 -1.83841873638472197428 -0.07116459624715085197 -0.07116459624715085197 -0.07116459624715085197 -1.83841873638472197428 1.69608954389042021482 3.46334368402799075426 1.69608954389042021482 -1.83841873638472197428 -0.07116459624715085197 -0.07116459624715085197 -1.83841873638472197428 1.69608954389042021482 -0.07116459624715085197 3.46334368402799075426 -1.83841873638472197428 -1.83841873638472197428 -0.07116459624715085197 -1.83841873638472197428 -0.07116459624715085197 -0.07116459624715085197 -3.60567287652229317985 -0.07116459624715085197 3.46334368402799075426 -0.07116459624715085197 -0.07116459624715085197 -5.37292701665986438542 -5.37292701665986438542 -3.60567287652229317985 -3.60567287652229317985 -1.83841873638472197428 -1.83841873638472197428 -1.83841873638472197428 -1.83841873638472197428 -1.83841873638472197428 -1.83841873638472197428 -0.07116459624715085197 -1.83841873638472197428 -1.83841873638472197428 1.69608954389042021482 -5.37292701665986438542 -1.83841873638472197428 -5.37292701665986438542 -5.37292701665986438542 -5.37292701665986438542 -3.60567287652229317985 -5.37292701665986438542 -5.37292701665986438542 -1.83841873638472197428 -1.83841873638472197428 -5.37292701665986438542 -3.60567287652229317985 -1.83841873638472197428 -0.07116459624715085197 -1.83841873638472197428 -3.60567287652229317985 -5.37292701665986438542 -7.14018115679743470281 -5.37292701665986438542 -3.60567287652229317985 -0.07116459624715085197 -5.37292701665986438542 -1.83841873638472197428 -3.60567287652229317985 -1.83841873638472197428 -1.83841873638472197428 -1.83841873638472197428 -0.07116459624715085197 -0.07116459624715085197 -3.60567287652229317985 -3.60567287652229317985 -3.60567287652229317985 -3.60567287652229317985 -1.83841873638472197428 -3.60567287652229317985 -0.07116459624715085197 -1.83841873638472197428 -0.07116459624715085197 -7.14018115679743470281 -3.60567287652229317985 -0.07116459624715085197 -3.60567287652229317985 -3.60567287652229317985 -0.07116459624715085197 -3.60567287652229317985 -0.07116459624715085197 -5.37292701665986438542 -5.37292701665986438542 -1.83841873638472197428 -1.83841873638472197428 -1.83841873638472197428 -0.07116459624715085197 -0.07116459624715085197 -1.83841873638472197428 -0.07116459624715085197 -1.83841873638472197428 -8.90743529693500768474 1.69608954389042021482 -3.60567287652229317985 -1.83841873638472197428 1.69608954389042021482 3.46334368402799075426 -0.07116459624715085197 -3.60567287652229317985 -3.60567287652229317985 -3.60567287652229317985 -1.83841873638472197428 1.69608954389042021482 1.69608954389042021482 -1.83841873638472197428 -0.07116459624715085197 -0.07116459624715085197 -0.07116459624715085197 -0.07116459624715085197 -1.83841873638472197428 -1.83841873638472197428 -5.37292701665986438542 -0.07116459624715085197 3.46334368402799075426 3.46334368402799075426 1.69608954389042021482 -7.14018115679743470281 -3.60567287652229317985 -3.60567287652229317985 -5.37292701665986438542 -0.07116459624715085197 -3.60567287652229317985 -3.60567287652229317985 -3.60567287652229317985 -3.60567287652229317985 -0.07116459624715085197 -5.37292701665986438542 1.69608954389042021482 1.69608954389042021482 -1.83841873638472197428 -0.07116459624715085197 -1.83841873638472197428 -5.37292701665986438542 -5.37292701665986438542 -3.60567287652229317985 1.69608954389042021482 1.69608954389042021482 -1.83841873638472197428 -1.83841873638472197428 -3.60567287652229317985 -1.83841873638472197428 -1.83841873638472197428 -0.07116459624715085197 1.69608954389042021482 1.69608954389042021482 -1.83841873638472197428 -1.83841873638472197428 -1.83841873638472197428 3.46334368402799075426 1.69608954389042021482 -0.07116459624715085197 -0.07116459624715085197 3.46334368402799075426 -0.07116459624715085197 1.69608954389042021482 -0.07116459624715085197 3.46334368402799075426 -1.83841873638472197428 1.69608954389042021482 -0.07116459624715085197 1.69608954389042021482 -0.07116459624715085197 -5.37292701665986438542 -1.83841873638472197428 1.69608954389042021482 1.69608954389042021482 3.46334368402799075426 -0.07116459624715085197 1.69608954389042021482 1.69608954389042021482 -0.07116459624715085197 -0.07116459624715085197 -0.07116459624715085197 -0.07116459624715085197 -0.07116459624715085197 1.69608954389042021482 -0.07116459624715085197 -3.60567287652229317985 -1.83841873638472197428 -1.83841873638472197428 -5.37292701665986438542 -1.83841873638472197428 -3.60567287652229317985 -3.60567287652229317985 -5.37292701665986438542 -3.60567287652229317985 -1.83841873638472197428 -1.83841873638472197428 -3.60567287652229317985 -1.83841873638472197428 -0.07116459624715085197 -3.60567287652229317985 -3.60567287652229317985 -3.60567287652229317985 -3.60567287652229317985 -7.14018115679743470281 -3.60567287652229317985 -5.37292701665986438542 -1.83841873638472197428 -1.83841873638472197428 -1.83841873638472197428 -1.83841873638472197428 -1.83841873638472197428 -5.37292701665986438542 -5.37292701665986438542 -10.67468943707257800213 -1.83841873638472197428 -1.83841873638472197428 -1.83841873638472197428 -0.07116459624715085197 -1.83841873638472197428 -1.83841873638472197428 -3.60567287652229317985 -3.60567287652229317985 -0.07116459624715085197 -1.83841873638472197428 -0.07116459624715085197 -1.83841873638472197428 -5.37292701665986438542 -5.37292701665986438542 -0.07116459624715085197 -3.60567287652229317985 -1.83841873638472197428 -0.07116459624715085197 -1.83841873638472197428 3.46334368402799075426 -0.07116459624715085197 -1.83841873638472197428 -3.60567287652229317985 -3.60567287652229317985 -3.60567287652229317985 -0.07116459624715085197 -1.83841873638472197428 -0.07116459624715085197 -0.07116459624715085197 -0.07116459624715085197 -0.07116459624715085197 -0.07116459624715085197 -3.60567287652229317985 1.69608954389042021482 1.69608954389042021482 1.69608954389042021482 1.69608954389042021482 3.46334368402799075426 -0.07116459624715085197 1.69608954389042021482 1.69608954389042021482 3.46334368402799075426 1.69608954389042021482 -1.83841873638472197428 -0.07116459624715085197 -0.07116459624715085197 5.23059782416556284801 -1.83841873638472197428 -0.07116459624715085197 -0.07116459624715085197 -3.60567287652229317985 1.69608954389042021482 -0.07116459624715085197 1.69608954389042021482 1.69608954389042021482 3.46334368402799075426 1.69608954389042021482 1.69608954389042021482 -0.07116459624715085197 -0.07116459624715085197 -1.83841873638472197428 3.46334368402799075426 -0.07116459624715085197 -0.07116459624715085197 -0.07116459624715085197 1.69608954389042021482 -0.07116459624715085197 -1.83841873638472197428 3.46334368402799075426 3.46334368402799075426 3.46334368402799075426 1.69608954389042021482 -1.83841873638472197428 1.69608954389042021482 1.69608954389042021482 1.69608954389042021482 5.23059782416556284801 -0.07116459624715085197 1.69608954389042021482 3.46334368402799075426 3.46334368402799075426 1.69608954389042021482 5.23059782416556284801 8.76510610444070614733 6.99785196430313405358 3.46334368402799075426 3.46334368402799075426 8.76510610444070614733 1.69608954389042021482 3.46334368402799075426 5.23059782416556284801 5.23059782416556284801 8.76510610444070614733 6.99785196430313405358 1.69608954389042021482 5.23059782416556284801 5.23059782416556284801 5.23059782416556284801 1.69608954389042021482 8.76510610444070614733 6.99785196430313405358 6.99785196430313405358 6.99785196430313405358 8.76510610444070614733 5.23059782416556284801 3.46334368402799075426 -0.07116459624715085197 3.46334368402799075426 6.99785196430313405358 3.46334368402799075426 8.76510610444070614733 8.76510610444070614733 8.76510610444070614733 5.23059782416556284801 1.69608954389042021482 1.69608954389042021482 1.69608954389042021482 3.46334368402799075426 3.46334368402799075426 6.99785196430313405358 5.23059782416556284801 6.99785196430313405358 3.46334368402799075426 5.23059782416556284801 1.69608954389042021482 3.46334368402799075426 5.23059782416556284801 6.99785196430313405358 6.99785196430313405358 1.69608954389042021482 1.69608954389042021482 3.46334368402799075426 5.23059782416556284801 -0.07116459624715085197 3.46334368402799075426 5.23059782416556284801 6.99785196430313405358 1.69608954389042021482 1.69608954389042021482 3.46334368402799075426 -0.07116459624715085197 -0.07116459624715085197 1.69608954389042021482 1.69608954389042021482 5.23059782416556284801 3.46334368402799075426 -1.83841873638472197428 1.69608954389042021482 -0.07116459624715085197 1.69608954389042021482 3.46334368402799075426 3.46334368402799075426 1.69608954389042021482 1.69608954389042021482 1.69608954389042021482 -1.83841873638472197428 -0.07116459624715085197 -0.07116459624715085197 -0.07116459624715085197 3.46334368402799075426 -1.83841873638472197428 -0.07116459624715085197 -0.07116459624715085197 1.69608954389042021482 -0.07116459624715085197 -1.83841873638472197428 -0.07116459624715085197 -1.83841873638472197428 -0.07116459624715085197 -0.07116459624715085197 -1.83841873638472197428 1.69608954389042021482 -1.83841873638472197428 -3.60567287652229317985 -5.37292701665986438542 -5.37292701665986438542 -3.60567287652229317985 -0.07116459624715085197 -0.07116459624715085197 -0.07116459624715085197 1.69608954389042021482 -3.60567287652229317985 -1.83841873638472197428 -0.07116459624715085197 -0.07116459624715085197 -1.83841873638472197428 1.69608954389042021482 3.46334368402799075426 -0.07116459624715085197 -0.07116459624715085197 -5.37292701665986438542 -1.83841873638472197428 -1.83841873638472197428 1.69608954389042021482 1.69608954389042021482 5.23059782416556284801 1.69608954389042021482 1.69608954389042021482 3.46334368402799075426 -0.07116459624715085197 1.69608954389042021482 6.99785196430313405358 3.46334368402799075426 1.69608954389042021482 5.23059782416556284801 -0.07116459624715085197 3.46334368402799075426 3.46334368402799075426 6.99785196430313405358 3.46334368402799075426 3.46334368402799075426 1.69608954389042021482 3.46334368402799075426 3.46334368402799075426 3.46334368402799075426 3.46334368402799075426 1.69608954389042021482 1.69608954389042021482 5.23059782416556284801 5.23059782416556284801 5.23059782416556284801 1.69608954389042021482 3.46334368402799075426 3.46334368402799075426 6.99785196430313405358 3.46334368402799075426 1.69608954389042021482 1.69608954389042021482 3.46334368402799075426 1.69608954389042021482 -0.07116459624715085197 3.46334368402799075426 3.46334368402799075426 5.23059782416556284801 5.23059782416556284801 6.99785196430313405358 -1.83841873638472197428 3.46334368402799075426 6.99785196430313405358 1.69608954389042021482 6.99785196430313405358 1.69608954389042021482 3.46334368402799075426 1.69608954389042021482 -0.07116459624715085197 6.99785196430313405358 5.23059782416556284801 3.46334368402799075426 3.46334368402799075426 -0.07116459624715085197 3.46334368402799075426 5.23059782416556284801 1.69608954389042021482 -0.07116459624715085197 1.69608954389042021482 -0.07116459624715085197 5.23059782416556284801 1.69608954389042021482 5.23059782416556284801 -0.07116459624715085197 3.46334368402799075426 -0.07116459624715085197 3.46334368402799075426 3.46334368402799075426 6.99785196430313405358 3.46334368402799075426 1.69608954389042021482 3.46334368402799075426 1.69608954389042021482 -0.07116459624715085197 1.69608954389042021482 1.69608954389042021482 3.46334368402799075426 -0.07116459624715085197 1.69608954389042021482 1.69608954389042021482 6.99785196430313405358 -0.07116459624715085197 3.46334368402799075426 -0.07116459624715085197 -0.07116459624715085197 5.23059782416556284801 3.46334368402799075426 -0.07116459624715085197 -0.07116459624715085197 6.99785196430313405358 3.46334368402799075426 5.23059782416556284801 5.23059782416556284801 1.69608954389042021482 1.69608954389042021482 -0.07116459624715085197 -0.07116459624715085197 1.69608954389042021482 5.23059782416556284801 3.46334368402799075426 1.69608954389042021482 5.23059782416556284801 -3.60567287652229317985 3.46334368402799075426 1.69608954389042021482 3.46334368402799075426 1.69608954389042021482 1.69608954389042021482 3.46334368402799075426 3.46334368402799075426 -0.07116459624715085197 1.69608954389042021482 1.69608954389042021482 3.46334368402799075426 1.69608954389042021482 6.99785196430313405358 -1.83841873638472197428 1.69608954389042021482 -1.83841873638472197428 1.69608954389042021482 3.46334368402799075426 -0.07116459624715085197 1.69608954389042021482 3.46334368402799075426 -1.83841873638472197428 -0.07116459624715085197 1.69608954389042021482 3.46334368402799075426 -0.07116459624715085197 -1.83841873638472197428 -0.07116459624715085197 1.69608954389042021482 -1.83841873638472197428 -0.07116459624715085197 1.69608954389042021482 3.46334368402799075426 6.99785196430313405358 -0.07116459624715085197 -0.07116459624715085197 3.46334368402799075426 -3.60567287652229317985 -1.83841873638472197428 3.46334368402799075426 1.69608954389042021482 -0.07116459624715085197 -1.83841873638472197428 -0.07116459624715085197 -0.07116459624715085197 1.69608954389042021482 -1.83841873638472197428 1.69608954389042021482 -0.07116459624715085197 1.69608954389042021482 -1.83841873638472197428 -3.60567287652229317985 -1.83841873638472197428 -3.60567287652229317985 -0.07116459624715085197 -1.83841873638472197428 -0.07116459624715085197 -0.07116459624715085197 -1.83841873638472197428 -0.07116459624715085197 -0.07116459624715085197 -3.60567287652229317985 -3.60567287652229317985 -3.60567287652229317985 -1.83841873638472197428 -1.83841873638472197428 1.69608954389042021482 -5.37292701665986438542 -0.07116459624715085197 -1.83841873638472197428 -3.60567287652229317985 -7.14018115679743470281 -3.60567287652229317985 -0.07116459624715085197 -1.83841873638472197428 -3.60567287652229317985 -5.37292701665986438542 -5.37292701665986438542 -5.37292701665986438542 -8.90743529693500768474 -8.90743529693500768474 -5.37292701665986438542 -3.60567287652229317985 -0.07116459624715085197 -5.37292701665986438542 -7.14018115679743470281 -7.14018115679743470281 -5.37292701665986438542 -8.90743529693500768474 -5.37292701665986438542 -5.37292701665986438542 -1.83841873638472197428 -5.37292701665986438542 -7.14018115679743470281 -5.37292701665986438542 -5.37292701665986438542 -5.37292701665986438542 -3.60567287652229317985 1.69608954389042021482 -1.83841873638472197428 -1.83841873638472197428 -1.83841873638472197428 -1.83841873638472197428 -3.60567287652229317985 -3.60567287652229317985 -5.37292701665986438542 -1.83841873638472197428 -1.83841873638472197428 -1.83841873638472197428 -5.37292701665986438542 -1.83841873638472197428 -3.60567287652229317985 -5.37292701665986438542 -5.37292701665986438542 -0.07116459624715085197 -3.60567287652229317985 -1.83841873638472197428 1.69608954389042021482 -5.37292701665986438542 -3.60567287652229317985 -5.37292701665986438542 -3.60567287652229317985 -1.83841873638472197428 -1.83841873638472197428 1.69608954389042021482 -1.83841873638472197428 -3.60567287652229317985 -3.60567287652229317985 -3.60567287652229317985 -1.83841873638472197428 -0.07116459624715085197 -1.83841873638472197428 -1.83841873638472197428 -3.60567287652229317985 -0.07116459624715085197 -0.07116459624715085197 -1.83841873638472197428 3.46334368402799075426 1.69608954389042021482 -0.07116459624715085197 3.46334368402799075426 -1.83841873638472197428 1.69608954389042021482 3.46334368402799075426 1.69608954389042021482 3.46334368402799075426 6.99785196430313405358 6.99785196430313405358 3.46334368402799075426 1.69608954389042021482 1.69608954389042021482 1.69608954389042021482 1.69608954389042021482 1.69608954389042021482 6.99785196430313405358 6.99785196430313405358 6.99785196430313405358 8.76510610444070614733 3.46334368402799075426 -1.83841873638472197428 1.69608954389042021482 5.23059782416556284801 3.46334368402799075426 8.76510610444070614733 3.46334368402799075426 1.69608954389042021482 1.69608954389042021482 -0.07116459624715085197 1.69608954389042021482 3.46334368402799075426 3.46334368402799075426 6.99785196430313405358 3.46334368402799075426 3.46334368402799075426 3.46334368402799075426 -0.07116459624715085197 1.69608954389042021482 1.69608954389042021482 3.46334368402799075426 5.23059782416556284801 5.23059782416556284801 3.46334368402799075426 -0.07116459624715085197 1.69608954389042021482 -3.60567287652229317985 3.46334368402799075426 -3.60567287652229317985 1.69608954389042021482 1.69608954389042021482 5.23059782416556284801 1.69608954389042021482 -0.07116459624715085197 -3.60567287652229317985 -0.07116459624715085197 -1.83841873638472197428 -0.07116459624715085197 1.69608954389042021482 1.69608954389042021482 -1.83841873638472197428 -1.83841873638472197428 -3.60567287652229317985 -3.60567287652229317985 3.46334368402799075426 1.69608954389042021482 3.46334368402799075426 -1.83841873638472197428 -0.07116459624715085197 -0.07116459624715085197 1.69608954389042021482 1.69608954389042021482 1.69608954389042021482 -0.07116459624715085197 -0.07116459624715085197 -0.07116459624715085197 -0.07116459624715085197 -1.83841873638472197428 -1.83841873638472197428 -0.07116459624715085197 -0.07116459624715085197 1.69608954389042021482 -1.83841873638472197428 -3.60567287652229317985 -1.83841873638472197428 -0.07116459624715085197 1.69608954389042021482 1.69608954389042021482 3.46334368402799075426 -0.07116459624715085197 -1.83841873638472197428 -0.07116459624715085197 -0.07116459624715085197 -0.07116459624715085197 -0.07116459624715085197 -3.60567287652229317985 -1.83841873638472197428 -5.37292701665986438542 -3.60567287652229317985 -1.83841873638472197428 -0.07116459624715085197 1.69608954389042021482 -0.07116459624715085197 -0.07116459624715085197 -0.07116459624715085197 -3.60567287652229317985 -3.60567287652229317985 -3.60567287652229317985 -5.37292701665986438542 -5.37292701665986438542 -7.14018115679743470281 -3.60567287652229317985 -3.60567287652229317985 -0.07116459624715085197 -7.14018115679743470281 -5.37292701665986438542 -5.37292701665986438542 -8.90743529693500768474 -10.67468943707257800213 -8.90743529693500768474 -7.14018115679743470281 -7.14018115679743470281 -8.90743529693500768474 -7.14018115679743470281 -7.14018115679743470281 -10.67468943707257800213 -10.67468943707257800213 -8.90743529693500768474 -14.20919771734771863692 -14.20919771734771863692 -8.90743529693500768474 -10.67468943707257800213 -10.67468943707257800213 -12.44194357721014831952 -7.14018115679743470281 -14.20919771734771863692 -14.20919771734771863692 -10.67468943707257800213 -10.67468943707257800213 -7.14018115679743470281 -8.90743529693500768474 -14.20919771734771863692 -12.44194357721014831952 -10.67468943707257800213 -10.67468943707257800213 -10.67468943707257800213 -12.44194357721014831952 -10.67468943707257800213 -8.90743529693500768474 -7.14018115679743470281 -10.67468943707257800213 -10.67468943707257800213 -12.44194357721014831952 -12.44194357721014831952 -10.67468943707257800213 -12.44194357721014831952 -10.67468943707257800213 -10.67468943707257800213 -8.90743529693500768474 -8.90743529693500768474 -8.90743529693500768474 -8.90743529693500768474 -10.67468943707257800213 -8.90743529693500768474 -12.44194357721014831952 -12.44194357721014831952 -10.67468943707257800213 -8.90743529693500768474 -7.14018115679743470281 -10.67468943707257800213 -7.14018115679743470281 -8.90743529693500768474 -8.90743529693500768474 -8.90743529693500768474 -7.14018115679743470281 -3.60567287652229317985 -5.37292701665986438542 -5.37292701665986438542 -5.37292701665986438542 -12.44194357721014831952 -7.14018115679743470281 -12.44194357721014831952 -7.14018115679743470281 -3.60567287652229317985 -7.14018115679743470281 -7.14018115679743470281 -5.37292701665986438542 -3.60567287652229317985 -7.14018115679743470281 -8.90743529693500768474 -5.37292701665986438542 -7.14018115679743470281 -5.37292701665986438542 -5.37292701665986438542 -1.83841873638472197428 -5.37292701665986438542 -5.37292701665986438542 -3.60567287652229317985 -7.14018115679743470281 -8.90743529693500768474 -1.83841873638472197428 -1.83841873638472197428 -0.07116459624715085197 -3.60567287652229317985 -3.60567287652229317985 -3.60567287652229317985 -7.14018115679743470281 -5.37292701665986438542 -7.14018115679743470281 -3.60567287652229317985 -0.07116459624715085197 -1.83841873638472197428 -7.14018115679743470281 -1.83841873638472197428 -1.83841873638472197428 -1.83841873638472197428 -1.83841873638472197428 -0.07116459624715085197 -0.07116459624715085197 1.69608954389042021482 -0.07116459624715085197 -0.07116459624715085197 -3.60567287652229317985 -3.60567287652229317985 -0.07116459624715085197 1.69608954389042021482 1.69608954389042021482 -0.07116459624715085197 -5.37292701665986438542 -1.83841873638472197428 -0.07116459624715085197 -1.83841873638472197428 -1.83841873638472197428 1.69608954389042021482 1.69608954389042021482 -0.07116459624715085197 -0.07116459624715085197 -1.83841873638472197428 -1.83841873638472197428 -3.60567287652229317985 1.69608954389042021482 5.23059782416556284801 -0.07116459624715085197 5.23059782416556284801 1.69608954389042021482 3.46334368402799075426 -0.07116459624715085197 -1.83841873638472197428 -1.83841873638472197428 1.69608954389042021482 -3.60567287652229317985 1.69608954389042021482 -1.83841873638472197428 -3.60567287652229317985 1.69608954389042021482 -0.07116459624715085197 -0.07116459624715085197 -3.60567287652229317985 5.23059782416556284801 -1.83841873638472197428 -1.83841873638472197428 -0.07116459624715085197 -3.60567287652229317985 1.69608954389042021482 1.69608954389042021482 -0.07116459624715085197 -0.07116459624715085197 -1.83841873638472197428 -1.83841873638472197428 -1.83841873638472197428 1.69608954389042021482 -1.83841873638472197428 -3.60567287652229317985 -0.07116459624715085197 -1.83841873638472197428 -0.07116459624715085197 -1.83841873638472197428 -5.37292701665986438542 -0.07116459624715085197 1.69608954389042021482 -0.07116459624715085197 -0.07116459624715085197 -1.83841873638472197428 -3.60567287652229317985 -1.83841873638472197428 -5.37292701665986438542 -7.14018115679743470281 -3.60567287652229317985 -1.83841873638472197428 -0.07116459624715085197 -5.37292701665986438542 -3.60567287652229317985 -5.37292701665986438542 -1.83841873638472197428 -3.60567287652229317985 -1.83841873638472197428 1.69608954389042021482 -1.83841873638472197428 -0.07116459624715085197 -3.60567287652229317985 -3.60567287652229317985 -5.37292701665986438542 -1.83841873638472197428 -1.83841873638472197428 -0.07116459624715085197 -0.07116459624715085197 -1.83841873638472197428 -1.83841873638472197428 -0.07116459624715085197 -0.07116459624715085197 -1.83841873638472197428 1.69608954389042021482 3.46334368402799075426 1.69608954389042021482 1.69608954389042021482 3.46334368402799075426 1.69608954389042021482 5.23059782416556284801 3.46334368402799075426 1.69608954389042021482 -0.07116459624715085197 1.69608954389042021482 -0.07116459624715085197 -0.07116459624715085197 3.46334368402799075426 3.46334368402799075426 3.46334368402799075426 1.69608954389042021482 6.99785196430313405358 3.46334368402799075426 5.23059782416556284801 1.69608954389042021482 1.69608954389042021482 -0.07116459624715085197 1.69608954389042021482 5.23059782416556284801 1.69608954389042021482 3.46334368402799075426 1.69608954389042021482 1.69608954389042021482 -0.07116459624715085197 -0.07116459624715085197 -1.83841873638472197428 -1.83841873638472197428 -1.83841873638472197428 1.69608954389042021482 -1.83841873638472197428 1.69608954389042021482 1.69608954389042021482 1.69608954389042021482 -3.60567287652229317985 -0.07116459624715085197 -3.60567287652229317985 -1.83841873638472197428 -3.60567287652229317985 -0.07116459624715085197 -1.83841873638472197428 -1.83841873638472197428 -3.60567287652229317985 -1.83841873638472197428 -8.90743529693500768474 -7.14018115679743470281 -5.37292701665986438542 -5.37292701665986438542 -1.83841873638472197428 -3.60567287652229317985 -3.60567287652229317985 -5.37292701665986438542 -5.37292701665986438542 -1.83841873638472197428 -7.14018115679743470281 -10.67468943707257800213 -8.90743529693500768474 -5.37292701665986438542 -5.37292701665986438542 -3.60567287652229317985 -5.37292701665986438542 -5.37292701665986438542 -10.67468943707257800213 -8.90743529693500768474 -10.67468943707257800213 -8.90743529693500768474 -7.14018115679743470281 -8.90743529693500768474 -7.14018115679743470281 -8.90743529693500768474 -10.67468943707257800213 -10.67468943707257800213 -7.14018115679743470281 -8.90743529693500768474 -7.14018115679743470281 -10.67468943707257800213 -8.90743529693500768474 -7.14018115679743470281 -7.14018115679743470281 -12.44194357721014831952 -8.90743529693500768474 -10.67468943707257800213 -10.67468943707257800213 -7.14018115679743470281 -7.14018115679743470281 -8.90743529693500768474 -7.14018115679743470281 -8.90743529693500768474 -7.14018115679743470281 -10.67468943707257800213 -5.37292701665986438542 -3.60567287652229317985 -7.14018115679743470281 -7.14018115679743470281 -8.90743529693500768474 -10.67468943707257800213 -12.44194357721014831952 -7.14018115679743470281 -8.90743529693500768474 -10.67468943707257800213 -10.67468943707257800213 -10.67468943707257800213 -14.20919771734771863692 -10.67468943707257800213 -10.67468943707257800213 -10.67468943707257800213 -10.67468943707257800213 -10.67468943707257800213 -8.90743529693500768474 -10.67468943707257800213 -12.44194357721014831952 -10.67468943707257800213 -10.67468943707257800213 -8.90743529693500768474 -10.67468943707257800213 -10.67468943707257800213 -8.90743529693500768474 -8.90743529693500768474 -8.90743529693500768474 -8.90743529693500768474 -7.14018115679743470281 -12.44194357721014831952 -12.44194357721014831952 -8.90743529693500768474 -8.90743529693500768474 -5.37292701665986438542 -8.90743529693500768474 -7.14018115679743470281 -7.14018115679743470281 -5.37292701665986438542 -8.90743529693500768474 -7.14018115679743470281 -5.37292701665986438542 -3.60567287652229317985 -5.37292701665986438542 -7.14018115679743470281 -7.14018115679743470281 -5.37292701665986438542 -1.83841873638472197428 -3.60567287652229317985 -0.07116459624715085197 1.69608954389042021482 -0.07116459624715085197 -3.60567287652229317985 -1.83841873638472197428 -0.07116459624715085197 -1.83841873638472197428 -1.83841873638472197428 -3.60567287652229317985 -3.60567287652229317985 -1.83841873638472197428 -3.60567287652229317985 -0.07116459624715085197 -1.83841873638472197428 -1.83841873638472197428 1.69608954389042021482 -5.37292701665986438542 -3.60567287652229317985 -1.83841873638472197428 -0.07116459624715085197 1.69608954389042021482 3.46334368402799075426 3.46334368402799075426 1.69608954389042021482 3.46334368402799075426 -1.83841873638472197428 1.69608954389042021482 -0.07116459624715085197 1.69608954389042021482 -1.83841873638472197428 -3.60567287652229317985 -3.60567287652229317985 -5.37292701665986438542 -5.37292701665986438542 -5.37292701665986438542 -1.83841873638472197428 -3.60567287652229317985 -1.83841873638472197428 -5.37292701665986438542 -5.37292701665986438542 -0.07116459624715085197 -1.83841873638472197428 -3.60567287652229317985 -7.14018115679743470281 -7.14018115679743470281 -3.60567287652229317985 -1.83841873638472197428 -0.07116459624715085197 -7.14018115679743470281 -7.14018115679743470281 -5.37292701665986438542 -1.83841873638472197428 -5.37292701665986438542 -3.60567287652229317985 -1.83841873638472197428 -7.14018115679743470281 -1.83841873638472197428 -1.83841873638472197428 -1.83841873638472197428 -3.60567287652229317985 -1.83841873638472197428 -3.60567287652229317985 -5.37292701665986438542 -1.83841873638472197428 -0.07116459624715085197 -1.83841873638472197428 -8.90743529693500768474 -7.14018115679743470281 -5.37292701665986438542 -1.83841873638472197428 -3.60567287652229317985 -5.37292701665986438542 -0.07116459624715085197 -5.37292701665986438542 -1.83841873638472197428 -0.07116459624715085197 -3.60567287652229317985 -3.60567287652229317985 -3.60567287652229317985 -5.37292701665986438542 -7.14018115679743470281 -5.37292701665986438542 -7.14018115679743470281 -5.37292701665986438542 -1.83841873638472197428 -1.83841873638472197428 -0.07116459624715085197 -7.14018115679743470281 -7.14018115679743470281 -5.37292701665986438542 -8.90743529693500768474 -7.14018115679743470281 -3.60567287652229317985 -8.90743529693500768474 -8.90743529693500768474 -8.90743529693500768474 -10.67468943707257800213 -7.14018115679743470281 -5.37292701665986438542 -7.14018115679743470281 -8.90743529693500768474 -7.14018115679743470281 -10.67468943707257800213 -5.37292701665986438542 -8.90743529693500768474 -10.67468943707257800213 -8.90743529693500768474 -10.67468943707257800213 -8.90743529693500768474 -5.37292701665986438542 -8.90743529693500768474 -5.37292701665986438542 -10.67468943707257800213 -7.14018115679743470281 -5.37292701665986438542 -5.37292701665986438542 -7.14018115679743470281 -1.83841873638472197428 -3.60567287652229317985 -3.60567287652229317985 -7.14018115679743470281 -7.14018115679743470281 -5.37292701665986438542 -7.14018115679743470281 -7.14018115679743470281 -8.90743529693500768474 -7.14018115679743470281 -8.90743529693500768474 -7.14018115679743470281 -12.44194357721014831952 -8.90743529693500768474 -5.37292701665986438542 -5.37292701665986438542 -10.67468943707257800213 -10.67468943707257800213 -7.14018115679743470281 -3.60567287652229317985 -3.60567287652229317985 -7.14018115679743470281 -5.37292701665986438542 -3.60567287652229317985 -3.60567287652229317985 -7.14018115679743470281 -5.37292701665986438542 -7.14018115679743470281 -5.37292701665986438542 -8.90743529693500768474 -8.90743529693500768474 -1.83841873638472197428 -8.90743529693500768474 -8.90743529693500768474 -7.14018115679743470281 -8.90743529693500768474 -8.90743529693500768474 -7.14018115679743470281 -7.14018115679743470281 -7.14018115679743470281 -10.67468943707257800213 -7.14018115679743470281 -8.90743529693500768474 -3.60567287652229317985 -7.14018115679743470281 -5.37292701665986438542 -8.90743529693500768474 -8.90743529693500768474 -5.37292701665986438542 -5.37292701665986438542 -5.37292701665986438542 -5.37292701665986438542 -8.90743529693500768474 -10.67468943707257800213 -8.90743529693500768474 -7.14018115679743470281 -7.14018115679743470281 -10.67468943707257800213 -8.90743529693500768474 -8.90743529693500768474 -12.44194357721014831952 -14.20919771734771863692 -12.44194357721014831952 -10.67468943707257800213 -7.14018115679743470281 -8.90743529693500768474 -10.67468943707257800213 -12.44194357721014831952 -14.20919771734771863692 -12.44194357721014831952 -17.74370599762286460077 -14.20919771734771863692 -12.44194357721014831952 -14.20919771734771863692 -14.20919771734771863692 -10.67468943707257800213 -14.20919771734771863692 -15.97645185748529073066 -14.20919771734771863692 -14.20919771734771863692 -17.74370599762286460077 -15.97645185748529073066 -12.44194357721014831952 -14.20919771734771863692 -15.97645185748529073066 -12.44194357721014831952 -14.20919771734771863692 -15.97645185748529073066 -15.97645185748529073066 -10.67468943707257800213 -8.90743529693500768474 -14.20919771734771863692 -12.44194357721014831952 -10.67468943707257800213 -14.20919771734771863692 -8.90743529693500768474 -12.44194357721014831952 -8.90743529693500768474 -8.90743529693500768474 -10.67468943707257800213 -14.20919771734771863692 -8.90743529693500768474 -10.67468943707257800213 -10.67468943707257800213 -10.67468943707257800213 -7.14018115679743470281 -8.90743529693500768474 -10.67468943707257800213 -14.20919771734771863692 -8.90743529693500768474 -5.37292701665986438542 -8.90743529693500768474 -7.14018115679743470281 -5.37292701665986438542 -8.90743529693500768474 -8.90743529693500768474 -8.90743529693500768474 -7.14018115679743470281 -5.37292701665986438542 -3.60567287652229317985 -7.14018115679743470281 -7.14018115679743470281 -5.37292701665986438542 -7.14018115679743470281 -8.90743529693500768474 -3.60567287652229317985 -1.83841873638472197428 -0.07116459624715085197 -1.83841873638472197428 -3.60567287652229317985 -3.60567287652229317985 -7.14018115679743470281 -5.37292701665986438542 -7.14018115679743470281 -5.37292701665986438542 -3.60567287652229317985 -3.60567287652229317985 -3.60567287652229317985 -3.60567287652229317985 -5.37292701665986438542 -1.83841873638472197428 -3.60567287652229317985 -1.83841873638472197428 -1.83841873638472197428 -3.60567287652229317985 -0.07116459624715085197 -1.83841873638472197428 -3.60567287652229317985 -1.83841873638472197428 -7.14018115679743470281 -5.37292701665986438542 -1.83841873638472197428 -1.83841873638472197428 -0.07116459624715085197 -0.07116459624715085197 -5.37292701665986438542 -7.14018115679743470281 -5.37292701665986438542 -7.14018115679743470281 -5.37292701665986438542 -5.37292701665986438542 -0.07116459624715085197 -1.83841873638472197428 -1.83841873638472197428 -7.14018115679743470281 -3.60567287652229317985 -3.60567287652229317985 -10.67468943707257800213 -3.60567287652229317985 -1.83841873638472197428 -1.83841873638472197428 -3.60567287652229317985 -5.37292701665986438542 -3.60567287652229317985 -3.60567287652229317985 -3.60567287652229317985 -3.60567287652229317985 -0.07116459624715085197 -1.83841873638472197428 -1.83841873638472197428 -3.60567287652229317985 -7.14018115679743470281 -0.07116459624715085197 -3.60567287652229317985 -1.83841873638472197428 -1.83841873638472197428 -0.07116459624715085197 -3.60567287652229317985 -0.07116459624715085197 -1.83841873638472197428 -3.60567287652229317985 -5.37292701665986438542 -7.14018115679743470281 -3.60567287652229317985 -1.83841873638472197428 -1.83841873638472197428 -3.60567287652229317985 -3.60567287652229317985 -1.83841873638472197428 -1.83841873638472197428 -3.60567287652229317985 -5.37292701665986438542 -3.60567287652229317985 -1.83841873638472197428 -1.83841873638472197428 -5.37292701665986438542 -7.14018115679743470281 -3.60567287652229317985 -5.37292701665986438542 -5.37292701665986438542 -1.83841873638472197428 -3.60567287652229317985 -1.83841873638472197428 -3.60567287652229317985 -3.60567287652229317985 -3.60567287652229317985 -1.83841873638472197428 -7.14018115679743470281 -0.07116459624715085197 -0.07116459624715085197 1.69608954389042021482 -0.07116459624715085197 -3.60567287652229317985 -0.07116459624715085197 -1.83841873638472197428 -1.83841873638472197428 -0.07116459624715085197 -3.60567287652229317985 -1.83841873638472197428 -1.83841873638472197428 -1.83841873638472197428 -0.07116459624715085197 -5.37292701665986438542 -5.37292701665986438542 -1.83841873638472197428 -5.37292701665986438542 -0.07116459624715085197 -0.07116459624715085197 -0.07116459624715085197 -0.07116459624715085197 -0.07116459624715085197 -1.83841873638472197428 -3.60567287652229317985 -1.83841873638472197428 3.46334368402799075426 -0.07116459624715085197 -0.07116459624715085197 -0.07116459624715085197 3.46334368402799075426 -0.07116459624715085197 -1.83841873638472197428 -5.37292701665986438542 -1.83841873638472197428 1.69608954389042021482 -0.07116459624715085197 1.69608954389042021482 -1.83841873638472197428 -3.60567287652229317985 -1.83841873638472197428 -0.07116459624715085197 -1.83841873638472197428 -1.83841873638472197428 -0.07116459624715085197 3.46334368402799075426 1.69608954389042021482 -0.07116459624715085197 -0.07116459624715085197 -3.60567287652229317985 -1.83841873638472197428 -3.60567287652229317985 -1.83841873638472197428 1.69608954389042021482 -3.60567287652229317985 -0.07116459624715085197 -0.07116459624715085197 -1.83841873638472197428 -0.07116459624715085197 -1.83841873638472197428 -1.83841873638472197428 -0.07116459624715085197 -0.07116459624715085197 -0.07116459624715085197 -1.83841873638472197428 -0.07116459624715085197 -1.83841873638472197428 -3.60567287652229317985 -3.60567287652229317985 1.69608954389042021482 1.69608954389042021482 3.46334368402799075426 -0.07116459624715085197 1.69608954389042021482 -1.83841873638472197428 -1.83841873638472197428 -0.07116459624715085197 1.69608954389042021482 3.46334368402799075426 -1.83841873638472197428 -0.07116459624715085197 -0.07116459624715085197 -0.07116459624715085197 -0.07116459624715085197 -0.07116459624715085197 -1.83841873638472197428 -1.83841873638472197428 -0.07116459624715085197 -1.83841873638472197428 -3.60567287652229317985 -0.07116459624715085197 1.69608954389042021482 -0.07116459624715085197 -1.83841873638472197428 -1.83841873638472197428 -0.07116459624715085197 3.46334368402799075426 -5.37292701665986438542 -3.60567287652229317985 -7.14018115679743470281 -8.90743529693500768474 -1.83841873638472197428 -5.37292701665986438542 -1.83841873638472197428 -5.37292701665986438542 -3.60567287652229317985 -1.83841873638472197428 -3.60567287652229317985 -7.14018115679743470281 -7.14018115679743470281 -7.14018115679743470281 -3.60567287652229317985 -5.37292701665986438542 -5.37292701665986438542 -5.37292701665986438542 -7.14018115679743470281 -7.14018115679743470281 -5.37292701665986438542 -8.90743529693500768474 -8.90743529693500768474 -12.44194357721014831952 -5.37292701665986438542 -8.90743529693500768474 -5.37292701665986438542 -8.90743529693500768474 -5.37292701665986438542 -8.90743529693500768474 -7.14018115679743470281 -14.20919771734771863692 -12.44194357721014831952 -8.90743529693500768474 -5.37292701665986438542 -7.14018115679743470281 -3.60567287652229317985 -8.90743529693500768474 -10.67468943707257800213 -12.44194357721014831952 -8.90743529693500768474 -10.67468943707257800213 -7.14018115679743470281 -8.90743529693500768474 -7.14018115679743470281 -7.14018115679743470281 -7.14018115679743470281 -10.67468943707257800213 -8.90743529693500768474 -8.90743529693500768474 -10.67468943707257800213 -10.67468943707257800213 -7.14018115679743470281 -8.90743529693500768474 -5.37292701665986438542 -7.14018115679743470281 -7.14018115679743470281 -7.14018115679743470281 -7.14018115679743470281 -10.67468943707257800213 -12.44194357721014831952 -5.37292701665986438542 -5.37292701665986438542 -5.37292701665986438542 -1.83841873638472197428 -5.37292701665986438542 -3.60567287652229317985 -7.14018115679743470281 -5.37292701665986438542 -7.14018115679743470281 -3.60567287652229317985 -5.37292701665986438542 -3.60567287652229317985 -1.83841873638472197428 -5.37292701665986438542 -0.07116459624715085197 -5.37292701665986438542 -3.60567287652229317985 -5.37292701665986438542 -3.60567287652229317985 -1.83841873638472197428 -3.60567287652229317985 -3.60567287652229317985 -7.14018115679743470281 -3.60567287652229317985 -5.37292701665986438542 -5.37292701665986438542 -5.37292701665986438542 -1.83841873638472197428 -0.07116459624715085197 -1.83841873638472197428 