-0.605803 -0.568303 -0.530988 0.472061 -1.422831 -1.386070 0.582344 1.584657 1.620867 2.305440 1.887107 -0.557058 -1.286658 0.364189 2.901730 -0.554672 -0.153425 -1.740626 -0.304817 -1.376085 0.851113 -0.062827 0.147917 -0.022532 0.460571 2.309342 0.495009 1.441152 0.047048 0.539610 0.308204 1.304646 -0.327163 0.978313 -0.401674 -0.691910 1.303751 -0.133495 -1.722641 -0.185685 -0.113729 -0.894257 -0.815278 0.363303 -2.287101 0.399383 -0.079450 -1.457349 0.570515 0.310368 -1.287298 1.708016 0.131358 -1.214108 -0.953300 -0.341502 -0.290840 -0.570788 -1.375464 -1.646676 -1.077574 -0.767922 1.043025 1.152036 0.777468 0.693375 -0.748423 0.009275 0.858969 0.387392 -0.085043 2.353612 -1.865564 -3.183730 0.569528 -0.468173 0.005363 0.243903 0.358355 -1.484972 -1.325708 -0.613068 1.231136 -0.634736 -0.470411 -1.292753 -0.569424 -1.342967 -0.738596 -2.464608 -0.841153 0.611042 -1.488141 0.580346 1.268146 -0.629444 0.546829 -1.847503 0.674642 -0.081336 -0.077880 0.309053 -1.255515 1.628774 -0.534395 -0.091448 -0.176050 -0.672673 -1.711694 -0.208204 1.159757 -0.321208 -0.312881 0.099649 -0.531562 -1.223117 -1.517487 -0.362679 0.906862 0.993046 -1.062438 0.543743 0.605191 -0.189349 -2.629003 1.012591 0.817423 0.970229 0.336831 0.059848 -0.661578 2.414876 -0.103668 0.095633 1.458836 0.213634 -0.069935 -2.211068 2.173691 2.554685 0.785980 0.679449 0.311437 -0.478167 0.697300 0.473241 0.114506 0.528023 1.166593 -0.810132 0.696452 0.676366 0.580061 0.207502 0.380234 0.965454 0.610070 -1.130346 -1.274438 0.041939 0.581740 0.879845 -0.304658 0.866979 -0.147227 1.951439 -1.107989 -1.937516 -1.464628 0.494748 -0.522552 2.004470 -0.496223 -0.650896 1.583667 0.784648 -1.169902 -0.570890 -0.571214 -0.908425 0.741814 -1.222729 0.094999 0.861445 -0.808103 1.296681 0.200871 0.162563 0.830153 -0.134897 -0.958421 -0.534689 1.244861 2.274970 -1.170127 1.376090 0.314766 -1.254455 0.078821 -0.600309 0.761534 -1.622033 1.459458 0.882775 0.010753 -0.649279 -0.544246 1.089001 0.573090 0.964788 0.658243 -1.994821 -0.245465 0.896237 -0.373828 -1.314720 -0.888946 0.820523 -0.631365 -0.273032 0.941120 -0.165730 0.654698 -0.945647 0.432002 -0.814901 1.097675 0.442975 -1.202318 -0.036305 -1.408015 -0.250214 -1.151117 0.033094 2.076699 0.460562 0.437873 -1.585392 0.276106 -0.770044 -0.575236 -0.924814 -0.030247 0.143865 0.237794 0.392251 0.781372 -0.122789 0.172112 0.172726 1.673524 -0.078484 0.844155 0.658042 -1.787668 -0.213292 0.911016 0.264412 1.507748 1.079020 0.022423 -0.559649 0.209731 1.141751 0.513728 1.022964 0.598999 0.386300 -1.237586 1.337187 -0.794180 2.003700 1.003132 0.076836 -0.098889 -0.326303 -0.254748 -0.917345 0.053594 -2.818321 -1.400331 -0.448908 0.420744 -0.982160 1.494107 0.215265 0.480482 -0.322958 -0.486888 0.196337 -0.121820 -0.405428 0.453324 0.200949 -1.472730 0.107415 0.285182 -0.737009 -1.585595 -0.192395 0.327114 -0.107663 0.873570 0.909494 -1.001154 1.313956 -0.482674 -1.137817 -0.232751 0.565258 0.673270 -1.312961 0.294340 -1.376826 -0.083984 0.851004 -1.038259 -1.967189 1.965875 1.092523 0.724688 0.874124 -0.397173 0.413498 -0.344883 -2.503053 1.240060 -1.483859 0.207703 -0.914209 0.729302 0.341006 1.427775 0.497049 -1.012166 -0.844407 -0.579094 -0.035001 2.244761 -0.326210 -1.902165 0.683150 0.873920 -0.334641 -0.958492 -0.545876 0.637419 1.721595 -0.197343 0.174477 0.277822 -0.482272 -0.270445 -0.839489 -0.067790 -1.609757 -0.437779 1.384205 -0.795325 -0.440876 0.063428 1.940596 0.219672 -0.484819 -1.003196 0.801039 1.059473 -0.031105 1.005741 -0.104934 -0.135572 -0.747711 -1.024937 -0.995723 2.243014 -1.414298 0.732314 -1.017092 0.504393 1.056430 1.198711 -0.853887 1.012677 -0.238529 0.665676 0.442784 -0.234224 1.294980 -0.814579 -0.320039 -1.087918 0.971675 -0.596875 1.214944 1.770161 -0.404538 -0.112656 1.415906 -0.638226 0.214884 0.165704 -0.111874 1.104695 -0.744406 -0.278330 0.740293 1.627455 -1.627845 -0.085062 0.049594 -0.351620 1.198094 2.036837 0.407033 2.135085 0.398654 0.725451 -2.006408 0.626607 0.681565 0.765735 -1.525852 0.047186 0.126686 -0.609626 0.718721 -0.137676 -0.510800 1.971825 -1.132921 0.969378 -0.044750 -0.605412 -0.639668 -1.922874 -0.693699 1.514477 -0.928104 0.040627 1.147151 -0.557519 0.523685 -0.808971 0.340368 1.329095 -0.907663 0.061427 0.997899 -0.871342 -0.660626 -1.760139 -0.423978 2.492350 -1.093569 0.835846 -0.043162 0.391114 -1.473676 0.497386 -0.814974 0.522167 0.038074 0.021444 -0.072200 -0.526844 -0.144200 0.031692 -0.938448 -0.967888 0.855541 -0.574342 0.340483 0.501392 0.592736 -0.466605 0.968640 -1.081298 0.803466 0.362151 1.029584 -1.269498 -0.480392 -0.264052 0.691765 -1.480741 0.734645 0.220519 0.003499 0.054796 -1.219024 0.834043 -0.377977 -1.177220 0.748354 0.435094 2.584888 1.052171 1.328426 -1.410722 -0.418293 1.454197 -0.182839 1.010834 -0.392695 -1.226298 0.177072 0.672644 0.410376 0.202651 0.155358 -0.055166 2.594007 1.902030 1.445781 -1.302417 1.477034 0.111971 -1.684052 -0.526100 0.277188 0.250024 -0.820275 0.776994 -0.212929 -0.863531 0.596204 0.511196 1.676062 0.948947 -0.951892 2.231624 1.855927 -0.373912 -0.024801 -0.529792 -0.777933 0.944640 -0.263107 -1.430944 -0.983063 0.474845 -1.568335 -0.074473 1.681552 0.820927 -1.345711 -0.301927 1.792760 -0.762409 -0.452549 1.625284 -0.998427 -0.948961 -0.221754 0.788983 0.974003 -0.937202 0.421214 0.313361 -1.489601 0.810687 1.487108 1.518412 -0.839318 0.875745 -0.091106 0.050830 0.957723 -0.163154 -0.527281 1.353833 0.086106 0.955046 0.045586 -1.390183 -0.098619 -3.418789 0.021874 -0.557318 -0.778452 -0.159301 1.149047 1.681772 -0.182807 -0.297400 0.162674 -0.070902 0.501521 0.971339 -0.513165 0.461745 -1.137456 -0.352605 1.555953 1.019480 0.357357 0.363549 -0.408578 0.682755 0.661936 -2.039130 1.141360 -1.177690 2.453828 -0.331438 0.250391 -0.732396 -0.843805 -0.666975 -0.387447 0.157584 -0.306792 0.451210 -1.307688 -0.565675 1.602588 1.094414 2.305502 -0.889434 -0.288527 0.811053 -0.142727 -0.287328 0.733604 0.157420 -0.146485 -1.574550 0.176369 -0.010145 -0.132776 -1.935976 -0.317767 0.348957 -0.831340 1.180099 -0.721530 0.355207 -2.264033 0.632007 0.951372 0.450294 0.847095 -0.804647 -0.452503 0.860966 -1.866153 -0.476151 -1.335190 -0.418897 -1.670495 -0.105756 -0.287965 -1.040083 -0.653379 -0.989203 0.895394 -0.446674 -2.094939 0.335099 0.180452 0.634652 1.373687 -0.522804 -1.182333 0.386091 -0.522965 0.246992 0.829947 0.339113 -0.005973 -1.350403 0.323032 1.088500 -0.291893 -1.163996 -0.678136 -2.411216 -0.055378 -1.039871 2.529074 1.196989 0.185759 0.488831 0.306530 1.139798 0.086797 1.663486 -0.102226 -1.120058 -1.526898 0.977002 -1.395858 -0.949062 0.966109 -0.386511 0.212154 -0.291886 0.867314 1.315702 0.184692 -0.556012 -0.135069 -0.230674 1.373338 -0.938589 0.266627 0.092407 0.927865 -0.246396 -1.395113 -1.719906 1.308353 2.796416 -0.904497 0.442531 0.715957 -0.304142 -0.786225 0.093736 -0.366718 -1.644475 -1.341898 0.774315 0.947164 -0.323404 -0.645075 1.645337 0.245815 1.080699 -0.727577 -0.378603 -0.575084 2.121900 0.246169 0.307583 1.113537 -0.607337 -1.188487 -1.115772 0.799951 1.576768 0.620136 1.293250 0.366086 0.591984 0.094217 1.349852 -0.911014 -1.623358 1.174173 -1.212225 0.503718 -0.305885 -0.043095 0.716934 -0.822935 0.372525 -2.134232 0.071568 1.480356 -0.168141 0.567771 -0.033191 0.031643 0.286096 0.458937 -0.518486 2.898625 1.593874 -1.414242 0.343394 -0.917342 -0.855101 0.245949 -1.596660 0.946930 0.281468 0.132734 -0.508408 1.875963 -1.288793 -1.411015 -0.041978 0.746797 0.493001 -1.298979 -0.741979 0.457923 0.236659 -0.560143 -0.116863 -0.221769 1.321405 -0.950970 1.329961 -0.816902 1.277026 -0.118661 -0.501564 -0.504758 -0.105877 0.305920 1.089419 -1.133464 -0.525208 -0.268830 -0.943908 -1.525418 -0.119756 1.203686 -0.453688 -1.094834 -0.319344 -0.127933 -1.013481 1.161206 -1.080972 -0.053380 -0.175770 3.388409 -1.413670 -0.317819 1.684839 -2.083722 0.038151 0.366069 -1.863076 -0.753746 1.265921 -0.277205 -0.166756 -1.459573 -1.467561 -0.332296 0.509508 -0.033032 -0.209125 0.660881 0.516464 0.539887 0.708178 -0.151522 0.715533 0.418672 -2.243396 0.246201 -0.809996 1.706413 -0.050509 0.293566 0.173549 -0.301828 -1.011296 -1.175667 0.624904 2.449093 1.119174 0.870690 -1.352426 0.521020 1.297128 -0.756887 1.780766 0.959032 -1.277922 -0.657599 0.055795 -0.064485 -0.208949 -0.987366 -1.497703 0.465956 1.721719 0.157836 0.251614 -0.264502 2.478967 -1.711406 -0.688674 -1.310180 0.679478 0.420259 -0.424114 0.415045 0.521814 1.114304 -0.568451 0.017691 0.817007 0.398287 1.608601 1.115177 0.795847 0.733519 0.064142 -0.485827 -0.132259 -0.227148 -1.170921 0.620398 2.550232 -2.506411 0.434415 1.369430 1.005540 1.173465 -0.325865 -0.884705 -0.471061 1.997802 0.288921 -0.605731 0.502973 1.317379 -0.122392 -0.462364 0.000417 -0.007588 1.308386 1.526343 -0.542642 1.440009 0.335174 -0.275009 -2.311312 0.537028 0.599281 0.014707 1.318317 0.277956 1.055099 -1.357292 -0.160309 1.534069 0.020005 -1.864310 -0.927417 1.653201 -0.134649 0.729323 -1.625274 -2.135087 -0.611200 0.424967 2.858512 1.330527 -1.427663 0.472847 -0.746495 -0.925705 -0.566907 -0.474541 -1.643845 0.215213 -0.890018 -0.443027 1.205078 0.941157 -0.188291 0.189324 -1.171395 0.189991 1.417941 -0.045729 -0.927501 1.132476 -0.060455 1.579888 -0.581254 -1.405944 -0.115067 -0.039748 0.440937 0.090377 0.829035 0.477214 -0.300326 -0.647777 -0.836838 0.221506 0.673783 0.159017 0.008583 0.885174 -0.893828 0.508211 -0.344946 -0.813131 0.846538 -0.307453 0.431404 -0.537563 -0.100993 -0.068136 0.098917 -0.013148 0.825584 1.120433 0.723994 -0.196004 2.423341 1.527965 1.084912 2.306072 -1.134550 -0.398335 -0.767145 -1.757305 -1.397668 -1.020025 -0.306173 -0.535160 -1.172630 -0.534035 -0.210304 1.339665 -1.449196 0.038703 -0.008063 0.803457 -0.586141 0.682271 1.765087 -0.322935 -0.170342 -2.645156 -0.606870 0.057849 -0.197561 1.558216 -1.311366 -0.714933 1.274197 0.948045 -1.018938 1.119077 -0.081847 0.717898 -1.282451 1.852506 -0.637013 -0.209402 -0.264290 -1.247722 -0.291816 -0.882673 -1.414920 0.479503 0.843040 -0.421452 -0.940784 1.194673 -1.442002 -0.829873 -0.518468 -1.720571 0.015880 0.590515 0.130442 -0.061756 -0.571321 0.612851 -0.323210 0.582610 -2.670076 -0.727884 -2.191081 -1.319860 0.074995 -0.063455 -0.503453 0.517510 -0.335581 -0.743387 -1.839101 -0.958556 -0.842744 -0.860038 -0.195047 1.163800 -1.006596 -0.481123 0.624720 -0.936098 -0.724146 -2.667304 0.567324 -0.181499 -0.365396 0.171227 -1.177260 -0.061690 -0.670854 -1.147640 -0.869172 -0.660998 -0.012310 -0.262976 -0.343200 -0.993920 -1.316204 -0.084970 0.543234 -0.732565 1.598217 0.073516 0.067821 0.034906 0.289025 0.758025 0.376121 1.561224 0.126571 0.094964 -0.607463 -0.191928 0.458310 0.883890 0.251118 0.090995 1.549676 0.994898 1.356041 0.194362 0.351142 0.978767 -0.827591 0.167904 0.067146 -0.059423 1.214976 0.725633 1.893906 0.467047 2.005403 -0.075377 0.952722 0.613455 0.527673 -0.588417 1.224074 0.656084 -1.068749 0.104209 1.039510 1.253247 1.330953 0.226290 -0.345290 0.738899 1.314467 -2.131527 0.171507 0.201595 -2.139928 -0.842189 -1.762509 -0.461000 0.090394 -1.485297 -0.951859 0.189880 -1.359031 1.252529 1.423683 -0.566500 -1.102774 -0.308162 2.804476 -2.934231 1.801949 -1.672063 -3.093103 -2.183206 1.819720 -0.231770 -2.084083 -1.918831 -0.020455 -0.335690 -0.392718 -0.284939 -0.928704 0.753985 0.414462 0.210433 0.114095 0.207044 -1.347043 -0.808359 -1.252842 -0.171678 -0.480813 0.269746 0.737457 -1.044439 -0.569055 0.573603 1.769453 1.552294 0.144866 -1.160630 1.027697 0.660239 1.700169 -1.333877 0.827752 -0.191404 -0.114813 1.290516 0.866542 -1.084497 -0.577448 1.364258 0.732675 1.656506 -0.368086 0.750786 1.286923 0.924215 1.274406 -0.537724 -0.179045 2.182745 0.566138 0.230663 -0.422023 0.036057 -0.023354 0.707012 1.160155 -0.092207 0.730954 -0.064567 -1.377024 -0.022328 -1.427297 1.150834 0.479285 0.219503 0.881094 0.097387 0.245539 -0.423938 -0.859738 0.172616 0.710582 1.005588 -0.209321 -1.433634 -0.611396 -0.997958 0.014139 2.781618 -1.503431 -0.999933 0.501219 -1.681890 0.244992 -1.299427 1.357663 -1.079823 -0.595063 -0.309998 -0.798195 0.142990 -2.202323 0.115479 0.680318 0.246766 1.500513 -0.392126 -0.091906 -1.387192 -0.626154 -1.316728 -0.270150 -1.296383 -0.276575 0.440320 -1.274631 0.751824 -0.899707 0.207205 0.054265 0.055574 0.623111 0.373764 0.230292 0.204513 -0.529654 -0.280896 0.567057 0.244879 -0.010499 -0.016824 1.551493 -1.312121 0.795888 -0.887502 -0.595617 -0.509236 -0.339473 0.282533 2.324589 -1.680232 0.588006 1.428355 -0.527859 0.333598 1.183967 -0.168248 2.014312 -0.838919 -1.197167 0.878056 0.656781 -1.380201 0.647945 1.186050 0.535284 0.393786 0.586613 0.462694 -0.380033 -0.831446 2.524874 0.610559 -0.521334 1.366630 0.376557 -0.498964 0.670361 0.575145 0.131074 0.052322 0.923228 -0.973015 -0.519206 -0.167585 -0.899487 -0.742906 1.759495 0.165349 0.763832 -0.026761 1.070100 -0.732828 1.301981 -1.473302 -0.271832 1.243096 -0.074152 0.582156 1.298742 -0.531578 1.346582 -0.376522 -0.153141 -1.732470 0.499422 -0.722251 0.091684 -0.002434 0.750274 1.309486 0.257341 -1.099273 1.059555 -0.811066 0.146193 0.765873 -0.418557 -0.417910 -0.853948 0.390936 0.170282 -1.423423 -0.939329 0.864629 -0.357182 1.218943 -0.685348 0.428705 -0.406130 0.002303 -0.792998 -1.349838 1.298222 2.124521 -1.876073 -0.980316 -0.292288 0.634952 -0.559613 -1.123274 0.620893 0.144751 1.695212 -1.130897 -0.451372 -0.174352 -1.583639 -0.362606 -0.451045 0.914608 0.240237 -0.490769 -0.850830 0.525295 -1.152428 1.574381 0.775588 1.094350 -0.136109 -0.479746 -0.033391 0.114483 0.793189 1.843229 0.195240 -1.373384 0.241217 -0.380877 0.501222 0.936531 -0.341766 -1.160290 0.210401 -1.287143 -0.062250 -0.950240 0.044396 2.870093 0.208532 -2.074418 -0.130856 1.082324 -0.249605 1.201983 -0.957943 0.773723 -0.248773 -0.574650 -1.125813 0.117360 -0.906060 -2.377618 -0.105477 -0.292993 -0.444351 -0.363083 0.674833 -1.147389 -2.170658 -1.227437 -0.150496 -1.359192 -1.254731 -1.065003 -0.073358 0.671940 -1.046462 0.225591 0.197532 -2.206817 0.130622 -2.393368 -1.048973 0.457693 -0.706384 -0.000135 0.809413 -1.644330 -0.107980 0.900613 -1.064903 0.546496 -1.351039 1.406136 -0.146830 0.091326 0.821104 -2.475317 0.049114 0.751684 1.072906 -0.570652 0.467642 0.412624 -1.144866 0.276575 1.030956 -1.193313 -0.218957 2.207974 -0.260294 -0.223623 1.750643 0.548987 0.309686 1.208485 0.887728 1.986285 -1.799617 -0.121675 -0.849472 0.257568 0.614985 1.010837 0.420555 -1.224246 -0.384733 -0.731280 -1.301371 0.488794 1.524174 1.365661 -1.607571 0.250234 -0.984994 0.415137 -0.649040 -1.481378 0.118048 0.589328 -0.557473 1.321823 0.303515 -0.378506 0.791507 -0.850380 -1.508360 0.386579 -0.798556 0.699475 0.223487 -1.361508 0.038993 -0.503071 0.605403 -1.450706 1.343459 -0.205423 -0.272079 -0.122774 0.953743 -1.010507 0.232154 0.967635 1.331644 0.655573 0.583910 0.593616 -1.842567 0.668872 -2.033285 2.465452 -0.574121 -0.546483 0.393724 0.570961 -0.239297 0.050196 0.140857 -0.070065 0.531348 -1.308117 1.521083 1.714908 -0.418925 -1.729191 -1.585708 1.490861 -1.006869 0.654492 -0.762291 -1.444991 0.782769 -0.827929 2.035773 1.150088 0.757384 0.599610 -0.133755 -0.597840 -0.286014 1.381531 -1.070916 1.472459 -0.815473 -0.377851 0.719750 -0.912888 0.266705 1.726376 0.145029 1.714654 -1.376150 2.090497 0.618413 -1.033598 -0.606526 -1.272002 -0.247710 0.332312 -0.957464 0.102191 -0.902876 0.544403 -1.168371 -1.469302 -1.021634 -0.085412 0.365949 0.755921 -0.513617 -0.150817 1.040243 0.198963 -0.566380 1.308307 -0.191153 1.372468 1.615784 -1.339704 0.195057 -0.480509 -0.099405 -0.262948 1.246746 0.484976 -1.598958 0.030871 1.194267 -0.900338 0.350592 1.019535 0.509109 0.191299 0.308398 -1.300223 0.128456 0.072273 1.729992 -0.110206 -0.115664 0.920412 -0.897582 0.572519 -1.223985 -0.874039 0.896159 -0.655684 0.295119 -0.771441 0.510112 1.382655 -1.594284 -0.737725 -1.368278 -0.194265 -0.453496 -0.678905 1.022306 1.347228 0.161676 2.400870 0.155083 -0.250628 0.082542 0.950524 0.287922 -0.158264 0.584233 -1.360624 0.201294 -0.513354 1.522484 -0.972315 0.230602 0.927472 -0.273493 -0.923687 -0.366965 -1.161587 0.096199 0.607320 0.173993 -0.078273 -0.843516 0.654269 -0.266058 0.817293 2.194547 1.207282 -0.034577 2.094433 -0.104890 -1.312611 1.113655 -0.324377 0.372861 -0.147846 -0.222314 0.754635 -0.280891 -2.378914 0.524641 -0.830108 0.190877 -0.281223 0.435136 1.018128 -0.906059 0.766270 0.828513 0.563113 0.486858 1.110067 -0.227518 -1.745188 -0.951314 1.140386 -0.481745 -0.443374 -0.446792 -1.197707 0.214727 1.940282 0.332529 0.293458 0.278947 0.486406 -0.288827 -0.866263 -0.565178 -2.378274 -0.076903 2.119504 -0.827614 0.433856 -0.373300 0.252089 0.623743 -0.303700 -1.032680 -0.111831 -0.529436 -0.432416 0.376099 1.034171 0.713365 -0.101619 -0.494971 -0.850865 -1.354269 0.700785 -0.089717 1.162597 1.284013 -3.324746 0.328004 0.515596 -1.292302 -0.832084 -1.104496 0.493060 -0.089061 -0.204855 -0.641316 0.559879 0.539781 0.615138 0.391226 0.195820 -0.007905 0.066484 0.919943 -1.131170 -1.512123 -0.935466 0.047218 -0.301950 -0.470190 1.160467 2.299896 -1.005667 0.119679 -1.233469 -0.590988 0.375267 0.580954 -0.248637 0.341431 0.121391 -1.162974 -1.120170 0.453796 1.753360 -0.206638 0.531803 0.228359 -0.631842 -0.826199 -1.036516 0.167506 0.552487 1.554949 -1.011899 -0.527673 -0.026909 -0.570087 -0.102003 0.712230 -1.742906 0.493011 0.816865 -0.389108 0.835917 -0.233778 0.126140 1.177124 1.505774 0.137267 0.120142 0.155640 0.302598 -0.589170 -0.267844 -0.307819 2.184711 -0.655406 0.677299 -1.997229 0.804317 1.441937 1.674643 -0.769154 2.276180 -0.392798 -2.188712 -0.088400 0.767763 0.804406 0.199544 -0.159373 0.998807 -1.768670 0.396206 -0.323494 -1.278596 -0.969540 -1.907991 -0.698260 -0.743201 -0.827322 -0.426171 -0.361371 -0.113052 -0.780677 -0.447565 -1.149576 -0.911871 -0.780570 0.904626 1.058231 1.374445 1.024432 -0.579168 0.278880 -0.240000 -0.143884 1.390963 -0.658113 0.145955 0.034180 0.069268 0.470464 -1.232039 1.150517 -1.135402 -0.109069 -0.115989 0.382052 -1.547684 -0.002236 -0.028358 0.015538 -2.650060 0.212178 1.462671 0.454310 0.269088 -0.459815 0.732852 -0.095750 -0.722144 -0.177750 0.305944 1.448500 0.651071 1.275591 -0.559250 -0.771296 -0.745897 1.311753 2.166454 0.805452 -1.357566 0.352467 -0.427303 0.992735 0.820735 -0.476009 -0.419104 0.396552 0.992761 -0.069981 -1.640632 0.108273 -0.054525 0.684937 -2.106632 -2.241483 -0.680859 0.727432 1.014168 -0.298715 0.657412 -0.156929 1.065114 -0.377063 -0.887862 -0.549052 0.794002 0.044016 1.481033 1.591216 -2.104032 0.241436 -1.761216 2.282082 -1.233439 0.138432 -0.842707 0.525750 -0.343972 0.953322 0.781912 -0.025555 -0.824130 0.706647 1.816799 0.163292 -0.051006 0.198284 0.144674 -0.431962 1.583743 2.611732 0.544495 -0.334068 0.292137 1.305386 0.225569 0.233875 0.214029 0.645817 1.081366 -0.089465 -0.594870 -1.723958 -0.132400 -0.045103 1.228002 -0.393718 -0.569548 0.653192 1.441516 1.276844 -1.242236 0.356813 -1.253037 -1.031122 -0.606908 -1.016898 -0.232216 1.094154 2.152719 0.073943 -0.297317 1.581843 0.521095 -1.027699 -0.541201 -1.589491 -1.542533 0.173630 1.361227 0.588010 -0.401969 -0.488969 0.457523 -0.968952 -0.389627 0.364787 0.291629 -0.375072 1.268504 -0.755739 -0.849391 0.043374 -0.526295 0.529126 -1.691446 0.983183 2.873051 -1.301285 0.678832 -0.614333 -0.943305 -0.783441 0.030077 -1.091281 0.148528 -0.585521 0.421706 -0.481909 -0.744065 0.040810 0.253283 -1.678218 1.439872 -0.488263 1.798539 -1.344467 0.076533 -0.959860 -0.593650 -0.118013 1.364215 0.213275 -0.053443 -1.026643 0.668986 1.424051 -0.537753 0.695945 0.513667 -0.015495 -1.506917 1.545445 -1.558437 -1.234437 0.202958 0.663065 0.240168 0.104653 0.123027 -0.352762 -0.246816 -0.559483 -1.283584 0.688267 -0.076648 1.275089 -0.065517 -1.685254 -0.402699 -0.050091 -0.006064 -0.054902 1.107309 -0.446496 1.167772 0.261960 -0.324893 0.360231 -1.323959 -1.624144 -0.251976 0.743368 -0.012685 -0.525955 -1.000032 -0.301218 0.149687 1.232270 -0.015552 -1.069994 -0.815142 0.217917 -0.042485 -0.096477 -0.981686 0.230084 -0.767533 0.411115 -2.166730 -2.387057 -0.679229 1.561159 0.442021 0.000767 -0.837797 0.710279 -0.065596 -0.427126 -0.001142 0.521164 0.561590 -0.769952 1.954841 0.535153 0.302445 0.890129 -0.040248 0.293786 -0.651821 2.638064 -0.083008 0.160017 -1.088626 -0.734164 -0.055752 -0.090195 -0.233252 1.413763 0.154237 0.279073 -0.520072 -0.719241 1.534000 0.111885 0.752956 0.526677 0.746801 -1.013728 1.198529 2.721793 0.058308 1.855617 1.563270 0.147040 -0.108399 0.010066 0.314008 0.762000 -0.784292 -1.270610 -0.143819 0.615094 -1.259604 -0.593175 1.311933 0.639747 0.368011 0.512136 1.342893 -0.627393 -0.212133 0.330175 0.910327 -0.488577 1.228827 2.401846 -0.173989 -0.578262 -0.462187 -0.919610 0.472175 -1.745322 -0.594784 -0.871455 0.384184 -0.389142 -0.204929 0.272661 1.251049 -0.695859 -0.035957 -1.668543 -1.190666 -1.052221 2.241751 -0.619193 1.853678 -1.101235 0.524431 0.338773 -0.344116 0.120708 -0.965648 -3.805618 0.090482 0.815124 0.267930 0.063193 0.120263 -0.258534 0.395381 0.637595 -0.885266 -0.911694 1.461363 0.527878 0.204255 0.234000 0.382973 -0.947057 -1.094144 -0.380414 -0.489186 0.677785 -0.012078 0.506888 -2.040259 1.376772 -0.183212 -1.685543 0.110695 2.148127 -0.751280 0.287609 0.894399 0.049062 -1.456574 2.016044 -0.998135 -0.741515 0.128389 1.461775 0.832815 -1.320756 -0.532910 -0.666361 0.207125 1.346373 1.358631 0.666367 -0.551981 -0.881311 -0.805848 0.492786 1.192380 -1.307202 -0.234391 0.479229 1.823798 -1.843759 0.810532 -0.743415 -0.601497 0.634513 -1.418502 -0.339192 0.409602 1.322503 -0.259728 -1.074599 0.725635 -0.221612 1.575991 -0.393903 0.261486 -0.596456 0.116017 -1.161926 -1.490008 0.626678 1.083191 0.249515 0.418843 0.184869 0.512823 -0.231067 -0.495694 1.580145 -0.151544 -0.327634 -0.966976 -0.762911 -2.065407 0.310931 -1.520166 0.474349 0.000116 -0.248027 0.012340 -1.492460 -0.759835 1.574415 -0.264362 0.782960 0.246430 0.030209 1.967833 -1.105274 0.576303 -1.826829 0.210268 -2.199415 -1.093273 -0.911831 -0.367459 -1.518592 0.827658 -0.490898 -0.842086 1.248809 0.257047 0.074213 -2.297746 0.009303 0.929135 -0.836729 0.342735 0.970377 0.309678 0.594195 -1.084156 0.691787 -1.288637 -1.868026 -2.006443 1.529403 0.357645 -0.262561 -1.014776 0.492485 -1.111174 -1.020201 -0.443920 1.191815 -1.711309 0.269674 -0.030745 1.536150 0.273084 -0.307903 0.241699 0.387144 0.128185 -0.582256 -0.801576 -0.711179 -0.040083 0.748000 0.403236 -0.600582 -0.223693 -0.794459 1.370458 -1.641356 -1.264219 1.531529 0.432282 -1.564168 0.885684 -0.325618 0.778073 -1.927024 1.527645 -0.724506 0.617421 0.441754 -0.621796 0.305978 -0.431872 2.110524 0.099674 1.330677 1.301518 0.595564 2.416639 0.185240 -1.482019 2.065396 -0.711553 1.296606 -0.180688 0.382032 1.191135 -0.261158 -1.419814 0.386949 -0.892022 -1.313552 0.495948 -0.841515 0.662891 -0.586958 -1.224107 0.523369 0.277075 0.308069 -0.464459 0.219826 0.206511 -0.171271 0.865539 0.618764 -0.515601 -0.150109 0.842619 -0.996983 -0.728387 -1.327109 -1.104165 1.486756 1.429368 -0.048885 0.943697 0.750408 0.245030 0.653435 0.753875 -0.363447 -3.106792 -0.538546 -0.584694 0.680050 -0.667267 0.233496 0.216197 -0.564568 0.965413 0.275723 -0.006632 0.035627 1.339988 0.032345 -0.956409 0.368834 0.330122 0.995244 -0.015011 -0.007650 1.726857 -0.781148 -0.232771 0.948270 -0.437018 -1.074604 0.064648 -0.855127 -1.577457 -0.477136 0.480691 -0.820873 -1.556994 0.778548 -2.061213 0.234549 1.100035 0.508624 1.048767 -1.909703 0.758740 0.744035 1.062973 -0.567263 -0.621147 -0.514965 -0.494387 0.377524 1.241461 -0.453512 1.403404 -0.759725 -0.075582 0.230640 0.126937 1.718338 -0.826320 -0.674955 -1.125686 0.648945 -0.252589 -1.923778 -1.227348 -1.073527 1.271604 0.760193 -0.493639 -0.948464 0.124394 0.327527 1.356993 -1.549389 -1.035643 1.390184 -0.270494 0.721583 1.472238 -0.058998 0.200456 -0.460969 -0.557250 -0.306199 0.131872 -0.109965 1.208176 -1.167522 -0.574460 0.648557 -1.922823 0.742207 1.225004 -2.964493 -0.179513 0.294359 0.047080 0.017382 1.624749 -2.015698 -0.433482 0.673544 -0.971421 -0.856158 0.886468 0.141275 0.735626 0.378621 0.821999 1.466947 0.276533 -0.096580 -1.492383 -0.302911 -1.294950 2.038719 0.874540 -0.495386 0.661570 0.778807 0.094605 0.680685 0.553197 1.181928 1.040588 -1.008750 1.259133 -0.087716 0.035428 -0.491167 1.426793 2.440240 -0.315374 0.029426 -0.348186 0.537902 -0.322676 -0.145151 -0.930929 -0.195928 1.975601 -1.256592 0.220879 -0.385189 -0.303571 -1.672530 -0.165492 0.594050 2.314120 -0.683324 0.901975 -0.875849 -0.170687 0.176551 1.187908 0.493513 0.023185 -0.291173 0.877474 0.553610 -1.761707 -0.835356 0.288027 1.449031 1.503335 0.106166 0.268066 0.324928 -0.282483 0.460897 -0.432185 -2.162898 -1.745769 0.944352 0.138767 0.707618 -0.327229 0.087719 1.162855 -0.511184 0.219811 -0.649160 0.821205 -1.469568 -0.223368 0.635146 1.050640 -0.258895 1.221755 -0.699651 -0.097135 -1.760487 1.633367 0.524999 0.006159 -0.941541 -0.389889 1.371663 0.272227 0.426791 -1.091230 -0.888916 1.021352 -1.230217 0.119097 -0.071902 -1.254579 0.119703 -2.374329 -0.433756 1.161768 1.063997 1.530588 0.178174 -1.258729 0.523695 1.320784 1.149810 0.640525 1.059992 0.479572 0.348138 0.661554 -0.837922 2.086763 0.311565 1.916004 -0.429710 -0.104529 0.914738 0.702346 2.253515 0.021780 -0.043483 1.110751 -1.907544 -1.605302 -0.048857 -1.415994 -1.298768 1.318185 0.535176 1.025340 0.057727 0.793665 -1.568934 0.285752 0.321778 -0.079447 -0.612630 -0.604627 0.982002 -1.952653 -0.043118 0.387960 -0.781451 -1.293167 0.113589 -1.111145 1.638638 -1.036156 0.504729 0.296407 -2.229492 0.692475 0.535592 -0.802743 -1.322330 -0.272173 -0.352840 1.241833 0.776186 -0.951196 0.329287 -0.465651 -0.886772 -1.176669 -0.086558 -1.395381 0.355829 -0.052766 0.771406 1.254622 -1.453497 0.492900 0.626194 -0.496804 -1.871539 -0.550002 -0.820854 0.704548 0.115330 0.174428 -1.632765 -1.579894 -1.512071 1.725160 -0.261586 0.368903 -0.188914 1.440972 -0.685189 0.186351 0.509924 -1.284329 -0.082896 -0.120805 -0.486613 0.277495 -1.032749 0.318997 0.210703 -0.628592 0.758200 -0.450948 -0.280369 -0.180639 -0.278055 0.618626 0.192348 -0.750989 1.354088 0.737308 -0.198813 0.126563 0.178909 -2.393106 -0.573097 0.296930 1.495715 -1.219628 0.904665 -0.266642 1.668235 -0.320608 -0.451796 -2.711992 0.777242 -0.856254 0.975431 0.909163 0.322893 -0.748467 -1.533328 1.213259 -0.643871 -0.616226 -0.434867 0.025664 -0.409068 2.159107 0.451323 -0.230407 0.925420 -1.494799 -0.612382 -0.280450 0.271260 0.563593 0.640295 0.287819 0.336920 -0.390406 0.361013 0.442319 -0.521128 -0.434480 1.136158 0.299751 -0.734998 -1.126971 -0.549695 -0.360463 0.587682 1.094787 0.417301 0.064651 -0.630417 0.727371 -0.174248 0.810463 -0.355309 1.266648 2.209853 2.116872 -0.138753 -0.328043 2.576310 0.128412 0.320707 0.452367 -0.084786 -1.920577 -0.273891 0.616021 0.136571 -0.169998 -1.570403 1.506805 0.853953 1.393115 -1.235891 0.192201 1.685605 -0.578083 1.484931 -0.569109 -0.609451 1.345168 0.777689 -0.963592 -0.434145 -2.003640 -0.309051 0.431374 0.909622 0.244707 -0.806379 -1.961230 0.817308 0.506557 -2.040368 -2.829551 2.090738 0.529228 -0.633568 1.504582 -1.544862 -0.888953 -0.004559 0.189050 -0.801631 -2.459829 0.706720 0.050273 1.313621 0.143309 0.180536 0.293751 -0.279245 -0.648146 -0.940925 -0.088930 -1.189890 -1.845384 -0.427321 0.197905 0.645285 -1.974859 0.659001 -1.230213 0.073319 0.167368 -0.765368 0.868271 1.135488 0.475905 1.407211 -0.667235 -0.031008 -1.366888 -0.648557 1.110906 -1.431435 1.258090 -0.351540 -0.356253 0.059279 1.050024 -0.853739 -1.061232 -0.661730 0.264433 -0.246784 -1.019346 0.009813 0.566299 1.830710 -0.321592 0.147288 1.004434 0.637157 -1.804592 0.071386 -0.282402 1.887609 -0.724722 0.521560 0.164424 -1.460285 -0.520339 1.593004 1.377404 -0.123943 1.487995 -0.697239 2.157333 0.734941 -0.814312 0.552477 -0.504688 -1.216673 -0.567984 -0.637488 1.727182 -0.166836 -0.041930 -0.634536 0.550991 -0.313252 0.128810 0.038215 1.448369 0.515342 -0.346824 0.734407 1.331840 -0.742281 0.780264 0.507517 1.003081 -1.019839 0.407867 0.948633 -0.301821 -0.861741 -0.262333 0.441290 -0.575606 0.478508 -1.313605 -0.031735 -0.140299 -0.017291 0.750449 -0.363278 -1.037067 0.372002 0.866647 -1.770871 0.678219 0.176391 1.540257 0.822097 -1.636737 -0.695686 -0.268567 -0.238865 0.734676 -0.674903 0.936955 -1.972951 -0.136428 1.586748 0.797681 -1.078168 -1.080042 -0.714813 -0.378410 1.182990 0.513425 0.036558 -0.034763 -0.630639 0.699075 0.568349 1.086592 -0.945696 -1.241937 0.092331 1.499011 -0.129828 0.049474 -0.056938 0.759929 -0.258453 -0.581207 -0.992226 0.907936 0.210860 0.087599 -0.031774 -0.026145 0.742562 1.359736 -1.401621 0.267153 -0.626945 0.396680 0.905513 0.387587 0.050170 -0.569378 0.503912 -0.215956 -1.498735 -1.444747 0.524115 0.600457 0.120430 0.662261 -0.390071 -0.761484 0.698366 1.243656 -0.055838 2.145806 4.607991 2.440914 1.130879 1.437701 -1.416480 1.443839 1.022483 1.823235 0.632387 1.595981 0.135521 -0.103942 -1.047159 -1.475807 -0.754313 0.161600 0.287911 -1.651968 0.371941 -2.043114 -2.306816 -0.292346 -0.286127 -1.208995 -0.816310 0.640306 -1.262841 -0.626130 -0.208728 -1.521919 0.653967 -1.214326 -0.051017 1.289362 1.936282 2.512181 -1.270090 0.522607 0.050312 1.045188 -1.506135 -0.067225 0.995914 -1.163955 0.743354 -0.246133 -0.144566 0.129320 -0.548743 0.554868 0.284663 -1.441742 1.544730 0.651115 -1.061887 -0.390026 -0.163165 -0.808930 1.097315 -1.808166 -0.198913 0.354668 2.360863 -1.721229 0.135791 0.016845 -0.453847 0.482246 -1.112285 -0.779671 -0.542317 0.969511 0.474841 0.975934 -0.248956 -0.574488 -1.623669 0.885077 0.310142 -2.883680 1.188865 0.312434 -0.674580 1.191646 1.372573 0.925822 -0.692564 -0.154929 0.246100 1.577382 -2.214436 0.379834 -0.102077 -0.820431 0.230691 -1.363916 -0.803668 -0.444819 -1.973395 -1.017612 -0.120666 0.385274 -2.926610 -0.219969 -0.256329 -0.140453 2.030524 0.321585 0.210787 0.326278 1.115402 0.970657 1.378820 1.533413 0.999122 -0.130475 0.236616 0.316396 0.300807 -2.182699 -1.236675 -0.138994 -0.323299 -0.459900 -0.446705 -0.350551 1.412520 -1.476674 -0.603720 1.221196 0.657641 0.310107 -0.611886 1.211479 -1.487156 0.030443 0.825167 1.995959 0.159089 1.736054 0.291175 -0.955427 -0.336382 0.875025 1.163341 -0.269514 -0.340327 -0.928867 -1.250542 0.947583 0.514848 -2.181562 0.257229 -2.327904 0.344121 -0.804648 0.254516 -0.855567 -1.353970 -0.029896 -0.695745 -0.524029 0.498229 0.085602 -0.760962 0.336509 -0.543203 -0.988037 0.182976 0.074307 -0.057397 -0.188915 -0.935793 -0.465570 0.482630 -1.337766 -0.771698 -0.604558 -2.049628 -1.319992 -0.168790 0.467944 -0.022360 -0.175181 0.006714 -0.661781 -2.639484 1.066306 0.390416 -0.854086 -0.829331 -1.393725 0.007827 -0.896900 1.119701 -1.138027 0.037254 -1.734720 -0.048115 -0.194575 -0.177195 -0.368484 0.530149 -1.524895 0.067755 -0.094062 -0.801568 0.174757 -0.028212 0.692160 0.298724 0.129769 1.035396 -0.183722 0.008037 0.923059 0.489459 1.083485 0.556865 0.389825 -0.514917 0.648875 0.448366 -0.586307 0.386625 0.981328 -0.387400 -1.057416 1.110164 -0.177376 0.684474 0.328900 -0.567002 0.474865 1.134126 0.700360 0.479051 0.273054 -0.517969 1.476828 0.017605 0.085855 -0.050035 -0.868677 1.157444 -1.078777 1.043970 1.383754 -1.773612 0.764169 0.554324 -0.472934 0.572059 -1.433991 -0.777288 0.179741 -0.049267 -0.096947 -0.254649 -0.175302 0.823117 0.472075 -1.276882 0.172846 0.902137 -1.225240 0.908419 0.435244 -1.457159 -0.073302 1.716054 -2.383498 -1.458693 0.719423 -0.491232 -0.671847 -0.539819 -0.317907 -1.214492 -0.815761 -1.236454 1.660274 -0.247642 0.691247 0.319242 -0.434341 0.710906 -1.066728 -2.321906 1.947858 0.703338 -1.509423 -0.250497 1.633558 1.058716 -1.860569 0.044683 1.025640 -0.506451 0.419848 -0.611312 -0.496664 -0.467277 -0.259793 -0.115208 1.507013 1.608540 -2.388797 0.447898 0.435018 -0.516949 2.099369 -0.548777 1.371430 -1.017276 0.521563 0.528547 -0.521828 0.459992 1.162281 0.460344 1.258832 1.654609 -1.253915 -0.521943 -0.136645 0.850213 1.875415 0.031984 0.010291 -0.747312 0.686958 1.540875 0.102263 0.885444 -1.207606 1.014515 1.528974 0.143829 -0.720760 1.398655 3.428192 0.500238 0.493620 1.622363 -0.472573 1.564019 1.155419 0.766891 0.257711 0.208805 -0.510794 0.675561 2.109132 1.391611 0.778650 -0.108142 -0.552828 -0.095813 0.050498 1.656958 1.543058 -0.111126 -0.770500 -0.090736 1.140602 -0.899088 1.142702 -0.301579 2.227657 -0.466025 0.059820 0.278175 -0.408611 0.622352 -2.104669 1.108734 -1.249284 0.680555 -1.358830 0.132599 -0.818545 -0.340016 -1.168430 -0.571038 1.016262 0.563846 -0.711623 -0.221914 -1.707244 -1.745566 -0.240688 -1.207034 -0.385418 0.128214 1.667246 0.171898 -0.387594 0.360422 -0.221987 -0.093893 -0.939222 -0.885832 0.750866 0.096618 0.878967 -1.056822 -0.312565 0.965489 -0.078413 -0.056143 -0.988041 0.043674 -0.191798 -0.203907 -0.960208 0.297557 0.100025 0.141300 0.117705 -0.680933 -0.479316 0.586409 0.348630 1.033092 -1.192510 -0.614223 -0.309561 -0.974672 -0.693602 1.107798 -0.528125 1.192436 -0.961931 0.657402 -0.348271 0.078005 0.087746 -1.794695 0.353324 0.873846 0.280775 0.145600 -0.609323 0.769305 -2.887515 -0.713924 0.302955 -0.377934 0.022132 -0.149335 1.666245 -0.589750 0.118122 -0.218545 1.692028 -1.754489 -1.213134 0.742811 0.109989 -0.334875 -0.921107 -1.254606 0.052738 -1.719731 -0.109333 -0.444900 -0.712161 0.991839 1.468490 -0.630459 0.740803 0.019541 -0.522140 -2.074840 -0.447412 0.951823 -0.169541 1.345925 -0.809396 -0.264321 1.178663 0.413733 0.517250 1.046548 -2.132519 0.180271 0.833681 -0.285263 0.501136 1.256061 -1.572830 0.801824 -0.025911 -0.697020 2.659620 1.631009 1.019229 -1.046524 0.039205 1.297248 -0.027621 -1.573655 0.448466 0.576562 1.785033 -1.408725 -0.416458 0.825153 -0.194875 -0.729750 -0.418114 -1.464134 0.237580 1.616957 0.260112 0.120917 -0.468405 1.134860 0.136149 -0.554776 -0.399742 0.998487 1.130065 0.627711 1.462346 -1.250493 1.316968 -0.400927 0.006738 1.451038 0.530246 0.084482 1.656305 -1.080230 0.552065 0.589166 1.598732 -0.038471 0.692270 -0.308552 -0.317591 1.619072 0.421831 1.967288 0.457929 -0.252010 -1.599067 0.857014 -0.256466 1.944150 0.110245 0.863888 -1.894731 0.081887 0.561209 2.023551 -1.426218 -1.923281 0.323334 0.027937 0.734364 1.415925 0.190656 -0.665242 -0.068247 0.603426 -1.372289 0.519821 0.939239 -0.689701 -0.592784 -0.857978 -1.985026 -0.476698 -0.260763 -1.327691 -0.667184 -0.660269 0.310063 1.007796 -0.631952 -0.886777 1.303378 -2.380539 0.051217 -1.948178 0.109699 0.212292 -0.886226 -0.334548 -1.004091 -1.142104 -0.532768 -0.457451 -1.392378 -0.672611 -1.597908 0.516612 -1.500021 2.614294 0.078279 -1.447135 -0.573470 -1.835351 -1.305147 -0.569976 0.850940 -1.032182 -0.272004 -1.408484 -0.437827 0.028828 0.237641 -0.090216 0.308539 -0.940976 1.043306 -0.987129 0.558875 0.462226 -1.340275 0.892789 1.273116 1.594272 -0.879170 -0.335894 -0.635940 -0.403009 0.695627 2.027353 1.669363 -1.806584 0.118352 -1.094640 2.259342 -1.197343 -0.906470 0.703151 0.765529 0.470610 -0.362762 -0.618906 -0.182473 -0.958232 1.401445 2.212529 0.011330 -0.073558 1.227194 -1.204511 0.560571 -0.296647 0.589308 -1.213842 -1.214279 -0.849579 1.761071 -0.569283 -0.935822 2.226672 -0.976422 0.390478 -0.487891 -1.970476 -0.816139 0.671882 0.408927 -0.213966 -0.172110 0.401611 0.490523 -0.032886 -0.561815 0.225800 1.500076 0.725140 0.392294 -0.418271 -0.780701 0.723660 -0.159714 -0.127283 -0.583080 0.068983 0.725432 0.431157 -1.117277 0.442902 0.477786 -0.422156 -1.200141 0.777467 -0.765472 -0.018543 -0.826316 -1.275767 0.009233 -1.823598 0.734855 0.115560 0.623091 1.255359 -0.061710 -1.206319 1.310281 1.157722 -0.127951 -0.382756 -2.172514 0.107245 0.603732 0.484192 1.192689 -0.280696 -1.498939 0.272430 -0.393326 0.610794 0.618032 1.848068 -0.718999 0.544678 -0.643966 0.077610 -1.589932 -0.275098 -0.668147 0.437324 -0.141475 -0.175455 -1.617124 0.343242 1.605048 -0.586756 -1.392491 -1.199931 -1.173117 0.615737 1.052135 0.694494 1.223268 0.340059 -0.653107 1.043568 0.911367 -1.422082 -0.654562 0.030986 0.531516 0.051290 0.377773 -1.056634 -0.501958 -0.858240 0.423182 -1.147651 2.195120 -1.691121 -0.286081 0.196926 1.469312 -1.310002 -0.834064 0.448672 -1.103849 -0.377147 -0.370259 0.411065 -0.822359 1.429992 0.666505 -1.231762 0.290003 -1.534418 1.509198 0.460524 0.922302 1.406837 0.004406 -0.904281 -0.057773 -0.567407 -1.391365 0.929071 -0.969285 -0.370033 -0.589718 0.048953 -0.325519 0.025075 -0.441571 -0.508459 -0.835528 0.952671 1.090864 -0.380753 0.902073 -0.760359 -0.842844 -0.273127 0.645047 1.766420 -0.594553 -0.526510 -1.106824 0.518864 -0.952953 0.382436 0.045441 0.384791 0.790874 1.380608 0.353163 1.470495 1.505097 -0.194816 0.062249 -0.875488 -1.731906 1.771974 -0.285557 -1.276961 -0.200196 -0.632058 -0.715766 0.424969 1.428081 -2.104833 1.542864 1.998476 2.368930 -0.034653 -1.052166 1.019877 0.613182 -1.207365 -1.141918 -0.003456 0.252776 -1.930682 0.905879 0.076366 1.095093 -0.689148 -0.890078 1.147670 0.113210 1.795261 0.982948 -0.191091 0.301495 -0.217963 -0.246119 2.430178 0.299897 -0.178082 0.387820 -0.376559 0.154612 0.260192 -0.239797 -1.277771 -1.298636 0.878483 0.086606 0.673835 -0.359350 0.037338 -1.340530 1.424477 1.165778 0.385097 -1.025252 0.964107 -1.063228 -0.591062 -0.965244 -0.646491 1.912919 -0.983428 1.297632 0.668284 -0.156999 0.509146 -0.202291 -1.447376 -0.625618 -1.721113 -1.624701 1.706824 -1.021738 0.275166 -0.527661 -1.259270 1.499851 0.046680 -0.657905 -1.397633 0.441324 0.188986 -0.169661 -0.523624 0.771498 -0.285216 -0.741830 -0.279385 0.303363 -0.252952 -0.522947 -0.308602 -1.150018 1.146692 -1.712535 -0.938560 0.040137 -2.153171 -1.705477 0.183520 0.991166 0.140959 -0.712534 0.287286 -0.566212 0.960051 0.030722 -1.320501 0.342852 -0.231712 -0.146772 0.797581 -1.038672 0.475894 -0.532724 0.118499 -1.133124 0.616427 0.236918 -0.315051 0.924376 -0.157372 -0.671575 -1.139200 -0.423509 0.308126 1.416350 -0.328473 0.403146 -2.432725 -0.041704 -0.464558 -1.174404 -0.167750 2.613641 -0.491459 1.245549 -0.380786 1.522777 -0.247040 0.386658 -0.376823 -1.472034 0.456938 -0.423208 0.512609 0.242267 0.644683 0.177212 -0.306399 1.278393 -0.439446 0.268215 0.657123 1.089301 -0.236942 -1.808277 0.487817 1.428005 -1.826310 1.414279 -0.536324 1.192444 0.624108 0.024540 0.685456 -0.731449 0.394286 -0.904051 -0.958418 -0.210450 -0.858876 0.257959 0.092710 1.311421 -1.614363 1.279382 0.358633 1.092594 1.551787 -0.275297 -0.041113 0.664648 -0.693555 -1.291497 -0.972772 2.080486 0.789951 -1.709276 -0.026907 -0.053551 -1.405701 -0.545526 -0.253582 1.097223 -0.131192 -0.005318 0.144785 0.106696 -0.120367 0.337919 -1.459587 0.481092 1.728278 -1.078048 -0.851327 -0.659966 0.094560 -0.766006 -0.222949 2.684731 0.912492 -1.200720 0.493208 -1.211263 0.490670 0.418270 -1.539026 -0.774526 0.440904 -0.321536 0.494129 -1.340784 0.477890 1.253948 -0.630711 -0.113836 0.110630 0.158312 -0.182345 0.847748 0.857700 -0.584178 -0.971198 0.773847 1.406277 1.633195 -0.824674 1.177351 -1.850134 -0.920155 0.730245 0.272042 -2.895176 -1.151645 -0.528973 1.018469 0.680410 0.747884 -0.076928 -0.091110 1.082717 -1.923292 0.364859 -0.401185 -0.820062 0.829158 0.394098 -2.031753 1.293376 -0.949822 -0.347599 1.172345 1.496089 -0.116033 -0.013942 0.127264 1.049949 -1.690761 -1.561984 0.571228 1.321950 0.683629 -1.116457 -0.467142 -0.095137 1.477263 0.789313 -1.412065 0.334800 -0.192894 -1.027040 0.005550 -0.142193 -0.175657 -0.362790 -0.639627 -0.478035 0.106026 0.980771 0.283371 2.476647 0.693784 1.411271 -0.553771 0.761529 -0.424244 