-6.966751 -6.960683 -6.954637 -6.948612 -6.942609 -7.084868 -7.095358 -7.071145 -6.938765 -6.640744 -6.641485 -6.436780 -6.502193 -6.537917 -6.553270 -6.531121 -6.484304 -6.434544 -6.093858 -6.035561 -6.337751 -6.432377 -6.611526 -6.151236 -6.533321 -6.165245 -6.103236 -6.248982 -6.602105 -6.638905 -6.253721 -6.272062 -6.281064 -6.354038 -6.134174 -6.137815 -6.027736 -5.998323 -6.154316 -6.446025 -6.433299 -6.452668 -6.433780 -6.546890 -6.538794 -6.327558 -6.317892 -6.367764 -6.350200 -6.709483 -6.517589 -6.196156 -6.297522 -6.124116 -6.151217 -6.084679 -6.431455 -6.174183 -6.502192 -6.285626 -6.474024 -6.026412 -6.050464 -6.356545 -6.557872 -6.282992 -6.412064 -6.475500 -6.408077 -6.327935 -6.134602 -6.322220 -6.314608 -6.069621 -6.151948 -6.408816 -6.308583 -6.026223 -6.226343 -6.189539 -6.427380 -6.505495 -6.521868 -6.601245 -6.315373 -6.660331 -6.683344 -6.599857 -6.361262 -6.789935 -6.854527 -6.862440 -6.553426 -6.092208 -6.376559 -6.469006 -6.288691 -6.284382 -5.960027 -6.056583 -6.282115 -6.600004 -6.162414 -6.075457 -5.948377 -5.879284 -5.897118 -5.712738 -5.738028 -6.098935 -6.522659 -6.299807 -6.524725 -6.269558 -6.380016 -5.964869 -5.994531 -5.948387 -5.937732 -6.145867 -6.318028 -6.088234 -5.858513 -5.967534 -5.929233 -6.153109 -6.272156 -6.280940 -6.850112 -6.504596 -6.341064 -6.583316 -6.590192 -5.992482 -6.199361 -6.237638 -6.358480 -6.019411 -6.265205 -6.739778 -6.644408 -6.303856 -6.761654 -6.519640 -6.176650 -6.487925 -6.492641 -6.450067 -6.362328 -6.344630 -5.979114 -6.354250 -6.428019 -6.808538 -6.948189 -7.063593 -7.075985 -7.163601 -7.143460 -7.341845 -7.316246 -7.560064 -7.428704 -7.560951 -7.320946 -7.645185 -7.320643 -7.251888 -7.046833 -7.285801 -7.236149 -7.262598 -7.268584 -7.222675 -7.055663 -6.984523 -6.576705 -6.855532 -7.395526 -7.003651 -6.854226 -6.859043 -6.972597 -7.036028 -7.126124 -6.675790 -6.458923 -6.515727 -6.202145 -6.077388 -6.176139 -5.759642 -5.790753 -5.963626 -6.128486 -5.961475 -6.280223 -6.648200 -6.566060 -5.931773 -5.778728 -6.051103 -5.877195 -5.348934 -5.727350 -5.700743 -5.832036 -5.604132 -6.040028 -6.091473 -6.083512 -5.903613 -6.198311 -6.244405 -6.344613 -6.039015 -5.889591 -5.680478 -6.056732 -5.950230 -5.575663 -5.929519 -6.088598 -5.901857 -6.029124 -6.252235 -6.230900 -5.882263 -5.827786 -5.877074 -5.973189 -5.791104 -5.905004 -5.642841 -5.787464 -5.902844 -6.207508 -5.879228 -5.666163 -5.825824 -6.015417 -5.927609 -5.667239 -6.153744 -6.106245 -6.056136 -6.123152 -6.193317 -6.190893 -6.236495 -6.046392 -6.392556 -6.000941 -6.150568 -6.067146 -6.389258 -6.297254 -6.336762 -6.169886 -6.427823 -6.240863 -6.237258 -6.121247 -6.616598 -6.355291 -6.083813 -6.327219 -6.305107 -5.734361 -6.001898 -6.223103 -5.788148 -5.713085 -6.127342 -6.056340 -5.932623 -5.883284 -6.024619 -5.886285 -6.194947 -6.177431 -5.975880 -5.878497 -6.191806 -5.963332 -5.695160 -5.767252 -5.488606 -5.964005 -5.936407 -5.702862 -5.794759 -5.969877 -5.704466 -5.827351 -5.975489 -5.946630 -5.946353 -6.039092 -5.919751 -5.992728 -5.901246 -5.487604 -5.904817 -5.627548 -6.020445 -5.918142 -5.824459 -5.735764 -5.573440 -5.788953 -5.855346 -5.789179 -5.691253 -5.977517 -6.362573 -6.120222 -6.291396 -6.088288 -6.050015 -5.898910 -6.042059 -6.427184 -6.517015 -6.207835 -6.182434 -6.767900 -6.602396 -6.925429 -7.405812 -7.480268 -6.941686 -7.411176 -7.330747 -6.887327 -6.665010 -6.873768 -6.786159 -6.597893 -6.931960 -7.338782 -6.990783 -6.988529 -7.370587 -7.244058 -7.155542 -6.769993 -7.253537 -6.731983 -6.794584 -6.599940 -7.073438 -6.890061 -6.970259 -6.851132 -7.040859 -6.781114 -6.322251 -6.608074 -6.983220 -6.866938 -6.445978 -6.885568 -6.800826 -6.767794 -6.709504 -6.699109 -6.585423 -6.492888 -6.667367 -6.941755 -6.806542 -6.868799 -6.534990 -6.773692 -6.535919 -6.812157 -6.682140 -7.148899 -7.004636 -7.201718 -7.237128 -7.104435 -7.061458 -7.489333 -7.605272 -7.343703 -7.730664 -7.731159 -8.007948 -7.852078 -7.400369 -7.518214 -7.443323 -7.708461 -7.388911 -7.395599 -7.097351 -7.360953 -7.662302 -8.046790 -8.143565 -8.080278 -7.785904 -8.066456 -8.242423 -8.060514 -8.081728 -7.767136 -8.110976 -8.211320 -7.986081 -7.670453 -8.137194 -7.848385 -7.516804 -7.434274 -7.484146 -7.706459 -7.301612 -7.152026 -7.277226 -7.372699 -7.207860 -7.227347 -6.892000 -7.123352 -7.220861 -7.075308 -7.463417 -7.519954 -7.083538 -6.689141 -6.548990 -7.077924 -7.306334 -7.219351 -6.883647 -7.135734 -7.159017 -7.072473 -7.087000 -7.053061 -7.151819 -6.819740 -6.847547 -7.078181 -7.047777 -7.053810 -6.912398 -6.518312 -6.708003 -6.806505 -6.842583 -6.433420 -6.833903 -7.071936 -6.641964 -6.797472 -6.374645 -6.805873 -6.451646 -6.432305 -6.397646 -6.473287 -6.190877 -6.408838 -6.766575 -6.706125 -6.569565 -6.762973 -7.118118 -7.297027 -7.360127 -7.205413 -6.962503 -7.266912 -6.816008 -6.821068 -7.334634 -6.570437 -6.661201 -6.740119 -6.393876 -6.231659 -7.071208 -6.980377 -7.018375 -6.823355 -6.754880 -7.490598 -6.880400 -7.050902 -7.069975 -7.009176 -6.930761 -7.270725 -7.012449 -7.152566 -6.522044 -6.815105 -6.577358 -6.786612 -6.534854 -6.521494 -6.804521 -6.988606 -6.449997 -6.672221 -6.471856 -6.566215 -6.626564 -6.774007 -6.699532 -7.063918 -6.932827 -6.738026 -6.823340 -6.762666 -6.362751 -6.358054 -6.524956 -7.041647 -6.914898 -7.347752 -7.041134 -6.892136 -6.754686 -7.184691 -6.473261 -6.245976 -6.089125 -6.336069 -6.743519 -6.675696 -6.784830 -7.088628 -7.149236 -6.922378 -6.922227 -7.063662 -6.780434 -6.666594 -6.246706 -6.115614 -6.115352 -6.509713 -6.134301 -6.206071 -6.031452 -6.294254 -6.248090 -6.286275 -6.244366 -6.193474 -5.878489 -6.311070 -6.306442 -6.251848 -6.092992 -6.060050 -5.956500 -6.327132 -6.404465 -6.822176 -5.934108 -6.287578 -6.662994 -6.789066 -6.303753 -5.877007 -5.744079 -6.849456 -7.233856 -6.873527 -6.522081 -7.259331 -7.095932 -7.165173 -7.311400 -6.561689 -6.636708 -6.738301 -7.368308 -6.956628 -7.172081 -6.989460 -7.055128 -6.779055 -6.865017 -6.808784 -6.259006 -6.599668 -6.881056 -6.778417 -6.539326 -6.242661 -6.918718 -6.666348 -6.405174 -6.444866 -6.777470 -7.112837 -6.977467 -6.594427 -7.064613 -6.711715 -6.475963 -6.912539 -6.891487 -6.726122 -6.765808 -7.021751 -6.851700 -6.551135 -6.601801 -6.627458 -6.432453 -6.607893 -6.856438 -6.646498 -6.579920 -6.225096 -6.778232 -6.732051 -6.450219 -7.162454 -7.284344 -7.651027 -7.237430 -7.168994 -7.030568 -7.044404 -6.737371 -6.795527 -6.406358 -6.965898 -6.973806 -6.867951 -6.795709 -7.218639 -7.251506 -7.395553 -7.204406 -7.208064 -7.050000 -7.279121 -7.415640 -7.480916 -7.085904 -7.042544 -7.299531 -7.328131 -7.400234 -6.923216 -6.972170 -7.098523 -7.399481 -6.963198 -7.479904 -7.538716 -6.877954 -7.020398 -6.899246 -7.006783 -6.938968 -7.043555 -7.147875 -6.983909 -7.047091 -7.350207 -7.179761 -6.931676 -7.613414 -7.021355 -6.745797 -6.963083 -7.262964 -6.999854 -7.006369 -7.214466 -6.857374 -6.840069 -6.564139 -7.033157 -7.098159 -7.178161 -6.898208 -6.942280 -6.903082 -6.870231 -6.941725 -6.991347 -6.591374 -6.605650 -6.490039 -6.412986 -6.307015 -6.045071 -6.196710 -6.115649 -6.637195 -6.635004 -6.293075 -6.165560 -6.232648 -6.147098 -6.468551 -6.331836 -6.436865 -6.638546 -6.919451 -6.794415 -6.392194 -5.995231 -6.427828 -6.496948 -6.298906 -6.393092 -6.558752 -6.419762 -5.928231 -5.654801 -5.960751 -6.004121 -6.086635 -6.152157 -6.128632 -6.382124 -7.065282 -6.422609 -6.345156 -6.272476 -6.988827 -6.457163 -6.369457 -6.058838 -6.059121 -6.168697 -6.230565 -6.338018 -5.990927 -5.785354 -5.977193 -5.751856 -5.712701 -5.860018 -5.818122 -6.304002 -5.954457 -5.854278 -5.941939 -6.063838 -6.227011 -5.908684 -6.260877 -6.233110 -6.262555 -6.039773 -5.931595 -5.968706 -6.409273 -6.377950 -6.081621 -6.330608 -6.182704 -5.770084 -6.316545 -6.836753 -6.505865 -6.120538 -5.866436 -6.181121 -6.154808 -6.120762 -5.951273 -7.016088 -6.754585 -6.397542 -6.141920 -6.221174 -6.333794 -6.351278 -6.797868 -7.263650 -6.471028 -6.364202 -6.241932 -6.465054 -5.752048 -5.910447 -5.770763 -6.501365 -6.342987 -6.108864 -6.151916 -5.695113 -5.875002 -5.741915 -5.734534 -5.487134 -5.515659 -5.317424 -5.403051 -5.549060 -5.163159 -5.025027 -4.855731 -5.091914 -5.228822 -5.158165 -5.130818 -5.033394 -4.552909 -4.506735 -4.927872 -4.876830 -5.120565 -5.117698 -5.331484 -5.209101 -5.224030 -5.639949 -5.201791 -5.641451 -5.645292 -6.009468 -5.577270 -5.869677 -5.151781 -5.263509 -5.355118 -4.983462 -5.194137 -5.502308 -5.449940 -5.375708 -4.691636 -4.458900 -4.634056 -4.515597 -4.217535 -4.018734 -3.991415 -4.387843 -4.038530 -4.072727 -4.250646 -4.211817 -3.804455 -4.486695 -5.472780 -5.912292 -5.914382 -6.090904 -6.680053 -6.391785 -6.271707 -6.248295 -6.750960 -6.058939 -6.168969 -6.511483 -6.219277 -5.986507 -6.010829 -6.336759 -6.352851 -6.238807 -6.364841 -6.148578 -6.666449 -6.353860 -6.592689 -6.009590 -5.778865 -5.891302 -5.830137 -5.538933 -5.308846 -5.592408 -5.785989 -5.836237 -5.697967 -6.024071 -5.980868 -6.418472 -6.545460 -6.650815 -6.659460 -6.129453 -5.773077 -5.335725 -5.939121 -6.186813 -6.121467 -6.248565 -5.971474 -5.851803 -6.245701 -5.618839 -5.638670 -5.688867 -5.596418 -5.891321 -5.930695 -6.386664 -6.994418 -6.500943 -6.458477 -6.378549 -6.064877 -5.661007 -6.517344 -6.134970 -6.129094 -6.299753 -6.026238 -6.253791 -6.235160 -6.543058 -6.573707 -6.528435 -6.625669 -6.558332 -6.822771 -7.043163 -6.681079 -6.544121 -6.242083 -6.443524 -6.421652 -6.434522 -6.247056 -6.094779 -6.336563 -6.092881 -5.835852 -6.678819 -6.209515 -6.007100 -5.798786 -6.010022 -5.747290 -5.392110 -6.042109 -6.109357 -6.414863 -6.346486 -6.140054 -6.177162 -5.600983 -5.691371 -5.983889 -5.472804 -5.077489 -5.024239 -4.853633 -4.690245 -4.958519 -4.732059 -4.648779 -4.786642 -5.181206 -5.403462 -4.875334 -4.591630 -4.682035 -4.696027 -4.755335 -4.473561 -4.580603 -4.756399 -5.146314 -4.748968 -4.522768 -4.618188 -4.826547 -4.806222 -4.651714 -4.639217 -4.487699 -4.901883 -4.686922 -4.321402 -4.818959 -4.717981 -4.625012 -4.574900 -4.498173 -4.554475 -4.583592 -4.432784 -4.684412 -4.471973 -4.240828 -4.148339 -4.316335 -3.983153 -4.514464 -4.521656 -4.713395 -4.573668 -4.953887 -5.016591 -5.228397 -4.952185 -4.763005 -4.363641 -4.728612 -4.776896 -4.626058 -4.398801 -4.725532 -4.793650 -4.795443 -4.791511 -4.517890 -4.579602 -4.752927 -4.961561 -4.828587 -4.993280 -4.735755 -4.507256 -4.568005 -4.603280 -4.401585 -4.661009 -4.766705 -4.631450 -4.576849 -4.607393 -4.922408 -4.673268 -4.285564 -4.330785 -4.374404 -4.324889 -4.611011 -4.897846 -4.659072 -4.432912 -4.567048 -4.931615 -4.501802 -4.537487 -4.409667 -4.400454 -4.645733 -4.925446 -4.988597 -4.693684 -4.813588 -4.522844 -4.425565 -5.003838 -5.048040 -4.861235 -4.330902 -4.577745 -4.590777 -4.414916 -4.309208 -4.665845 -4.921453 -4.654746 -4.425421 -4.886455 -4.530799 -4.706677 -4.922651 -5.210719 -4.900905 -4.703954 -4.813274 -5.179647 -4.580981 -4.565962 -4.416579 -3.732724 -4.423809 -4.666772 -5.050066 -4.444377 -4.741143 -4.949513 -4.887531 -4.113195 -3.775292 -4.161570 -4.245893 -4.695971 -5.344147 -5.124830 -5.044117 -5.573695 -5.278652 -4.776730 -4.805890 -5.695934 -5.718298 -5.885183 -6.142517 -6.320250 -6.154462 -5.800955 -5.205625 -5.005562 -5.078456 -5.725046 -5.546747 -5.687285 -5.753334 -5.852858 -5.479879 -5.402134 -5.035596 -4.588926 -4.403037 -5.189731 -5.051844 -5.491317 -5.477301 -6.255805 -6.080226 -5.621362 -5.931273 -5.787014 -6.007795 -5.855156 -5.233420 -4.974357 -4.616757 -4.798892 -4.607093 -4.246271 -3.755477 -4.166979 -3.919193 -3.637766 -2.851187 -3.199615 -3.572491 -4.013087 -3.563691 -3.861817 -3.646797 -3.774023 -3.904911 -3.841616 -3.593205 -3.726868 -3.277393 -2.937640 -3.163940 -2.920690 -3.106078 -2.660997 -3.417845 -3.257159 -3.939259 -3.731277 -3.631027 -3.861735 -3.866599 -4.300407 -4.087650 -4.241621 -4.594263 -4.265208 -4.265256 -4.137636 -3.788156 -4.281740 -4.140219 -4.733207 -4.215846 -4.478038 -4.503389 -4.424896 -4.123200 -4.096587 -3.732720 -4.103717 -3.701040 -4.247809 -4.221751 -4.439065 -4.267447 -4.133378 -4.217109 -4.098052 -4.367921 -4.445712 -3.807225 -3.748399 -3.953550 -5.018219 -4.940397 -4.262230 -4.591937 -4.799730 -4.603366 -3.808967 -3.464672 -2.836298 -2.775040 -3.039576 -2.609142 -2.086993 -2.305812 -4.260062 -3.807486 -3.979767 -3.612002 -4.129968 -4.328514 -3.087619 -3.825233 -4.668217 -4.530991 -4.898838 -4.850997 -4.475047 -4.850021 -5.359969 -4.767161 -4.742566 -4.649265 -4.263411 -3.907257 -3.834398 -4.123273 -4.356484 -4.246823 -4.400491 -3.969641 -5.036175 -4.497997 -4.145313 -3.868054 -3.873318 -4.104912 -4.008571 -4.484578 -4.819413 -4.940611 -4.965348 -4.508531 -4.542357 -4.028801 -4.376051 -5.137911 -4.507953 -4.284907 -4.480487 -4.020062 -4.310352 -4.259686 -4.405628 -4.594776 -4.526425 -4.478464 -5.008718 -5.168919 -4.500712 -5.187134 -4.048539 -3.839395 -4.271027 -4.613893 -4.755385 -4.694319 -3.854502 -1.702775 -0.889127 -0.784676 -0.785388 -0.486368 -0.271465 -0.234891 -0.746666 -0.358935 -0.231402 -0.390676 -0.459609 -0.767933 -0.536961 -1.344322 -1.936352 -2.125794 -2.517883 -2.380655 -1.995261 -1.883677 -2.212601 -2.264699 -2.433060 -2.332386 -2.674928 -2.773767 -2.465223 -2.362820 -2.542345 -2.403225 -2.330369 -2.671645 -2.957136 -2.847223 -2.828442 -3.030892 -3.090999 -2.914792 -3.218039 -3.150707 -3.466571 -2.687792 -2.136679 -1.960906 -1.919565 -2.159962 -1.881520 -1.980896 -1.845910 -2.518073 -1.987947 -1.848586 -1.981766 -2.058669 -1.832913 -1.615650 -1.735880 -1.759767 -1.920628 -2.137639 -1.695915 -1.737364 -1.939638 -2.332590 -2.239912 -1.895999 -1.811003 -2.487891 -2.134893 -2.359536 -1.762539 -1.782863 -1.920380 -1.798604 -2.059122 -2.170851 -2.032339 -2.159376 -2.569571 -2.678384 -2.359850 -2.464290 -2.339030 -2.455512 -2.297608 -1.746410 -1.916129 -1.451311 -1.632785 -1.661824 -2.042587 -1.601440 -2.031268 -1.982261 -2.499552 -2.107108 -2.037130 -1.655533 -1.563959 -1.485020 -1.811751 -1.540307 -1.472269 -1.805103 -2.089871 -1.802271 -1.217723 -1.759458 -2.078993 -1.968600 -1.933874 -2.158019 -2.214317 -2.390819 -2.799012 -3.455757 -3.828623 -4.316170 -5.019140 -5.261887 -5.177675 -4.663756 -4.711874 -4.871906 -4.893604 -4.525141 -4.797027 -4.700806 -5.363172 -4.658963 -4.846774 -4.531497 -4.644364 -4.779617 -5.029703 -4.901160 -4.715908 -5.193505 -4.979895 -4.902452 -5.229188 -4.827524 -5.378079 -4.485634 -5.310260 -5.312935 -5.539269 -5.010774 -4.610245 -4.276182 -3.998277 -3.683304 -3.045139 -3.027726 -2.821144 -1.506319 -1.106689 0.408653 1.082550 0.845222 -0.617713 -1.100641 0.132263 0.051390 0.274837 0.943567 0.707927 0.407530 0.563638 0.979603 1.384197 1.680571 2.330215 2.016262 1.787032 1.737180 1.395327 1.771482 1.334864 1.217910 1.340228 1.595475 1.605255 2.519603 2.433871 2.608368 2.493277 2.531861 2.667495 2.547515 2.496506 2.668053 2.903091 2.769731 2.388735 2.834304 2.422839 1.931756 2.314589 2.632815 3.011994 2.582044 2.349904 2.646222 2.381942 2.253477 2.222197 2.240329 2.026453 2.155125 2.366506 2.067051 2.150329 1.663486 1.533761 1.813909 1.729197 1.299612 1.911773 2.110685 1.958207 1.725409 1.558183 1.840803 2.254076 1.468425 1.960920 1.956581 1.611041 1.794558 2.281576 1.844670 1.352301 1.259651 1.423653 1.937293 1.883882 1.710048 1.865821 2.127920 2.345183 2.222801 2.038667 2.178689 2.224716 2.038901 1.802195 1.934833 1.963175 2.489511 2.093534 2.368647 2.442241 2.690990 2.518096 2.345197 2.109854 1.881852 2.865377 3.296082 3.234352 3.217685 2.967479 3.599864 3.564815 3.568828 3.715199 3.476808 3.554453 3.578305 3.778675 3.616706 2.884643 3.037393 3.266712 3.304598 3.253310 3.656497 3.593006 3.213827 2.931754 2.704769 2.789198 2.599507 2.540958 2.870630 2.801477 2.403673 3.021144 2.497127 2.871737 2.942467 2.679393 2.703004 2.416342 2.321939 2.259693 2.266045 2.228461 1.506168 1.308255 1.428364 1.635999 1.806968 1.695506 1.503724 1.099730 1.180279 1.176282 0.799194 1.031307 0.757533 1.036540 1.443775 1.234557 0.596607 0.648129 0.680207 0.459983 0.544004 0.959468 0.341827 0.525675 0.958496 0.917224 0.836641 1.414185 1.773312 2.028373 2.110182 2.546821 2.669516 2.533842 2.496079 2.336058 2.461984 2.116632 2.571193 2.133925 1.849675 1.378725 1.845755 1.726490 1.322450 1.191397 1.029011 1.130734 1.130253 0.773211 0.842769 1.426390 1.212185 1.487654 1.589917 2.754078 2.290397 2.760923 3.246415 3.104656 2.616856 3.093808 2.692756 2.903003 3.119403 3.051942 2.973391 2.636194 2.365277 2.629664 2.702142 2.508427 2.995839 3.162435 2.291946 2.227956 2.618295 2.153692 1.771033 1.890379 2.121504 2.306866 1.993222 2.116855 1.427285 1.435435 1.576288 2.179125 1.363743 1.371707 1.198515 1.002767 1.589529 1.777865 1.813108 1.638202 1.658432 1.826317 1.684782 1.451924 1.395790 1.208630 1.688782 1.248539 1.512204 1.195508 0.981924 0.864813 0.689264 0.785497 0.982970 0.672982 1.132837 0.714154 0.991685 1.391682 1.363445 1.490975 1.382509 1.377270 1.350577 1.176008 1.295493 0.958977 1.239732 1.292162 1.691902 1.763397 1.274520 1.326539 1.177328 1.125698 0.882031 0.292673 -0.065839 0.201595 -0.674064 -0.752175 -0.599326 -0.537962 -0.414960 0.021321 -0.406164 0.035179 0.163191 0.033753 -0.042753 -0.194914 -0.250985 -0.098176 -0.608876 -0.756048 -0.608707 -0.749908 -1.015333 -1.624367 -1.406695 -1.373692 -1.195969 -1.183302 -1.324317 -1.551647 -1.783327 -1.667217 -1.655434 -1.478595 -1.440896 -1.596697 -1.639635 -1.453487 -1.964806 -1.740424 -1.866342 -1.515311 -2.025282 -1.742798 -1.508274 -1.417439 -1.996297 -1.728676 -1.288886 -1.364987 -1.793962 -1.673178 -1.625651 -1.264212 -1.938548 -1.896632 -1.710223 -1.446211 -1.444644 -1.223645 -0.968940 -0.334503 -1.284392 -1.132620 -0.907957 -0.623529 -1.019254 -1.061251 -0.883438 -1.012680 -0.519787 -0.014639 -0.607825 -0.773233 -0.585371 -0.334097 -0.523682 -0.737480 -0.593587 -0.362231 -0.505739 -0.180626 -0.449447 -0.133039 -0.630595 -0.348522 -0.320891 -0.459598 -0.173284 0.122450 0.008652 0.340315 0.640475 0.913923 1.525966 2.460691 1.964005 1.497751 2.152078 1.984254 1.875323 1.642984 1.464716 1.743781 1.633245 1.782115 1.991497 1.709058 1.616117 1.419703 1.380508 0.961079 0.674450 0.769758 0.981286 1.007315 1.009501 0.657100 0.763234 0.410647 0.134196 0.403133 -0.066982 0.155610 0.200925 -0.309251 -0.677813 -0.363451 -0.665798 -0.409372 -0.539745 -0.346171 -0.525068 -0.528744 -0.928665 -0.263885 -0.677591 -0.395538 -0.361729 -0.465137 -0.553877 -0.909294 -0.444863 0.031187 -0.023751 0.119720 0.396193 0.675459 0.536423 0.710196 0.576897 0.369562 0.672391 0.018578 0.400533 0.294349 -0.066094 0.146381 0.448113 -0.060565 -0.401019 -0.076719 0.387313 0.083833 0.194978 0.068339 0.248193 0.254770 0.094658 -0.151546 -0.196562 -0.025179 0.567482 0.334976 0.287524 0.657935 0.980666 0.652609 0.578020 0.393975 -0.018226 0.219879 0.471616 0.153816 -0.139524 0.004602 0.613028 0.552192 0.725693 0.592399 0.412555 0.715693 0.620535 0.586793 0.941346 0.686472 0.417799 1.100830 0.549887 0.949254 0.657054 0.275651 0.100684 0.297839 0.315861 0.304925 0.684814 0.043300 0.257019 0.488224 0.398125 0.505157 0.380250 0.171693 0.099309 -0.091393 0.035551 -0.320165 -0.023834 -0.156281 0.215289 0.462838 0.568236 0.386424 -0.008053 -0.103076 1.566371 1.047402 1.850028 1.473725 2.271976 1.231152 2.948981 4.444777 0.793256 0.115310 0.786232 1.784078 1.978314 2.503293 2.298654 2.469544 3.626688 4.525260 4.754227 4.073945 3.775157 3.701617 3.676918 4.373861 4.927982 3.964188 3.730273 3.689109 4.067590 2.583716 1.488763 0.986739 1.253357 1.787195 1.916345 1.963709 2.185933 2.083852 1.488045 2.085665 2.053332 2.045120 1.824205 2.571782 2.736072 2.611064 2.943871 4.013322 3.906058 3.517734 3.806172 -1.536120 0.493102 2.018295 5.427601 5.541873 6.999369 7.027732 6.957643 7.294121 8.364138 7.830607 7.721142 7.346320 8.233636 8.206928 8.402088 5.961824 6.967573 7.933588 8.112846 7.537402 6.748968 5.610142 5.496494 5.225249 4.740337 4.601316 4.579023 5.132422 5.057975 5.251253 5.689102 6.391236 6.937438 7.097483 7.552336 7.310809 6.505148 6.123389 6.794392 7.108025 7.161056 7.390504 7.295361 7.084623 8.182557 7.874965 7.993589 7.849635 8.046228 8.441994 7.789776 8.015576 7.318668 7.729190 7.406159 6.963729 7.211256 7.106778 7.433714 7.894944 7.833734 7.056057 7.090852 7.292014 7.118020 7.246369 6.533599 7.131018 7.837121 7.439142 7.521141 7.784213 7.280390 7.326232 7.352013 7.355265 7.335729 6.774783 7.020558 8.224160 8.890401 8.092753 7.570249 7.295501 6.822336 8.002943 8.275623 8.149475 8.527552 8.673006 7.733193 7.701144 7.901519 7.541268 7.425732 7.229253 7.951475 7.916797 8.300753 7.632375 6.345561 6.801529 7.100863 7.700866 7.831266 7.334705 6.457503 7.040362 7.931057 7.922583 8.306528 8.261367 7.695717 8.129789 8.246201 8.452504 8.495864 8.539259 8.357182 8.515501 8.553055 8.371212 8.518458 8.179591 8.095647 7.878720 8.216007 8.091864 8.452346 7.965309 8.437940 8.358220 8.734852 9.005050 8.331605 8.545493 8.999473 9.105471 8.920951 8.713528 8.672399 8.847703 9.074431 8.935420 8.332222 8.965951 8.728852 8.856053 8.687817 8.479536 8.797396 9.265436 8.987114 8.925666 9.313575 9.988688 9.174346 8.798495 9.299446 9.223314 8.979386 9.320475 9.996792 9.760296 9.517943 9.478726 9.278352 9.599295 9.284675 9.793878 10.496185 10.092634 10.778308 9.987641 9.805695 9.358863 9.839197 10.116745 9.798935 9.922552 10.159911 10.599569 10.116179 10.211634 10.040016 10.387167 11.431628 10.319208 10.466479 10.503581 9.922941 9.565751 10.267003 10.221409 10.594420 10.498377 9.907291 10.933583 10.976352 11.182122 10.260816 10.653723 11.112498 11.021971 10.801281 10.179557 10.614719 10.894568 10.958887 10.585630 10.510199 11.073295 10.025592 10.165100 10.191491 10.197834 9.783442 9.697309 10.060254 10.532564 10.248389 10.386109 10.423319 10.826516 9.926917 10.312064 10.783856 9.915810 9.891565 9.690530 9.442632 9.751438 9.824504 10.430845 9.975426 9.687719 10.199672 9.922185 10.046402 9.475110 9.743610 9.387113 9.503885 9.712036 9.961668 9.222472 8.858030 9.151026 8.812630 9.117032 8.984388 9.551170 8.486818 9.034903 8.944230 8.932620 8.709249 9.062470 8.936184 8.907183 8.892794 7.306163 4.341331 7.581688 6.710645 6.551206 5.429757 4.652671 5.603716 6.435033 6.832392 6.914230 6.752097 7.113564 6.189697 6.781360 5.090291 4.919618 5.428029 5.181124 5.690632 5.611593 6.013241 5.278043 5.731049 6.830391 5.075760 3.639284 2.287602 2.008150 2.903749 1.284124 -0.298402 0.915300 -0.396412 -1.092861 -0.323585 -0.090206 0.362238 0.440331 1.291376 -0.353014 -0.510523 -0.604268 -0.364952 -0.761414 -0.230669 2.510225 4.595398 5.907362 6.996729 7.282601 7.362351 6.145580 5.469781 2.826183 1.628962 1.278108 1.048420 0.971382 1.150392 0.786843 1.109753 0.560560 1.261469 1.401873 0.854300 0.690206 0.444204 1.217757 0.777600 0.689328 0.631690 0.435461 0.787476 0.868795 0.896949 0.684366 0.225732 0.720670 0.635189 1.240910 1.771393 2.121354 2.393022 2.046792 1.961266 1.928830 1.931788 2.334429 1.614905 1.647391 1.838757 1.499843 1.204024 1.531847 1.822642 1.694196 1.653277 1.229769 0.723156 0.796445 0.820127 0.630217 0.167931 0.462424 0.329309 -0.099370 -0.219362 -0.653395 -0.956642 -0.628537 -0.948358 -1.021891 -0.443490 -0.085440 0.410572 0.517535 -0.065689 -0.015857 -0.415949 -0.903655 -1.449075 -0.554902 0.278613 0.707120 0.782166 0.181654 0.236865 0.447219 0.108721 0.422876 0.695187 0.984024 1.242069 0.895878 1.217433 1.284922 1.319179 1.308674 1.105525 1.668559 2.006231 1.486016 1.543917 1.551084 1.369310 1.309373 1.705700 1.395793 1.116290 1.440788 1.329064 1.717336 1.176225 1.268331 1.879176 1.439310 1.120155 1.221356 1.268918 1.075380 1.223983 1.260382 1.480887 1.526781 0.927166 0.771712 0.729078 0.531382 0.885263 0.971157 1.207029 0.841144 -0.062916 0.315977 0.417118 0.675603 0.916750 1.191475 1.253412 0.034897 -0.064845 -1.125630 -1.343411 -1.635496 -2.692812 -2.967664 -3.038859 -3.226864 -3.079481 -2.633909 -3.954388 -3.863597 -3.052412 -2.387699 -2.038864 -2.378171 -2.256047 -1.821074 -2.320265 -2.444015 -2.490004 -2.478942 -1.658642 -1.874550 -1.914418 -2.363717 -2.245893 -2.847873 -2.355584 -2.465961 -2.872460 -2.377878 -2.049701 -2.777128 -2.760548 -2.772415 -2.332340 -2.242476 -2.209730 -2.009166 -1.751121 -2.514502 -2.285469 -2.665159 -2.720348 -2.141592 -2.606534 -2.296972 -2.254706 -2.626201 -2.320594 -2.045051 -2.373408 -2.672303 -2.754868 -2.556539 -2.713173 -2.333780 -2.670176 -2.319108 -2.260918 -2.636580 -2.122845 -2.005039 -1.744781 -1.915242 -2.154958 -2.017193 -2.394151 -2.267874 -2.254891 -2.231643 -1.822557 -1.930819 -2.156857 -2.022656 -2.191498 -2.222147 -2.450829 -2.495869 -1.890071 -1.738413 -1.898071 -2.581375 -1.706622 -2.337103 -3.061959 -2.880237 -2.609186 -2.517658 -2.299814 -2.046418 -2.395084 -2.274731 -2.261339 -2.444240 -2.290331 -2.049128 -1.771572 -1.501349 -2.059384 -1.574411 -2.097840 -2.602754 -2.551343 -2.110576 -2.815465 -1.943500 -0.940871 -0.851476 -1.676636 -0.867562 -0.483595 -0.749345 -1.045070 -0.724807 -1.055220 -0.902683 -1.929707 -2.367439 -3.540498 -2.760331 -2.581331 -2.683927 -3.357512 -3.747191 -3.223845 -3.076383 -2.802136 -2.967406 -2.592421 -2.721497 -2.733780 -2.756407 -2.342505 -2.031075 -1.113154 -1.729480 -2.073315 -3.461616 -3.781329 -3.876196 -4.054222 -4.086804 -4.104718 -3.892080 -3.837063 -4.025711 -3.458148 -3.120426 -2.801253 -2.741332 -3.151273 -2.844172 -2.576033 -2.890873 -3.600148 -3.384041 -3.122529 -3.009823 -3.202952 -3.470991 -3.127831 -2.832025 -2.939962 -2.771675 -2.127840 -1.329205 -1.536059 -1.184740 0.096458 0.657584 -0.217588 -0.710686 -1.286578 -0.963742 -0.879011 -0.825916 -1.454088 -2.234400 -2.030176 -1.961752 -2.105175 -2.164220 -1.976585 -1.502280 -1.169594 -1.086699 -1.080448 -0.674934 -0.777182 -0.377599 -0.509382 -0.106674 0.176408 0.062731 0.638826 -0.057462 -0.205667 -0.914287 -1.463103 -2.235937 -2.202970 -1.359407 -1.730072 -1.816820 -1.688889 -2.036638 -2.118766 -1.747527 -2.043449 -2.108495 -2.362838 -2.198847 -2.780794 -2.087643 -1.312026 -0.860382 -0.773620 0.256986 1.958607 -1.527478 -2.005649 -2.504389 -1.590697 -0.749219 -1.758788 0.655158 1.207149 1.039651 2.345692 3.058878 3.293868 2.669873 2.276706 1.133378 1.075273 0.851962 1.253746 1.769342 1.908151 1.109690 1.304261 1.543460 1.639505 1.668056 1.450717 1.602830 1.432803 1.608539 1.232186 1.557607 1.427644 2.032349 1.554079 1.856502 1.912769 2.360651 2.262950 2.026785 1.955397 2.147601 1.999252 2.385687 2.473512 2.296367 2.243220 2.640148 2.541233 2.733716 2.766330 2.778532 2.571603 2.516488 2.711466 2.351580 2.893805 2.811428 2.808045 3.209015 3.308223 3.552222 3.390834 2.303158 2.227571 1.994245 1.978694 2.190715 2.452276 2.526603 2.539749 2.324862 2.684247 2.360534 2.495942 2.101420 1.589122 2.294054 2.896745 3.290664 3.997399 3.523584 2.979695 3.019989 3.252137 3.760021 3.679984 3.233332 3.306869 3.324597 3.772711 2.840130 3.017978 3.036997 3.293023 3.569732 4.258726 3.595542 4.051807 3.919130 4.340570 4.435546 4.250745 4.822921 4.329842 4.224750 4.378394 4.224933 4.620816 4.708896 4.533842 4.056570 4.346070 4.216753 3.370028 3.772927 3.442235 3.411003 3.808775 4.122112 3.166330 2.908279 1.973996 1.566288 0.215440 0.320527 -1.319067 -1.050843 -1.211145 -0.345026 0.301161 0.260229 -0.189734 0.486493 2.128515 3.429377 3.555468 3.515405 3.231386 1.077601 1.766771 3.595685 4.424502 5.055144 4.677645 4.350848 4.034686 3.967352 4.175959 4.033947 3.795497 4.135957 4.647387 4.593589 4.987786 4.842106 4.407154 4.060908 3.760014 4.337918 4.283415 3.249530 2.733693 2.580741 2.817509 2.898341 2.920357 2.700544 2.853677 2.675718 2.439039 2.572062 2.187830 2.322529 1.700618 0.309679 0.144413 0.531485 0.505622 1.134054 1.250555 0.676187 0.492169 0.633554 3.656008 3.793885 4.313336 4.667184 0.981051 4.280964 -0.095037 -3.126305 -2.116475 -2.534919 -4.067512 -5.018785 -4.845606 -4.710262 -4.414061 -4.583449 -4.837774 -3.632251 -2.919510 -1.640560 -2.242696 -2.399566 -2.721817 0.405963 -0.087042 -0.133296 -0.317781 -0.363732 -0.969052 -1.542915 -1.906652 -1.126833 -1.121748 -0.662704 -0.802435 -0.197442 -0.272614 -0.494151 -0.139526 -0.913766 -0.434889 -0.556104 -0.554934 -0.556998 -0.356786 -0.296224 -0.491642 0.092543 0.651258 1.443910 2.902409 3.017284 3.884435 3.821455 4.223708 5.795184 5.947822 6.426857 6.899736 6.783841 4.851242 4.564627 4.053409 4.427284 3.274017 4.702637 4.387316 4.791082 4.423647 4.744994 4.397819 4.751225 4.612387 4.159886 5.115388 4.051989 4.256856 3.411563 2.800790 2.241591 1.473099 0.043312 -0.933277 -1.151818 -1.364784 -1.582203 -1.417909 0.541358 2.104781 2.283051 1.185934 1.267494 1.273904 1.112967 1.725443 1.641589 1.422126 1.777274 2.492532 2.900938 3.207012 2.824063 3.566537 2.881743 3.589300 2.455517 2.834968 1.629762 1.363377 1.090913 1.901675 2.132391 1.554009 1.390025 1.753517 1.441716 1.818087 1.240844 1.544327 1.609676 1.425455 2.030624 1.730644 2.107139 1.959329 2.574993 2.286926 2.219182 2.186375 2.611007 2.940103 3.449327 4.419881 5.065633 4.556858 5.047984 4.918637 5.338409 4.999313 5.125731 4.501270 5.004949 5.774777 6.405104 6.115071 6.872192 5.730486 5.682090 5.226679 6.000408 6.425201 6.308467 6.915264 6.811583 6.359825 6.675387 6.955171 6.606398 6.303352 5.562300 6.270338 6.667073 6.778735 6.142430 5.747015 5.873057 5.704970 6.121455 5.994399 5.092806 5.314970 6.231911 6.472909 6.100692 6.410621 6.028059 6.175140 5.989408 6.381397 5.824921 5.478669 6.262626 5.580906 6.101380 6.413698 6.492974 6.514153 6.495156 6.491182 6.492333 6.057809 5.741020 6.323735 5.818698 5.499905 6.065705 5.765001 5.938394 6.395648 6.064233 5.994663 5.959691 5.958926 5.969661 6.188354 6.238736 5.814011 5.928187 6.169269 6.457348 6.086694 5.988906 6.394011 6.714329 6.795312 6.142287 6.197589 5.115965 5.765161 5.262357 5.168823 5.368259 5.841573 5.964899 5.544130 5.433490 4.962986 5.309226 6.051133 6.223178 6.039671 6.189051 5.989669 6.392437 6.699628 5.885175 5.702305 5.866154 5.918012 6.169223 5.993965 5.729142 5.227841 5.337493 4.932968 4.636199 4.795597 5.052799 6.224175 7.579617 8.080680 7.937400 7.856335 7.375389 7.494586 6.869229 7.178465 6.815371 6.517634 6.682934 6.275192 6.643352 7.607212 8.262253 8.625768 9.113607 8.973778 8.710617 8.201800 8.750074 8.221543 8.779347 8.680972 9.092970 9.192103 8.976307 8.710825 7.980023 7.827890 8.030193 8.312411 7.950013 8.525004 8.422962 8.180387 7.912790 8.058814 7.664655 8.250260 8.604103 8.455837 8.649446 8.223005 8.132192 8.340592 8.163118 8.582441 8.445672 8.191681 8.580800 8.432780 8.414123 8.629822 8.221647 8.143592 8.565278 8.877687 8.072503 8.330218 8.370340 8.389390 8.634199 8.666702 8.011551 8.085735 8.761936 8.697208 8.696699 8.230615 8.112885 8.985204 8.513115 8.644063 8.654858 8.415388 8.387096 8.810304 8.905746 8.931900 8.483064 8.371183 7.906643 7.812811 8.471981 7.062690 4.998140 4.102642 3.922171 3.740889 3.307528 3.661127 3.959790 3.368618 3.467231 3.693500 3.966288 4.264841 4.088343 4.039790 3.575873 3.697026 3.732951 4.188373 3.625683 4.160955 4.272508 4.508703 5.463598 5.860902 6.384691 6.918698 7.443726 7.543259 8.210040 7.887866 6.240207 6.343186 6.586008 6.663196 6.947838 7.426248 6.622636 6.230243 5.025412 2.753890 2.554419 1.640752 1.047019 1.678103 1.788684 2.063465 2.578394 2.429359 2.847053 2.702041 2.202316 2.115876 2.306576 2.356909 2.604325 1.981259 0.941727 0.965148 1.193992 0.590025 0.269954 -0.251266 0.306410 0.457227 0.250086 0.452371 0.689729 0.738441 0.978738 1.240600 1.282823 1.964978 2.318751 1.698420 1.573173 1.754480 1.783338 1.138427 1.681590 1.787645 2.023232 2.778017 4.924823 5.573801 5.888026 6.383941 7.311958 6.590772 5.517661 6.217090 5.887245 6.289114 6.632841 7.103890 6.312606 5.219616 5.924543 5.383873 5.961214 6.808814 5.555693 4.644399 5.378174 3.237030 1.487842 0.972383 3.588260 3.487253 4.145067 4.280366 3.294760 1.316118 -1.359438 0.202638 0.366223 0.397560 0.705557 1.142190 1.471912 2.208697 2.799960 3.796626 3.296769 3.374347 2.275102 1.323201 1.896073 2.925823 3.130701 3.159517 3.381451 2.707641 2.574059 1.888248 1.738531 2.220070 2.524206 1.438092 2.604876 4.239419 4.934683 4.842828 4.779060 4.514279 4.683513 4.962872 4.769260 4.736818 4.042406 3.209162 3.316893 2.656860 3.452951 3.192149 3.544020 3.436633 3.355799 3.375656 3.357363 3.592437 3.864959 4.137314 4.644038 5.878077 7.014423 6.265002 6.780269 5.973468 6.208624 4.732247 5.987626 5.650160 5.695761 5.595475 5.253868 5.926271 5.815365 6.003188 6.757431 7.088133 7.603684 7.694971 6.983570 6.621730 6.102367 5.542898 5.244616 4.969606 4.703226 5.128248 5.449086 5.725682 5.324545 5.916240 5.125270 4.701990 4.458799 5.065674 4.994450 5.871585 7.447003 7.913395 6.828413 5.680131 5.923364 5.996542 5.093879 4.255670 4.114648 4.565155 3.979800 4.323269 3.961430 4.077881 4.610459 4.677987 5.152283 6.623519 6.412110 7.244701 6.502203 6.504529 5.655103 5.667045 5.975595 6.225687 6.527890 5.645393 6.151350 7.207454 6.438964 7.210429 5.316953 2.566966 0.797294 -0.890709 -1.357859 -1.343401 -0.639198 0.215898 0.125675 -0.601686 -0.977152 -1.038724 0.101239 0.342815 0.793629 -0.239275 -0.961815 -0.348929 -0.921626 -1.503026 -1.338707 -1.317103 -1.081768 -1.020777 -0.800377 -0.751477 -0.758909 -1.211656 -1.309473 -1.078490 -0.811705 -0.984208 -0.799505 -0.526361 -0.492254 -0.255941 0.470832 -0.768126 -0.816345 -0.526339 0.158242 0.338187 0.332316 -0.118769 0.225745 0.092458 0.720443 0.654025 0.361566 0.106502 0.492043 0.816995 0.638612 1.060957 0.917627 1.314550 0.741730 0.811796 0.872658 1.075882 1.373748 0.960837 1.097462 0.915512 1.080478 1.146228 1.589203 1.240431 1.365546 0.966543 1.079045 1.143198 1.129964 1.146839 0.685917 1.046599 1.367394 2.086897 1.339341 0.459362 0.550593 1.019183 1.355537 1.422777 0.968865 1.317339 1.405754 1.169547 0.689255 0.581029 0.803569 1.076026 1.362184 1.184941 0.906451 1.309177 0.938441 1.072708 1.360130 0.931766 0.852991 1.076080 0.655245 0.799793 1.076897 1.109290 0.898658 0.846835 1.066099 1.335435 0.935988 1.070063 1.114260 0.871541 0.841888 0.607748 0.555599 0.788707 1.057889 1.112389 1.568725 1.206980 0.878349 0.611555 0.313956 0.277130 0.279915 0.736115 0.837491 0.838258 0.619313 0.330505 0.055965 0.004324 0.234166 0.284964 0.065936 0.023231 0.242060 -0.168442 -0.254110 -0.023432 -0.446085 0.157127 0.301220 0.060790 -0.185070 -0.027686 -0.211780 -0.027551 -0.195085 -0.253431 -0.240746 -0.025910 0.256223 -0.149985 0.214719 0.079283 0.015053 -0.185979 0.199721 -0.150851 -0.477168 -0.279427 -0.031003 0.027214 -0.186869 -0.237205 -0.245076 -0.022787 0.032412 0.258977 0.310951 0.302411 0.079799 0.024189 0.024482 -0.207412 -0.020014 0.027841 0.249786 0.309651 0.073863 0.030556 0.023134 0.472460 0.348741 -0.154930 -0.012666 0.242988 0.287806 0.535208 0.124986 0.475507 0.349778 -0.399269 -0.287810 -0.485531 -0.539933 -0.055064 0.026993 -0.194139 -0.232281 -0.474553 -0.299397 0.211941 0.073885 -0.416905 -0.508046 0.153835 -0.159294 -0.241394 -0.677644 -0.808531 -0.788336 -0.344135 -0.003097 0.042478 -0.858297 -0.604779 -0.738100 -0.355066 0.244561 -1.048397 -1.319276 -1.087838 -1.316517 -0.861132 -0.528782 0.638101 0.897932 0.421842 0.577047 1.044163 0.670422 0.593927 0.830737 0.850541 0.184625 0.498558 0.596525 0.798743 0.435105 0.090232 -0.400965 -0.517932 -0.501355 0.175238 0.340761 0.332984 -0.101422 0.000077 0.055687 -0.187055 -0.438766 -0.494188 -0.952255 -0.366006 0.021153 -0.630409 -0.289629 0.023392 0.492675 0.174776 0.286832 0.799493 0.409493 0.785276 0.666635 0.125819 0.061295 -0.185286 -0.465750 -0.038579 0.057712 0.737563 -0.229235 -0.051044 -0.140586 -0.945572 -1.026435 0.324293 0.383497 0.117641 -0.344866 -0.276101 0.239428 1.244143 1.228634 1.404066 1.005470 1.089958 0.704732 -1.017801 1.424673 1.093574 0.588081 -2.267355 -2.815060 -2.215305 0.085414 1.178471 2.616041 4.559332 7.304969 7.604093 7.967140 7.159182 7.052978 5.770725 4.956787 3.344036 3.862522 3.683664 3.072527 3.330419 4.243420 7.417845 6.710314 6.348777 7.825434 8.860828 8.622098 9.005134 8.642668 8.472763 8.980962 8.584312 8.492982 8.292788 8.431825 8.733082 8.082476 8.635510 7.884936 7.868423 8.217571 8.888254 8.842377 8.320902 7.560057 7.849669 8.187495 8.444066 7.615408 7.176082 7.152992 6.894955 6.640396 6.832433 6.425498 6.775683 6.901550 6.640126 6.849081 6.207388 6.047475 6.307853 7.007590 6.945612 6.659826 6.406303 6.332491 6.337815 6.338288 5.892122 6.023098 6.084329 4.926173 4.708720 4.503673 4.645449 4.736052 4.496576 3.781336 4.543389 4.298891 3.934143 4.401629 4.013125 3.910722 3.943035 4.371473 3.807107 3.647312 3.904759 3.697331 2.983923 3.073588 2.902118 2.155633 3.169649 3.198563 3.335257 3.219012 2.222254 2.268068 2.102919 2.252323 1.891555 2.676070 2.902747 3.539917 3.056151 3.765511 3.782695 3.667537 3.496068 3.639377 3.929033 3.967689 3.750366 4.378981 4.075607 4.180033 4.493384 4.505143 4.294056 4.468893 4.518010 4.505886 4.518164 4.285558 4.459405 4.289618 4.676404 4.570563 4.494596 4.067068 3.944612 4.185359 4.449418 4.731385 4.331627 4.220777 4.005058 4.159988 4.228054 4.665955 4.554952 4.484990 4.275226 4.205107 4.215303 4.658963 4.092732 4.374966 3.830138 3.860604 4.181910 3.973621 3.488112 3.614964 3.666950 3.430221 3.844353 3.050165 3.273631 2.968409 3.043395 3.590867 3.666356 3.894756 3.728661 3.883892 4.173081 4.207615 3.987998 4.386293 4.267009 3.972498 4.169774 4.436485 4.708057 4.765929 4.535854 4.036208 4.160253 4.444345 4.486106 4.498693 4.500681 4.272258 3.997948 4.404348 4.284513 4.449416 4.299440 4.453770 4.523293 4.284012 4.470893 4.749144 4.341102 4.245896 4.033451 4.192213 4.261043 4.252133 3.814075 3.932400 4.218911 4.030377 3.991697 4.446534 4.537691 3.860203 3.941724 3.770705 4.374765 4.554888 4.081168 4.223673 4.490313 4.527502 4.540055 4.987544 4.411416 4.696603 4.821891 4.561962 4.313743 4.702398 4.805324 4.572690 4.536310 4.305332 4.471953 4.758413 4.353829 4.254218 4.486052 4.523861 4.753989 5.034800 5.077025 4.852883 4.575699 4.746209 4.128848 4.412936 4.544645 4.738456 4.370377 4.472878 4.540484 4.521468 4.537669 4.756072 4.363624 4.252707 4.492367 4.531723 4.984718 4.651282 4.530199 4.551743 4.310267 4.715704 5.052336 4.869775 4.604960 4.552690 4.549653 4.329741 4.952342 4.673830 4.770981 4.856957 4.826932 5.067244 5.116164 4.444034 4.514900 4.577199 4.558659 5.026912 4.682184 5.012484 4.916190 4.610007 4.806206 4.624545 4.345590 4.752723 5.074809 4.896347 4.630961 4.353678 4.740405 4.628195 4.788804 4.860434 4.616950 4.574327 5.019516 4.895698 4.391957 4.523727 4.123725 4.234069 4.978539 4.893599 4.840460 4.406322 4.506739 4.795436 4.834361 4.397078 4.514508 4.793497 4.831965 4.396574 4.291356 4.517132 4.560231 4.788272 4.400013 4.285239 4.744503 4.612010 4.561104 4.353293 4.062158 4.019834 3.575078 3.914504 4.036238 3.352055 3.213150 3.660949 3.976901 4.039209 4.045957 4.262691 4.311883 4.087046 5.816278 6.240433 6.209365 6.032858 5.490091 5.167400 4.896618 5.067428 4.910305 5.078989 5.145987 4.913449 5.313850 4.753781 5.029060 5.157585 5.129074 4.933272 4.870460 5.093544 4.921837 4.651028 4.825545 5.091899 4.922360 4.875989 5.098055 4.700040 4.815521 4.879294 4.420638 4.547761 5.042317 4.474940 4.982105 4.937478 4.847093 4.880274 5.739364 6.399553 6.272285 6.451029 6.277096 5.762900 6.108019 5.553290 6.036744 6.009937 5.700681 5.678896 5.441738 5.387510 5.175168 4.456022 4.960720 5.127358 5.111389 5.357735 4.737575 5.450302 5.460307 5.377131 5.192181 5.333565 5.615022 5.662686 6.108846 5.779651 5.879609 5.949442 5.489856 5.177886 5.343570 4.733451 4.795480 4.429280 4.958223 5.369101 5.184427 5.593351 5.694664 5.241798 5.370961 5.639948 5.902886 6.194048 6.028443 6.192422 6.470484 5.854482 6.142496 6.041612 5.958617 5.776982 5.924137 6.429036 6.091289 6.211769 6.062161 5.978639 5.785130 5.718816 5.730866 6.164026 5.844014 6.168161 6.080443 5.993174 5.806357 5.731981 6.181819 6.506372 6.562776 6.793006 7.061774 