-0.397346 1.071839 -0.298299 -0.251126 0.267465 2.203410 -1.275433 0.306104 3.323008 -1.307859 1.210508 1.270368 -0.388913 -0.887600 0.563045 -0.564377 1.723843 -0.151698 0.885130 -0.717640 -0.341301 0.822831 0.153633 -2.715643 -1.854828 -1.223908 -1.641391 -2.544893 -0.447957 0.910377 -0.627282 0.750451 0.025770 -0.503450 -0.407578 0.420136 0.455015 1.492090 -0.854679 -0.221126 -1.042469 0.115467 0.592535 1.194150 0.256196 -1.120243 0.922235 -0.704878 0.903397 -1.326566 1.522227 -0.682459 -0.007715 1.406711 1.524726 0.198891 -1.699600 -0.672069 0.816913 -1.850887 -2.932394 -1.911911 -0.763269 -0.104915 -2.168806 -1.255953 0.787814 0.822590 0.384383 1.688287 -1.499559 1.843405 0.678144 0.666298 1.514716 0.417730 0.745148 0.720938 -1.174802 -0.034214 0.950552 0.630007 -0.570529 0.217800 0.109019 0.970244 -0.872035 -0.448386 1.891728 1.117558 -0.797613 1.014698 0.959526 -1.886279 -1.256150 1.804963 -0.269619 0.888709 -0.950243 -0.846027 -0.451092 1.009909 0.249508 0.631447 -0.033644 1.190788 -0.046474 0.447101 -0.442993 0.541739 1.357357 -0.814760 0.486769 0.002264 -0.983056 1.360532 0.035774 -1.329528 1.124924 0.194461 0.075962 -0.111777 -0.626215 -0.406928 1.121330 -1.509123 -0.974986 -0.114970 0.550333 -0.493982 1.505977 0.461052 -0.762691 1.016450 -1.703571 -0.315600 -0.912478 0.485606 0.863826 1.378361 0.479480 0.301281 2.033802 -0.960734 0.833561 -0.553768 -0.565004 0.352319 1.581435 -0.295236 -0.005718 -0.345076 1.010742 -0.162495 0.920725 0.321814 0.145831 0.697950 -0.870781 -0.072925 0.570088 0.719365 0.636354 -1.284052 0.098831 -1.302087 -0.597905 0.254327 1.393879 -0.450128 -0.251531 0.823050 0.314619 -1.190772 -0.158137 -1.576964 1.047530 -0.607896 -1.053982 -0.520803 0.301939 0.470276 0.784692 -1.314212 -0.022140 -1.478171 -0.369132 2.145678 -2.003872 0.512245 -0.849505 0.712169 -1.227756 -1.933168 2.055256 0.154261 0.339551 -0.754757 -1.274868 -0.020129 1.232605 0.751680 -0.764576 -0.446362 -0.899293 -0.830723 -0.062330 -0.586063 0.463897 -0.648380 -0.616779 -0.870081 0.609067 -0.148588 2.144257 -1.758414 0.071924 -0.701068 0.948098 -0.601049 -0.495857 0.261881 0.432486 1.188433 0.888457 -0.325994 0.344259 1.644547 0.591004 -0.376498 -0.955505 -1.152529 1.512309 0.572978 -1.452693 0.715746 -0.555884 1.778671 0.061979 0.917237 -0.053434 -0.156577 0.024172 -0.930088 0.348102 0.314762 0.621732 1.528767 -0.827197 -0.030360 -1.796517 1.952067 0.483221 -1.199125 -0.005733 -0.582534 0.370851 0.843185 1.020348 -0.139476 -1.461484 0.448977 -1.192802 0.474337 2.415209 -0.345688 -0.601004 1.239811 -1.712730 0.200541 -0.139662 -0.777991 -0.900382 0.786288 -0.493655 -0.902696 0.926919 -0.453084 1.043453 -0.625143 -1.504379 0.507810 2.122700 -1.069060 -0.108804 1.080463 -1.410293 0.023414 0.566260 1.714346 -0.154645 -0.515060 0.317190 -0.397354 0.693160 -2.367526 1.748867 -2.117064 1.215211 -0.851549 -0.898808 1.092621 0.984407 -0.759184 1.052218 1.260026 0.286752 -0.116071 -1.499455 -0.547584 0.551294 0.256835 0.770462 -0.358568 0.799670 -0.419840 0.151622 -0.809981 -0.639241 -0.402670 0.109830 1.088795 0.752820 -0.411801 0.820477 1.082594 -0.302823 -2.127896 0.592791 -1.215553 0.012358 -0.903949 0.761265 -0.409164 0.599203 -1.008291 -0.840041 0.989659 -0.551557 0.138303 -0.895180 0.329521 0.202238 -1.548013 -0.007026 1.453723 -0.657596 0.104563 -0.347451 0.665200 1.491047 3.584511 1.726981 -0.094010 -0.701098 -1.002331 0.269683 1.645652 0.237209 1.983117 0.693047 -0.900594 -0.399249 -0.321244 1.848444 -0.210106 0.063490 0.366628 0.786294 -0.362898 -0.226345 0.030359 0.533449 0.454690 0.392106 -0.050831 -0.449793 1.302710 -1.670400 1.463088 -0.392998 -1.919962 0.457665 -0.412516 0.249348 1.710909 0.780744 -0.299885 0.427915 -0.694525 -1.604177 -0.140779 0.859398 0.047339 0.097929 0.227907 -0.320971 -1.321074 1.108105 0.734244 -1.138755 1.483256 0.027455 1.594005 -0.908747 -0.627461 0.297123 -1.096516 -0.693360 0.987684 -1.401063 -0.985219 0.405307 0.120628 0.557130 1.405406 -0.460162 1.354417 -1.101994 -1.347710 -0.881524 0.687485 1.509431 1.486718 1.362045 0.668318 -0.377580 -1.288290 -1.481547 0.980519 -0.530406 0.716659 -0.332230 0.915916 0.250002 1.125390 0.985839 -0.897549 -0.895788 -0.637434 0.007192 0.954283 1.216998 0.000046 -0.281752 -1.129001 -0.852864 1.413007 -0.241861 -1.119830 0.534489 0.908863 0.592312 0.974516 2.485201 -0.212163 -1.031909 1.105752 0.117921 -1.023203 -0.053402 0.644287 -0.054262 0.012485 -1.446569 0.665324 -0.108024 1.948325 -1.107466 0.390610 0.054352 0.337586 -0.147265 0.323429 1.002638 -1.464253 -0.316949 -0.739991 0.399522 -0.819755 0.443179 -0.041377 -0.652349 -0.860770 0.328841 0.188990 -1.070889 0.957645 0.130089 -0.488487 -1.885853 0.214298 1.122195 -1.119124 -1.165526 1.430723 0.332201 -0.454617 0.932382 0.678536 -0.082079 -0.030157 -2.690387 0.212083 1.052829 0.482093 -0.555738 -0.245851 -1.638454 -1.433371 -0.112621 1.243351 -0.784538 1.170844 -0.053517 -0.162029 -1.160949 0.022481 1.631731 -0.712526 -0.298021 -0.111311 0.909664 0.001795 -0.068980 1.748404 -1.505648 -0.973929 -0.130852 -0.375717 0.746973 0.452943 2.629012 -0.119839 0.596338 -0.416215 -1.024648 0.926272 -1.205194 -1.819959 -0.146957 -1.353480 0.529210 1.370631 -1.214877 0.459472 -0.764312 -0.152585 -0.209858 0.188378 0.234663 0.637746 -1.053015 -0.239958 0.352594 0.027832 0.582339 -0.670079 0.731197 -2.205424 1.031080 -0.948479 0.703430 -0.377059 -2.076732 -0.684360 0.755533 -0.142331 -0.751376 0.724349 0.520071 -1.352815 0.632231 -0.164996 0.307426 -0.319194 -1.333195 1.309377 0.150484 -1.571061 -0.450376 -0.411454 0.646957 0.824609 -2.085517 0.902242 0.512930 -1.468226 -1.525368 0.411968 1.273436 -1.511390 0.179706 -0.328603 0.699012 -0.727817 0.473330 0.458750 0.188639 0.234513 1.187760 1.460039 0.493719 -0.006542 -0.998542 -0.185782 0.772834 -0.131205 0.612333 -1.600970 0.089617 -0.606440 -0.653465 1.198263 1.872430 -0.057402 1.789340 -0.735968 -1.588063 -0.675123 -0.243725 0.314779 0.165759 -1.227236 0.854896 1.029722 0.101429 0.692373 -0.983172 -0.582558 -1.093818 1.647059 -0.991179 1.460294 1.823249 -1.820959 0.518560 1.220685 0.822131 -0.996337 -0.521856 -1.769598 -1.518021 -0.253570 1.207241 0.418201 1.036776 -1.091040 -1.297326 -0.035417 0.635914 0.917852 -1.357997 -0.101285 -1.161656 -0.064402 1.374084 -0.726500 0.313005 1.361690 -0.669433 0.573041 -0.716092 1.638273 0.075641 0.061203 -0.773840 -0.115157 0.420661 0.622875 0.595478 2.188570 0.690016 0.092719 0.205820 0.070665 0.012182 -1.112237 0.404952 -0.747162 -0.547504 0.197668 0.634754 1.100592 -0.232549 0.041177 1.692748 -1.029454 1.468267 -2.097878 0.133682 -0.965155 -0.989982 -1.638736 1.299850 1.609509 1.071772 -0.456500 0.353560 0.794399 1.332127 -0.072504 -0.418420 2.085245 0.335225 -1.325362 1.352301 -0.117526 -0.088752 2.712445 0.432196 0.624106 1.189392 -0.164590 -0.585398 -1.586472 0.550357 -0.231351 0.383891 0.544593 1.621427 0.266417 0.261945 0.353695 1.294820 -0.646673 1.816274 0.400888 0.383669 -1.628000 -0.088231 1.016669 -0.572935 -0.105915 0.095496 -0.360086 0.255269 -1.448329 1.678651 0.122292 1.705684 -0.586561 1.245593 -1.570359 0.292701 -0.291141 -0.384860 -0.569991 1.114597 -0.657864 0.052342 -1.387827 1.479289 -0.545122 -1.468169 -1.830945 -0.497340 0.488611 -0.931498 -0.971375 -0.100350 -0.727015 1.366008 1.365428 -0.506224 -0.108594 -1.174568 -0.520697 -0.629963 -1.647367 -1.132039 -0.417782 -0.982446 -1.845302 0.155364 -0.115851 1.837529 -1.277452 0.745892 1.009544 -0.597484 0.140924 -0.556402 1.114479 -0.886770 -2.168054 0.553647 0.055389 2.002889 -1.622989 0.635813 0.449056 -0.473089 -1.372051 -0.550366 1.637947 -0.606867 0.261217 -0.789098 -0.072843 -0.705501 0.376420 -0.269591 1.382587 -1.079559 0.903976 1.669875 -0.008223 1.304610 -1.785639 -1.645969 0.260523 -0.188362 2.096478 0.470701 0.143494 -1.309497 -0.523101 -0.027111 0.271020 -0.242100 2.692485 -0.194013 -1.524499 1.212770 -1.153576 -1.279884 -0.412687 1.232786 -0.177052 -0.000338 -1.522038 -0.556076 2.752997 -0.561676 -0.000229 -0.426587 -0.360536 0.243302 -0.081937 0.611511 0.478934 0.444345 -0.735328 0.065818 1.081173 0.102541 0.235064 0.251373 -0.318939 0.940106 -2.267093 0.817286 0.930298 -0.474261 -1.727464 -0.142342 -0.771173 -0.138189 -0.175193 0.465758 -1.817409 -1.226538 -0.488268 1.034706 -0.500189 -1.338017 -0.261385 1.262945 1.255014 -1.338766 0.422335 -0.959305 0.326820 0.571158 0.314348 -0.147557 0.462211 -0.242723 0.316927 -0.964727 0.970389 -2.178123 -0.355070 0.128665 -0.661526 1.851442 1.695793 -0.178602 0.073215 -0.579457 -0.529358 -0.593268 1.128312 -0.306599 -0.581746 0.766963 0.934398 -0.973120 -0.604678 -0.480032 0.071762 -0.062780 -1.693224 1.138962 0.020054 0.086221 1.739696 -0.478913 -1.181543 -1.494025 1.489794 0.740572 -0.470331 1.080393 -0.359992 -0.708758 -0.129522 -0.245543 -0.168564 -1.794016 -1.150948 0.098439 0.920462 -0.446196 0.924812 -0.914852 -1.623078 -1.313051 0.883896 1.467042 -0.006004 1.997162 -0.733751 1.287737 -0.473676 -0.321394 -0.770428 -0.648895 1.184191 0.649373 -1.466931 0.215980 -0.543492 0.115314 -1.154707 -1.284441 1.257491 -0.991130 0.050276 0.458329 -0.185504 -0.637099 0.528565 -0.232344 1.472840 -1.251768 -0.638124 -0.026076 0.887022 -1.079911 0.420612 3.033508 0.408802 -1.033592 0.444113 0.194245 0.560374 -0.266743 -1.087438 1.016008 0.511215 0.453815 0.934814 0.200182 1.974037 0.166098 -1.301417 0.839452 -0.173421 1.098791 -0.972582 0.762928 0.528169 -0.735324 1.868538 0.027210 -0.191627 1.016988 0.144957 -1.393683 1.826509 -1.089111 -0.447651 1.281388 0.335794 -0.102074 -0.060729 0.693909 -0.700179 0.148471 0.094638 0.148956 0.155981 -0.396520 0.992637 -0.525452 -0.180960 0.429890 -0.266373 0.491644 2.003607 0.339184 -1.176541 -0.080833 -0.159702 2.047145 -0.991385 0.358300 0.878090 0.623134 -0.627031 0.195808 1.328074 0.868793 -0.897434 0.206628 -1.516843 1.787577 1.452306 -0.973008 1.435207 -0.737158 0.328792 -1.679810 1.173449 0.694865 1.114876 -0.093563 -2.011738 0.475405 -0.656133 1.243344 -0.366387 0.671593 -1.054875 1.549815 0.302250 -1.369755 1.509539 1.341447 -1.608407 0.179448 1.106594 -0.829231 0.572503 0.287009 -1.705842 -0.516663 -0.586401 0.768214 -0.789685 0.752522 0.581734 -0.110948 -0.004992 1.029798 0.705171 -0.065828 -1.025808 0.564716 -1.975640 0.409221 0.004166 1.216640 1.946662 0.216128 -0.506884 -0.333910 -0.800148 1.005888 -0.672712 -0.164190 -0.584701 1.324347 1.325724 1.953137 -0.162476 0.239698 -1.381595 -0.875803 -0.740404 1.551937 1.530987 -0.984418 -0.734732 0.077223 0.529995 -0.950307 0.002352 -1.004821 1.158294 -1.112355 1.089960 0.589829 1.069628 0.244560 -1.413006 0.968796 -0.219887 0.546923 1.351323 1.531638 0.729918 -1.045271 -0.960147 -0.135736 0.272730 0.103698 1.265558 -1.194468 0.124618 -0.087485 0.516234 0.282534 0.729823 -0.397551 -1.171857 -0.715497 1.540840 0.285346 0.338906 -0.188999 0.107241 0.060117 -0.085154 0.000421 1.552860 -0.534609 -0.575106 0.114036 0.074631 1.046305 0.028253 -0.187837 -0.519216 0.191562 0.554825 -0.186963 0.011144 1.012156 -0.747818 0.636361 -0.694946 2.130184 -1.200760 0.997722 1.436498 1.001637 -0.549260 0.626480 -2.162823 -0.226487 2.183283 3.105597 -0.939995 0.747676 -0.748077 -1.039886 0.003700 -1.926680 -1.698805 -0.366831 -0.259665 -2.314734 -0.124296 -1.169636 -0.146396 -0.416636 0.180043 0.110598 -0.490103 -0.710899 0.776022 -0.160689 -0.508244 1.359708 -1.077857 0.467610 0.817570 -0.315963 -0.098683 -1.573312 -0.771975 -0.734704 1.204793 0.098140 -0.719077 0.027363 -0.974260 -0.561761 -0.623793 0.470639 -0.741601 0.019165 -0.593809 -0.336030 0.511878 -0.730397 0.954952 0.311595 -1.007351 -0.628004 -0.101771 0.325940 0.033496 0.430605 0.679063 -1.321347 0.571267 -0.347475 -0.499298 0.836339 -1.727424 -0.794734 0.061459 -0.839918 -0.534602 0.728880 -0.430986 0.603792 -1.143854 -0.519336 0.714669 0.274122 0.184868 -1.662884 -0.857875 -1.548917 1.046328 -1.377249 0.150195 1.813917 -0.213360 -0.429043 0.733503 1.615645 -0.319444 -0.537627 1.669445 0.114918 -0.978132 -1.780572 1.001530 0.347352 0.243739 -1.429994 0.129220 1.036274 -0.226211 -0.842099 -0.482639 0.466063 -0.218243 -1.240713 1.475214 -0.056054 -0.239729 -1.707495 0.921340 -0.438561 0.153835 1.749048 2.411797 0.040236 1.281368 -2.441369 0.010511 -0.695974 -1.672714 -0.999254 -0.291702 -0.577820 0.282458 0.377350 0.222024 4.339747 1.575029 -0.462805 -1.915397 -1.572145 -0.696008 -0.232527 0.175645 0.499239 -1.112575 0.177327 0.301846 1.616017 -0.996178 -0.331455 0.089120 1.145372 0.158148 -0.137452 0.004980 -1.415345 -1.500025 0.862000 0.319103 0.238404 -0.964859 -1.520391 -0.236809 0.739261 -1.172951 -0.224044 -0.269211 -0.559722 -0.484071 -0.387477 -0.693812 -1.623663 0.093279 2.759392 1.353597 0.887839 1.708009 -0.107023 -0.331442 1.284517 0.721313 -0.197434 1.164386 -0.393435 0.402041 0.195753 -0.081828 1.193832 -0.781413 -0.165210 1.405337 -1.778967 1.536341 1.028589 -0.567857 -2.146561 -1.097686 -1.470501 -0.899969 -0.692328 -0.022268 -0.109249 -0.122666 0.599794 0.625848 0.317754 -0.622929 -2.285027 1.358122 2.007872 -0.365104 0.651230 -0.770474 -0.319896 0.791894 -0.746516 0.046427 -0.798678 -0.773020 -0.559582 0.015400 1.460113 0.367304 0.303514 -0.610822 -1.446188 0.277399 -0.007718 -0.398322 0.533388 -0.099625 -0.435272 1.666865 -0.732957 0.134382 1.530058 -0.653756 -0.684344 -0.002137 0.803627 -0.023135 -0.307517 1.829068 -0.557680 -0.524554 1.219167 -1.600294 -0.779715 -0.152644 -1.205577 -1.120744 -0.298527 0.507540 -1.370423 -0.739779 -0.203530 2.099146 1.290203 0.050595 2.007561 0.693661 -1.044220 -0.535333 0.489138 -1.313308 -1.779152 0.923786 0.368266 -0.124246 0.681334 -0.378403 -0.153635 -0.172783 -0.491771 -0.682361 0.368595 -0.285913 -0.882337 0.978537 0.779829 1.225037 1.417824 0.892504 0.592215 -1.480610 -0.293857 -0.646031 1.613357 0.400124 0.518109 -0.045832 1.305810 -0.883647 -1.008555 0.952864 -0.985987 1.494996 -0.017814 0.268452 0.121537 -1.291353 -0.309925 -0.959397 -0.108315 0.237246 1.728977 -1.014592 -0.693823 0.278324 0.522222 0.192303 -0.177147 -1.182450 0.538666 1.298107 -0.423763 0.259980 0.553915 -0.419473 -0.591444 -0.659292 0.734487 -0.053346 -1.413532 1.853175 -0.963112 -1.109878 -1.101004 -0.515908 -1.299951 -0.300459 -0.736870 0.321658 -2.592940 0.449413 0.926468 -0.970872 -0.364870 -0.213057 1.881319 2.597416 -0.015355 1.558421 0.115935 1.246626 0.505525 1.276182 -1.194313 -0.668687 -1.191007 0.575643 2.306515 0.315737 0.028631 0.188890 -0.163435 -2.286980 1.748314 0.456738 0.482974 0.239995 -3.143829 1.162478 0.464374 0.690647 0.274546 0.159396 -2.892294 0.791144 2.296910 -0.883552 0.704300 -0.546312 0.173275 -0.071811 0.091368 -0.025806 0.155387 0.786925 -1.734860 -1.573521 1.333246 -0.482831 -1.032105 0.241908 0.523829 -0.217297 -0.856774 1.042808 -0.661371 -0.716666 0.295406 0.549981 -0.215203 -0.057977 -0.445106 1.679354 -1.150332 2.214732 -0.120309 0.564615 0.544444 0.157654 -0.419421 -1.165204 -1.015511 1.082941 -0.648205 0.917955 0.514348 -0.004788 0.372818 -1.285220 -1.073805 -0.131794 -0.108219 1.106082 -0.583884 0.165359 0.478857 0.681449 0.282746 0.270336 0.965986 -0.223061 0.766738 -0.774461 0.557169 -0.938517 -0.310505 -0.619040 1.046131 0.450218 0.005581 -1.193002 -0.482783 0.483793 0.662138 -1.267768 -0.140353 1.116699 -1.418093 -0.748324 -1.563386 -0.445494 0.012481 0.388680 1.265155 1.118051 0.510618 1.467028 -1.260708 0.549502 -0.968416 1.148717 -0.313834 0.008485 0.275775 -0.897878 2.166623 -0.024168 0.800246 -1.973367 -0.085867 0.135119 -2.988837 -0.953226 0.345030 -1.197405 -1.164371 0.110550 0.229194 -1.232258 -0.049403 -0.637419 -0.108175 -1.535421 -0.151156 0.824801 -0.958338 0.021564 0.253082 -0.127586 1.323054 -1.148425 1.267578 -0.779121 0.315685 -1.373613 -2.741745 0.287129 -0.752202 0.506537 -1.979328 -0.319302 -0.105825 0.225824 1.739069 1.223991 0.345703 1.754429 0.310371 2.115554 0.593968 1.151477 1.397722 1.288396 -0.208435 0.555552 0.763799 0.573908 -0.017337 -0.227441 1.322447 -0.012248 -0.269546 -1.256005 0.435839 0.277679 -0.537660 0.219491 0.322522 1.082055 1.107585 -0.581107 -0.141889 0.977383 -1.122257 1.742427 1.459584 -0.366628 -0.453942 0.946799 0.120616 1.171216 1.620229 0.649228 0.143947 -0.935551 1.088300 0.320861 0.869877 1.118049 -0.858505 -2.428727 -2.691868 -0.792028 0.116255 -0.765591 -0.744956 0.657059 -1.494195 1.117600 0.493414 1.235328 0.131850 -1.151739 -0.625956 0.256867 -0.418981 0.311300 -0.299747 -0.104379 0.900002 -0.953787 0.954466 0.022228 1.017204 0.507110 -1.047704 -1.035553 1.041614 -0.028905 0.557909 -0.655441 -0.242426 0.368752 0.724441 -1.126904 -0.933236 0.467858 0.240165 -1.355628 0.329586 -0.367897 -0.173256 0.339709 -1.284674 0.275258 1.568197 -1.218497 -0.579603 0.672267 -0.236635 0.360295 0.664926 -0.187251 0.454631 -1.713752 -0.859703 0.000497 0.912842 0.369517 0.274460 1.068122 0.592717 1.265654 -0.262258 0.929114 -0.912367 0.157183 -0.411532 0.405640 0.163554 -1.153122 -0.107119 0.489544 -1.202749 -1.953054 -2.361450 -0.845583 1.288811 0.019321 1.368189 0.683086 0.307233 -0.377165 -1.131224 0.717395 -0.154177 0.320540 -0.298936 -1.529914 0.086990 0.441718 0.522244 -0.180915 0.390611 0.134729 0.983299 0.895144 0.037346 -1.314950 0.780388 0.311172 0.611806 -1.464854 -1.094659 0.288664 -1.239240 1.070042 -0.788340 1.348071 -0.679823 -1.204666 -0.716421 0.553977 1.386909 -0.132481 -1.425000 1.123157 0.912851 -0.509053 -0.635814 -0.740757 0.002412 -0.929336 1.209585 -2.104864 0.725320 0.733787 -1.012699 0.300944 0.211703 0.377332 -1.947954 1.595575 0.274995 0.120837 0.044562 -0.355191 -0.698413 -0.733978 0.782827 -0.936326 1.651373 0.819430 0.000277 0.041462 -1.200676 0.172064 -0.323672 0.589216 0.735162 0.418251 -1.050624 -0.864169 -0.510711 -1.168865 -0.696435 -1.695441 -0.559162 -0.831429 0.664641 -0.240455 1.046631 -0.403394 0.173242 -0.435722 0.540871 -0.285906 3.561492 1.306906 -1.266581 0.314671 1.005523 2.445746 0.126966 0.558671 0.086677 0.978571 -1.036259 0.793988 -1.149955 -1.660831 0.400798 0.992560 -1.118073 0.789544 -0.793779 -1.572089 -0.375827 2.148207 0.208214 -0.603728 0.582740 -0.884553 -1.264125 -0.662015 -0.059742 -0.066016 -0.473680 -0.291086 -0.169448 1.486570 0.302904 0.146114 0.541691 0.681553 0.370422 -0.980945 0.318917 -0.211837 1.086267 -0.199435 1.542565 0.893079 -0.255339 -0.005526 -0.320372 -0.149459 -0.389267 0.201100 -1.434958 -2.302203 0.802409 -0.882045 -2.117612 -0.668763 -0.125624 0.228761 -1.515677 0.665929 0.290638 -1.169075 0.943482 1.169532 -0.684490 -0.292330 1.337523 0.625817 -0.438694 0.555216 -1.287424 -1.474056 1.529907 -0.126469 1.430964 0.100278 1.139711 -1.578896 1.444795 -2.286185 0.607886 -1.134395 -0.786399 0.031215 0.692484 -0.103150 1.146828 0.192699 -0.257540 0.285400 -1.785525 -0.628794 -0.344115 -0.355781 -1.341214 -0.425208 -1.822187 0.030236 -1.240588 1.007863 -1.406368 0.211297 -0.307413 0.010669 -0.458902 1.090974 -0.266394 -0.577975 -0.373712 0.395547 0.451567 -0.941153 1.569044 1.180853 0.182893 0.162740 0.421984 0.588014 -1.124581 -1.734978 -0.213710 -0.941033 -0.294156 -1.301619 -0.460161 -1.005094 -0.360201 0.025648 -0.844148 0.128678 -1.427137 1.151332 -1.919528 1.534551 0.786110 3.009480 2.378889 -1.787270 -0.474754 -1.230052 -0.573326 0.653179 -0.532339 -1.624765 1.587965 1.738696 0.184361 0.552802 -0.333836 -0.123017 -0.432663 -0.696742 -1.087220 -0.626431 1.324426 1.317289 0.006198 1.545711 0.206452 -2.244893 2.276486 2.808984 -0.570156 0.344476 0.382224 1.319331 0.767203 -1.289725 -0.474446 -1.168668 1.392645 1.411408 1.153265 1.268530 0.949707 1.043014 -0.676727 1.517511 0.597539 -1.314123 0.612594 0.803147 0.493438 -1.288378 1.978384 0.155590 0.569517 0.549405 -0.235278 0.060500 0.566293 0.012863 -0.856482 0.416080 -0.020886 0.078267 -0.172819 -1.429441 -2.488647 -0.590714 -0.458477 0.022323 -0.681321 -0.314891 -0.141414 0.592917 0.618862 -0.746043 0.009961 0.379461 1.214906 2.500032 -0.766634 -0.211401 -1.440768 -2.039231 0.625174 0.536331 0.235885 -0.780823 3.761366 0.584455 1.898360 0.571568 0.432984 -1.127865 -1.305296 0.368890 -0.540753 0.454445 -0.718971 -0.350901 1.795657 -1.308177 0.458127 0.425569 0.921278 0.263450 -0.935437 1.497882 0.139171 0.438052 0.450729 -0.088077 0.457911 1.137458 1.056023 -0.410691 -0.452727 0.269876 0.962194 -0.207583 2.029561 0.121663 -0.567212 1.496504 0.084833 0.534814 -0.242552 0.345483 -1.204742 0.593271 -1.188097 -0.597776 0.571950 -0.450911 -0.981608 0.779391 0.011287 0.468952 -2.047927 -1.541861 -1.271310 0.322756 -0.310589 -0.577155 -0.284656 -0.178404 -1.845906 1.744970 0.450553 -0.621954 0.586967 -0.169581 1.089430 -0.214001 0.212907 -0.221585 -0.175713 -0.977877 -0.605105 -0.008196 -0.917750 0.691796 -0.488867 -0.338875 1.088484 0.925619 -0.744780 0.064815 -0.879261 -1.006379 -1.090062 0.083600 -1.325312 -0.825832 -3.144732 1.470875 0.209434 -0.513127 -0.244299 0.639852 1.077000 0.101382 -0.051553 0.428813 -2.894383 0.827285 0.322584 0.414203 -0.123676 -0.978315 -0.601028 -1.346902 0.737533 -1.004350 0.203281 0.571458 0.645038 -0.547555 0.089656 -0.501338 0.975700 0.452646 -2.032198 0.222568 0.913855 -0.576415 -0.291139 -0.653775 -0.448842 -0.339325 0.998929 -0.856349 -1.388980 -0.377747 -0.423898 -1.316749 -0.409183 0.071718 -1.431786 -0.917592 1.114924 1.326511 1.160903 -1.119823 -0.169970 -1.124073 -0.448497 0.026984 0.789958 -0.011607 -0.917910 -0.131203 0.702551 1.642111 -0.937729 -0.471100 -0.743510 -1.552795 -0.601833 0.379139 0.578629 0.352628 0.206343 0.118399 -0.472722 1.961910 -1.297313 0.682422 -0.530939 0.527207 1.211883 0.644488 1.407106 0.471380 -0.589566 -0.741982 1.811795 -0.423580 -0.154709 0.052821 -0.888780 -0.968043 0.738629 0.828063 0.079513 0.179550 -0.272216 -0.612607 1.942603 -0.327979 -2.449209 -0.361540 0.122486 -1.017259 -0.645158 1.040903 1.584327 0.475643 -0.559584 1.688613 -1.407685 -0.877669 -0.996170 -0.240189 -0.671280 1.449773 0.408722 1.267198 -1.508837 -0.376851 0.689187 0.223126 0.614050 0.458138 0.387992 -0.642690 -0.396200 2.084347 -2.564007 0.438219 -0.625017 0.907670 0.580483 0.332964 0.852077 -0.358621 1.208817 0.757051 0.007105 -0.318793 -0.577786 0.127272 1.425917 0.873334 -0.237530 -0.863378 -0.440840 0.128857 -0.012700 -1.834762 1.343966 1.274156 -0.171659 -0.882057 1.436447 -1.005825 1.215597 -0.631957 -0.754965 0.097400 0.435220 -2.056588 0.655328 -1.495600 -0.005966 -0.998501 0.263962 -1.247459 1.515854 -0.052051 -0.963907 -0.543282 0.032225 1.293546 0.696949 0.951119 -0.215946 -1.027339 0.709224 -1.104679 -1.184059 -0.282319 0.685238 0.837373 0.505321 0.855700 0.591531 -0.101536 0.395660 0.224281 -1.252571 -2.624961 1.605555 0.355179 0.660137 0.533723 -0.953450 -0.079364 0.763408 1.308888 1.333385 0.507787 0.970996 0.673725 -0.040456 -1.874509 -0.163399 -1.592722 -0.557898 1.041637 -1.694206 0.921029 1.067584 0.638034 -0.480192 -1.163189 0.199323 -1.393202 -0.973918 0.299255 -0.320106 -0.207482 -0.139691 0.364714 -1.237083 -0.829105 0.800275 0.885393 -1.370492 -0.809678 0.389364 -0.830616 0.756571 0.419828 -1.081195 0.722561 0.824877 0.465031 -1.072297 1.190910 -0.659656 -0.452087 0.115648 0.522650 -1.063541 1.637613 1.026543 -0.670235 -1.764908 -0.186521 0.207567 -0.917251 -0.128053 0.444009 -0.645647 0.476919 1.182363 -0.169200 -0.522356 -1.228108 0.523871 -0.708531 -0.507995 -0.782158 -0.511597 1.862970 -2.069194 0.065796 0.473388 0.645905 0.803002 1.905641 1.733061 -0.113369 -0.005248 -1.781633 1.011254 0.984626 0.677205 -0.756030 -1.216199 0.541466 -1.131769 1.032581 -2.477059 0.321898 0.116995 0.946086 0.582055 -0.390175 0.720072 -0.920383 0.722533 2.244477 -0.789076 -0.813910 -1.840226 1.019749 0.924465 -2.150531 -0.316583 -0.643947 -0.076413 0.763898 0.502543 -1.433468 0.539061 -0.695353 -0.065857 -1.497348 1.327493 1.256693 -1.442233 0.975087 -0.751018 -0.561067 -0.923748 0.256469 1.011041 -1.126887 -1.131699 -0.761327 -0.203327 -0.294494 1.138566 2.127550 -1.248527 0.644266 -1.897122 0.909645 0.385058 0.742214 -1.726255 -2.364654 0.576010 1.031697 0.577281 0.066590 -0.240868 1.184289 -0.737587 -0.527030 0.073239 0.946397 1.035219 0.279691 -0.633537 -0.389784 0.578396 -1.564570 -0.117200 0.813225 0.098539 0.527334 0.397948 0.793569 0.968850 0.197776 0.658192 -1.853039 -0.273036 -0.289729 -1.155949 0.595802 2.755487 0.981985 1.268283 1.449880 0.157810 0.092922 0.049899 0.567292 0.407461 0.379461 1.345793 1.021690 -1.563366 1.465047 -1.851969 -1.155044 0.585885 0.481995 0.865108 -0.276279 -0.415773 0.249270 -0.351360 0.739707 2.009592 -0.457689 0.367685 -0.649639 0.140587 0.494962 -0.614135 0.717043 -0.926219 -0.996607 0.779882 -0.957365 1.401160 -0.551361 -0.153613 0.372913 1.298903 -0.111241 -1.509999 1.094488 -0.298437 -1.184164 0.650483 0.527493 1.942460 1.289068 -0.909293 -1.488341 -1.559122 -0.652713 -1.140061 1.241430 -0.591571 0.790263 -0.492022 2.263661 1.458107 -0.944510 -0.065507 0.490338 0.841151 -0.549830 -1.301408 1.242562 -2.697425 2.687535 0.724133 0.730209 0.000962 0.674933 -0.003492 -2.152994 -1.483592 -0.513866 0.108866 0.011193 0.598964 0.543378 1.437903 -0.045611 -1.024013 -0.215907 -0.178870 -0.709369 1.521800 1.138983 0.381099 0.299620 -1.774277 -0.729389 -0.656575 -0.505861 0.135465 -0.883680 -0.009340 1.023473 1.220527 -1.826636 -0.178000 -1.176900 -1.435892 0.419459 -0.262515 0.937390 -0.431055 -0.790462 0.480716 -1.386136 -1.067715 0.241974 1.246719 -1.315021 -0.422781 0.804313 -0.017320 0.376817 -0.863479 0.568793 0.321810 -0.932668 -0.687404 1.664155 0.074363 -1.099792 -0.774306 -0.480619 0.640974 -0.811480 -0.540438 0.745760 -1.644917 0.378430 0.702069 0.517838 0.311785 -0.300525 -0.147841 -0.206821 -0.773906 1.011720 0.697321 -0.539141 -0.906231 -0.614197 1.103015 -0.441243 0.755855 -0.460113 -0.224991 -1.836109 1.785767 0.115694 -0.424227 0.771288 1.200829 -0.233746 0.266221 1.301013 -0.090003 -0.108695 -1.134979 -0.194033 0.297205 -0.908579 -0.066507 0.541193 1.535336 -0.038838 -1.054734 -0.156425 -0.150083 -0.756078 -1.141326 0.850506 -2.040873 -0.419886 2.257151 -0.466551 0.676369 0.477537 -0.029064 -0.719981 -1.153937 1.309230 -2.884207 -0.988341 -0.266381 0.871043 1.483423 1.071457 -0.093248 -0.587889 0.008242 0.861371 -1.083843 -0.229114 0.407584 -0.219959 -0.277455 1.320047 0.461608 -0.727235 -0.522417 1.177320 0.216292 1.114801 -0.668067 -1.353160 0.463366 0.220748 0.590667 -0.078296 0.622996 -1.041492 0.193614 -0.444468 1.162516 -0.205124 1.935049 -1.536766 -2.036848 -0.577642 0.996260 -0.439405 -0.786273 0.143167 0.160236 -0.060585 -0.138348 -0.041643 -1.982889 -0.998565 -0.321949 -0.317860 0.158225 0.168153 -1.259404 0.473553 1.186664 -0.185763 2.193280 -0.702356 -0.900813 0.136778 -1.359595 0.742654 -2.354934 -0.627719 -1.932022 1.361258 -1.066217 0.675807 0.964171 -1.550247 -0.349928 0.102612 0.476647 -0.312214 0.289145 -0.184402 1.201489 -0.668334 -0.496098 0.969875 2.079713 0.505382 -0.064958 -0.845758 -1.083484 0.368684 0.144997 -0.792147 0.894224 1.238589 -1.439439 0.236158 0.657780 0.027898 -1.052937 0.250397 -0.225031 0.652032 -2.326248 1.120824 0.317927 2.064256 0.951188 -0.461488 -1.191819 -1.406611 1.547383 -0.390826 -0.681114 0.553447 -1.236774 -1.036063 0.416575 -1.882470 1.684920 -0.127105 -0.828517 0.156317 1.066303 -1.067550 -0.070426 0.034809 -1.263342 0.662649 1.385888 0.632834 -0.942447 1.209707 0.471487 1.097969 2.076517 -0.526839 -1.692455 0.538662 -0.042787 -0.671046 0.411280 1.049733 -0.546062 -0.461014 0.186338 -1.651119 0.472858 -1.434173 0.862645 1.448687 1.208770 0.422422 -1.848111 0.519107 0.205091 0.966387 -1.154680 0.316078 0.766333 -0.863070 0.169323 -0.278744 -2.406314 1.343465 0.072468 1.011793 1.095210 1.541886 -0.713468 -1.968743 -0.517240 0.440468 0.173741 -0.302976 -1.821777 -0.328686 0.521582 -0.658233 -0.074544 -0.852852 1.760064 -1.653430 -1.210492 1.829847 -0.498673 -0.493369 0.070422 1.161857 -0.271371 0.176709 0.678011 0.500743 -1.619068 -0.718719 -0.082234 0.793204 0.000362 -0.825615 0.929467 -0.351440 1.080130 -0.257262 -0.058499 -1.515940 1.752830 1.658121 -1.669605 -1.132396 1.685135 1.147772 0.132086 -0.252270 0.585403 0.820542 -0.038960 -0.475399 0.240019 -0.268327 -1.694474 1.680961 -1.184789 -0.300844 1.206401 0.056971 -1.484999 -0.644264 0.646336 1.343283 0.399609 -0.015429 1.110515 -0.705735 0.871132 -1.412473 -0.902597 -0.228505 -0.136795 0.364808 -1.241323 0.256012 -1.879862 1.126257 -0.349185 -0.680648 0.981965 0.274873 -0.842049 -0.235332 0.401162 1.212047 -0.250528 -0.587231 0.633771 -2.110528 -0.649107 1.429729 -0.924912 0.252956 -2.740219 -1.354201 -0.302316 1.642536 0.097786 1.157141 -0.012465 -0.037671 0.732860 -2.043154 -0.544611 0.542739 -0.603066 0.423579 -1.140937 -0.746920 -0.711811 -0.594797 1.447285 0.493032 -0.584314 0.565947 -0.579559 -1.066505 -1.423865 1.444225 2.425258 -0.760354 -0.435622 0.303151 0.591007 -0.384906 1.229182 -0.419464 -0.310781 0.729966 0.031384 -0.546981 -0.866142 -0.027760 -1.087465 0.139722 -0.855628 -0.088856 0.405275 0.299580 1.170106 -0.128155 0.446531 -0.681878 -0.023634 2.372634 -0.760417 0.476501 -0.514995 0.185524 0.943579 -0.312661 1.354185 -0.911478 -1.056300 -0.307001 -0.706811 0.871993 0.149435 -2.173476 0.909221 -0.264091 1.122246 -0.245911 -0.465874 0.699874 -0.055236 -0.099053 0.869997 1.224821 -0.589255 1.502598 -1.674140 0.178065 -1.823000 1.095941 1.230244 0.405402 -0.055784 -1.793131 1.557046 -0.440452 0.065107 1.514166 -0.590070 0.013291 0.004489 0.999602 -0.779843 -0.990972 -0.097428 0.821305 1.452906 0.101655 0.707636 -0.317705 -1.186102 0.473454 1.251580 -0.030880 1.398915 -0.168989 -0.110601 -0.124240 -0.076908 -0.053093 2.672098 0.690784 -0.404668 2.554635 0.599541 -0.131849 -2.316486 -0.530493 -1.287046 -0.640265 -1.231369 1.880934 0.599867 1.251310 -0.748668 -0.499741 1.017374 -0.313783 -1.995876 -0.064396 -0.333526 0.527292 0.319466 0.791215 -1.153384 1.362637 0.135512 0.415240 -0.111397 0.410666 0.361296 -1.661866 -0.673159 -0.936839 1.106290 -1.074264 1.062253 1.331909 1.371669 0.974904 -1.543619 0.331275 0.170885 -0.837919 -1.552542 -1.456223 0.841615 0.040221 1.760746 1.368914 0.623212 1.790277 -0.488081 0.523542 3.040297 1.377123 0.089278 1.109116 1.065928 1.153045 0.814335 -0.533249 0.221296 -0.182648 1.330421 1.044312 1.366124 0.270364 1.262540 1.516032 -0.204659 0.428132 0.491921 -0.365810 -0.675001 1.519463 -0.061876 0.486259 0.070078 0.277871 0.279909 -0.184674 -0.879226 -2.404104 -2.064523 -0.494846 -1.247862 -0.873381 -1.916868 -1.271361 -0.485914 0.504951 0.803441 1.029524 -0.619157 -1.896358 -1.453331 1.684726 -1.280588 0.854629 -0.233808 -0.134613 -0.235789 1.132181 -1.553087 0.147522 0.157934 -1.393235 1.768471 1.279895 0.461152 0.209757 1.201358 -0.104720 0.714808 -0.411847 -1.265357 -0.448224 -2.318449 -0.722575 -1.045881 -0.742387 -0.554949 -0.443239 0.193602 1.543204 0.577039 -1.178715 0.112840 0.047834 -0.620989 -0.572152 1.667662 0.727583 -1.114175 -0.329940 -0.210378 0.256630 -1.974632 1.130795 -1.160170 -1.429532 0.393119 1.347917 -0.603110 -1.604071 0.961373 -1.400225 0.320463 0.179585 1.235750 0.300376 0.687120 0.503286 0.294301 -1.419947 -0.028498 -1.075730 -1.345561 -1.557146 -0.589397 0.063342 -1.623908 0.889344 -0.953030 0.803972 0.434056 1.341001 -0.159476 -0.737996 -0.024197 0.389531 -2.460619 -0.801741 1.016948 0.682052 1.932414 -0.169394 0.494250 0.241309 0.087767 0.516850 0.342935 -0.758882 0.511162 0.375573 1.878445 0.795041 0.120016 0.686655 -0.010612 -0.577789 -0.995484 1.010921 -0.322138 0.320770 -1.328068 -0.290933 -0.251341 -1.321741 -1.495611 -0.499596 1.877161 -0.942134 0.436455 0.389849 -1.304317 0.501045 -0.222080 0.439647 -0.358089 -0.154863 0.974321 -2.642138 0.797353 2.163339 -1.681992 -1.345733 0.243550 -0.284990 -0.014183 1.103941 -0.671109 0.550431 0.350367 -0.847384 0.930811 -0.997774 0.435370 -1.476482 -0.441699 0.726146 1.038040 -0.390476 -1.408928 0.778910 -0.115376 -0.807293 -0.054768 0.650456 0.420462 -0.382983 -0.215161 0.987064 0.060150 -1.164796 0.319924 -0.875391 0.430978 0.773272 -1.079869 0.941960 -0.504432 0.250103 -1.141681 0.379743 0.266354 -1.057290 -0.175687 -0.135486 0.485985 0.787440 0.611831 0.483489 -0.840981 -0.619067 0.062651 0.571341 0.362678 -2.583109 -1.213436 0.215485 0.039504 0.420825 0.963874 -0.816560 -0.724315 -0.046327 1.641148 0.480044 -0.210386 1.138321 -0.289274 -0.329189 0.776575 -0.442217 0.202172 0.129751 -1.449788 2.228336 -0.065364 0.584056 -0.181056 -1.617448 -0.656766 -1.212574 0.871689 1.101496 0.371874 0.384752 -1.344178 0.685783 0.910539 1.203164 -1.296304 -0.258541 -0.618329 -1.143189 -1.489717 0.585867 2.192396 0.984449 1.339789 -1.045866 0.944554 -0.576851 0.059547 0.600648 -1.090274 0.421405 0.256220 1.414890 -1.262253 -1.397395 -0.352545 0.799040 -1.746207 -0.747406 0.214109 -0.366759 0.092565 0.061105 -1.459393 -0.095369 -0.666502 0.039570 1.539757 -1.015363 0.962247 -1.569276 0.538967 1.294363 -1.285595 -1.458023 -1.658453 -0.032183 0.731846 -0.108413 -1.005613 0.908489 -0.926365 -0.903500 -0.301446 0.896532 -2.073822 2.029616 0.556768 -0.718984 0.359938 0.861145 0.691848 0.684582 -2.551339 -0.221889 0.244912 0.053427 0.423149 0.909037 -0.672533 -1.222838 1.179167 0.303558 -1.545951 -0.122067 -0.947019 0.276686 0.996907 -0.819082 1.054903 1.274920 -1.131268 1.111871 -0.796435 0.040172 0.341931 1.356325 0.593951 -0.277555 0.000852 0.532174 -0.773373 -0.707772 -0.981107 0.406709 0.242895 -0.984211 -1.198336 0.224516 0.709481 -0.226356 1.961599 0.006612 -2.131814 -1.178537 -0.312678 0.204366 1.952903 1.102183 0.505739 -1.246175 -0.903979 -1.302000 0.889086 0.116011 1.706083 -0.163266 1.533697 1.227816 -0.306075 -0.183916 -1.231597 -0.739191 1.396486 1.602935 -0.308636 0.881600 -0.118002 -1.128199 -0.003816 -1.017404 -0.105822 -0.168270 0.018392 -0.425051 1.178635 0.497083 -0.238924 0.916281 -1.334914 -0.999156 0.192413 -0.834559 1.902864 0.383704 -0.574591 -0.394049 0.199621 -1.347488 1.758462 -2.082779 0.454688 -1.093707 0.078743 0.703280 0.723908 1.904953 -0.804744 0.571615 -0.079356 0.373864 -0.296720 -0.811447 1.156023 -1.239509 -0.966808 1.880915 -0.067212 -0.132115 0.384200 -1.528882 -1.734589 0.545196 0.523598 -0.772029 0.407729 0.063140 -0.495044 2.996574 -0.789699 0.416928 -0.155628 0.998129 -1.301538 -0.292413 -0.367497 2.657719 0.010869 -0.130916 0.245037 1.185550 0.417081 -0.992922 -0.472618 0.757099 1.090104 -1.321333 -0.387001 0.939799 0.692560 -0.593155 0.558438 -0.262573 2.226221 1.149128 -0.111745 0.137796 -1.318116 1.102604 -0.316483 1.266416 -0.309006 1.300811 -0.206323 0.647623 0.235920 1.526954 0.439262 0.223908 -0.968103 -0.274915 -1.013464 -1.397065 0.060023 -1.388849 0.491146 -0.108178 0.908502 -1.145224 1.404750 1.273364 0.278013 0.319541 1.171277 0.664258 -0.687297 -0.914471 -0.582916 1.028224 -2.697431 -0.595173 2.164803 1.143105 -1.127175 0.512601 -0.123908 1.149488 0.191479 0.181308 -0.590971 -0.078301 -0.402201 -0.479695 0.194837 1.637896 0.856412 -0.884085 -1.557214 -1.622139 0.211038 0.458927 0.806787 -1.235789 -0.825846 0.473308 -1.318912 0.828974 1.080015 -1.009734 -1.797283 0.080855 0.206187 -1.197898 0.487782 0.605537 -0.519480 -1.584163 -0.188337 0.934304 0.935206 -0.351522 -1.166875 1.258162 -1.124183 0.904656 1.706668 -0.149493 0.451894 -0.248147 -0.962253 0.555709 -0.635495 -0.401911 0.161999 0.726042 -0.920815 -0.874786 -0.492396 0.104333 2.024939 1.464208 0.195596 -0.310990 -0.629775 0.011542 -0.181127 -2.200178 0.436914 0.456203 -0.218065 0.258509 -1.245264 1.192902 -0.257322 0.235099 0.737800 1.035404 0.405277 0.634584 -0.852426 1.798866 -0.087308 -1.657760 1.360346 1.600358 -0.231658 -0.373100 0.527824 -0.948894 0.523802 -0.009605 1.586575 -0.737748 1.409569 0.832046 0.477407 0.993165 -0.262043 1.027647 0.722290 -0.333691 -0.178711 0.473767 1.536864 1.646875 -0.671503 1.728206 1.003180 -0.257647 0.887235 0.323123 0.996722 -0.808881 -1.441662 0.162262 -0.858456 0.924199 -1.753239 0.829289 -1.170896 0.532712 0.046405 0.445068 -0.449063 0.561157 -0.853697 -0.778268 0.024195 0.006396 -1.958866 -0.551110 -0.727388 -0.648755 -0.590824 1.535684 -0.728861 1.261129 0.577713 -1.581610 0.720617 2.013587 0.550603 1.196393 -0.804412 -0.441405 1.045955 0.734099 2.019607 -0.354418 -2.471512 -1.745497 -0.827314 -0.265247 1.079960 0.028517 -1.278242 -1.396193 -1.062788 0.518665 -0.295701 -0.731953 1.046763 -0.628359 -0.125815 -0.167788 -0.133449 -0.159189 -0.232040 0.388418 -0.268959 -0.746298 2.402612 -2.130047 0.696675 1.162616 1.298439 1.947306 -1.544138 0.587009 -0.572244 -0.067590 0.433596 -0.659631 -0.301556 -0.256642 0.859410 0.604169 -2.040872 0.533432 1.476456 0.008075 -0.059782 -0.395283 0.335152 -0.374623 0.127892 -0.782021 0.855888 0.717302 -0.020278 -0.911136 0.281034 -0.184168 -1.281585 1.449366 -0.741780 -1.122895 1.118262 -0.560246 1.410392 -0.927614 0.342089 -0.152564 -1.733087 -0.777974 0.757346 -0.349713 -1.405973 -0.489873 1.160689 0.709415 -0.604746 -0.366474 -0.200466 -0.748091 -1.708282 1.084226 0.368589 -1.323488 0.948230 0.789002 -1.421545 1.110102 0.961004 0.669584 -0.097617 -0.484127 -0.249180 0.570025 -1.968954 0.342945 -0.567695 0.429622 -1.581573 0.123570 0.755422 0.322758 -0.680271 -1.500041 -1.976095 0.211788 0.999956 1.563975 -0.199097 0.408668 -0.543011 0.343258 -0.798382 -1.700144 0.268189 1.608954 -1.280427 0.377181 -0.464140 0.042569 -0.106450 1.264588 0.095157 -0.538670 0.695930 0.001182 -0.095338 -0.602086 0.097560 -0.403802 -0.878865 -0.632404 -0.500354 -1.866746 1.388804 0.097941 0.882082 0.243835 0.166970 -1.265396 -1.157671 -1.802822 -0.095274 0.839143 0.504198 0.917954 0.241901 -0.290831 -0.330969 -1.803212 -0.468023 0.078158 0.429175 -0.182121 -0.622534 1.032245 0.170649 -0.493802 -0.847295 1.764768 -0.160700 -0.786439 0.984624 -1.166426 -0.032326 0.386738 -0.662269 -0.053832 -1.022907 1.170659 -0.174080 -0.224063 0.890274 1.585149 1.175584 1.308210 2.107478 0.202968 -1.246028 -0.810128 0.388564 -0.296509 -0.236975 -0.433100 -1.157574 0.564090 3.695716 1.315779 0.111101 0.935326 -0.108751 -1.200305 0.013943 1.606084 -0.691933 1.967568 -0.630360 0.024203 0.115386 1.040961 -0.592870 -0.935556 1.019553 -0.220188 0.760805 0.694861 2.566531 0.567282 -0.017412 -2.677439 -2.006766 -1.532497 0.124792 -1.355752 -0.477371 0.809021 -0.934358 0.614175 0.448026 0.290410 -1.319368 0.450260 0.366017 -0.429138 0.665652 0.565481 0.398696 0.244919 0.719834 0.542775 0.873718 0.201817 -1.332689 -1.467595 0.403750 -0.298553 -0.306675 0.409198 0.909944 2.153233 0.073737 -0.378279 0.326464 -0.806141 -0.726000 -0.517371 -1.819922 -0.393523 0.203129 1.583696 0.669035 1.603953 -1.695791 0.683730 -1.028980 0.057080 0.566875 -1.027639 -1.217583 1.117425 -0.209136 -0.845135 -0.018811 -0.421839 0.020008 -0.050440 -1.541020 0.332250 1.256262 1.337697 -2.065701 0.612409 -0.496790 1.374411 0.455199 -1.566371 -0.077890 -0.544928 -0.624370 1.461353 -0.806334 -1.678464 1.357810 0.533761 1.125088 -0.084033 -1.426293 -1.682554 0.172826 -1.070000 1.642115 -1.156028 -0.876582 0.357930 0.736514 0.278469 -1.821583 -0.779341 -1.166992 1.459513 -1.091931 -0.317836 1.474348 0.057905 -0.806856 0.519133 0.972323 0.538595 -0.665266 -0.942060 0.323727 1.186260 -0.253909 -0.132095 -0.460210 0.116394 -0.059973 -2.750136 0.537835 0.535762 1.775758 -0.226880 0.552681 0.993305 -0.924963 0.150245 0.301260 -0.350567 -0.866710 -0.527718 0.106938 -0.528023 0.638123 0.597572 -1.173606 0.112672 -1.412905 0.322454 0.768155 -0.981954 0.223828 0.927865 0.041436 0.960626 -1.212343 1.645883 0.304081 -0.412752 0.215727 -0.109317 0.784302 0.687483 0.582133 0.514351 -0.534730 -1.493596 -1.660219 1.882093 -0.636373 -0.607948 1.381048 0.181961 0.325098 0.960297 0.828708 0.559931 1.601409 -0.763198 -0.117239 0.070365 0.075761 1.044856 -0.537652 0.122621 -0.270868 1.360550 -0.530123 0.705735 -1.899195 1.652604 0.285678 0.195743 0.687161 -0.150129 1.220219 -1.488908 -0.175303 -0.014481 1.060373 1.227914 0.167081 0.663564 0.160231 -1.447221 -0.181072 1.536148 0.197904 -0.381859 -1.027877 -0.259121 -1.775221 -0.474874 0.711054 1.613056 0.194782 -1.226909 1.039834 -0.644393 0.201161 -0.731005 -0.434623 -1.434487 0.399210 0.751681 -0.416985 1.069845 -1.407636 0.625009 -0.928981 -0.810255 0.724176 0.774447 -1.605674 -0.233734 -1.528013 -0.456683 -1.433913 -0.606568 0.911452 1.272888 1.277206 0.560599 2.360429 1.801109 -1.147703 -0.470529 1.319856 -1.000237 0.971380 -1.286349 0.925394 -0.226633 0.387502 -0.287733 -0.477668 0.974234 -0.553721 1.377110 -0.705082 -0.540440 1.482482 -0.591485 0.709064 -0.635688 -2.411545 0.370789 1.024907 0.076517 -1.361205 0.649665 -0.520558 0.348947 0.746603 1.249392 -0.589173 0.585757 0.484213 -0.645622 0.357244 1.004397 0.243303 -0.305340 -0.073622 0.907467 -0.273690 0.747674 -1.165562 0.045854 -0.431647 -0.271931 -0.313161 1.858375 -1.882566 -1.086064 0.256045 1.154788 -0.363614 1.881307 -0.282976 -1.305054 -0.147538 1.454081 -0.019040 2.422939 1.712192 -0.110559 0.301647 0.490367 -0.266500 1.273969 0.802260 -0.292084 0.359577 0.010424 -2.004807 -1.516470 -1.460155 -0.269996 -1.652888 -0.722107 -0.516752 -0.431147 -0.073807 -0.942504 0.059409 -1.410033 0.650632 -0.986226 1.513032 1.595141 -0.634315 0.683896 -3.026850 0.088253 -0.843152 -0.708359 1.158891 1.313554 0.654557 -0.360338 -0.275749 -1.329897 -1.615786 -1.330832 0.426021 0.753178 0.585196 -0.481979 -0.375465 0.525820 -1.158706 -0.576148 -1.299505 0.370051 1.125089 -0.038386 0.334611 0.453585 -0.311361 -0.888429 -1.594338 -1.831509 -0.047932 0.919766 -0.327457 0.739323 -0.262054 0.045099 -1.057552 -0.828396 -2.685770 0.246816 0.620123 -0.579324 -0.083948 -0.283742 1.366466 -0.015091 -0.046834 -0.542807 -0.863979 -0.958614 -0.735253 -1.148011 0.970072 -0.161961 0.178947 1.571768 -0.120624 -1.380956 0.460003 0.360945 0.925952 -0.548768 -2.709330 0.070046 0.122823 0.203642 1.673670 -0.225601 -1.952388 -0.078304 0.864347 1.280966 -1.198472 0.604212 1.917971 2.283298 0.224633 0.037736 1.034698 -1.133647 -1.116071 0.809276 0.310345 0.503235 0.243778 -0.687240 1.191035 -1.699323 1.702902 0.246081 -0.313088 0.063069 0.979914 0.829837 0.365651 -1.010178 -0.802195 0.802776 0.105030 0.974528 -2.688822 0.578696 0.070623 -0.576317 0.776010 0.267009 -0.710060 -0.948748 -1.161832 0.234566 0.769434 -1.320171 -0.626706 -0.333040 0.869412 0.089664 0.671503 0.518600 -1.455549 -0.955476 -0.176787 -0.297282 1.067369 0.629323 0.380137 0.282259 -0.678277 3.420621 -0.780482 0.544785 -1.179846 0.592837 -0.023902 -0.524905 -0.166116 0.673342 -1.961488 0.174789 1.345094 0.011877 -0.163614 -0.675417 -0.302902 0.115282 -2.193551 -0.033584 -0.716949 1.538183 0.711363 0.296676 -0.926735 1.767633 0.273453 0.577438 -0.341838 0.346691 0.063174 -0.781139 -0.730087 1.457323 -1.156166 -1.113169 -0.650133 1.342584 -0.587070 -0.360441 0.272947 0.263400 -1.030061 0.223380 -0.225304 -0.319533 0.651188 -0.267480 1.921216 -0.612812 -0.157218 1.294175 0.766402 0.208295 -0.835807 0.254854 0.151147 -0.788115 -1.129532 1.184316 0.001393 -1.066677 1.620938 -0.310375 -0.189188 1.468142 0.470716 0.463937 -0.188125 -0.157722 -0.675333 0.517067 0.421434 -1.424389 