-0.000000 -0.000000 0.000000 0.000000 -0.000000 0.000000 -0.000000 -0.000000 -0.000000 0.000000 0.000000 0.000000 -0.000000 -0.000000 -0.000000 0.000000 0.000000 -0.000000 0.000000 0.000000 -0.000000 0.000000 -0.000000 -0.000000 -0.000000 0.000000 0.000000 -0.000000 -0.000000 0.000000 -0.000000 -0.000000 -0.000000 -0.000000 0.000000 0.000000 -0.000000 0.000000 -0.000000 -0.000000 -0.000000 0.000000 -0.000000 0.000000 0.000000 0.000000 -0.000000 0.000000 -0.000000 0.000000 0.000000 0.000000 -0.000000 0.000000 0.000000 -0.000000 0.000000 0.000000 0.000000 -0.000000 0.000000 -0.000000 -0.000000 0.000000 -0.000000 0.000000 0.000000 0.000000 -0.000000 0.000000 0.000000 -0.000000 -0.000000 -0.000000 0.000000 -0.000000 -0.000000 0.000000 -0.000000 0.000000 0.000000 0.000000 0.000000 -0.000000 0.000000 0.000000 -0.000000 -0.000000 -0.000000 -0.000000 -0.000002 -0.000009 -0.000026 -0.000062 -0.000132 -0.000252 -0.000445 -0.000737 -0.001158 -0.001742 -0.002526 -0.003546 -0.004844 -0.006458 -0.008428 -0.010793 -0.013588 -0.016847 -0.020602 -0.024880 -0.029705 -0.035096 -0.041068 -0.047632 -0.054795 -0.062558 -0.070920 -0.079872 -0.089406 -0.099506 -0.110156 -0.121332 -0.133013 -0.145171 -0.157778 -0.170803 -0.184214 -0.197978 -0.212060 -0.226425 -0.241037 -0.255862 -0.270863 -0.286006 -0.301257 -0.316581 -0.331945 -0.347319 -0.362671 -0.377972 -0.393194 -0.408311 -0.423297 -0.438130 -0.452788 -0.467249 -0.481496 -0.495512 -0.509280 -0.522787 -0.536019 -0.548962 -0.561602 -0.573921 -0.585900 -0.597516 -0.608743 -0.619553 -0.629913 -0.639788 -0.649142 -0.657937 -0.666136 -0.673699 -0.680590 -0.686773 -0.692215 -0.696887 -0.700764 -0.703829 -0.706072 -0.707492 -0.708095 -0.707898 -0.706926 -0.705213 -0.702800 -0.699736 -0.696075 -0.691876 -0.687204 -0.682124 -0.676705 -0.671015 -0.665124 -0.659098 -0.653003 -0.646902 -0.640856 -0.634920 -0.629146 -0.623583 -0.618272 -0.613253 -0.608559 -0.604219 -0.600255 -0.596688 -0.593533 -0.590799 -0.588494 -0.586620 -0.585175 -0.584157 -0.583557 -0.583367 -0.583575 -0.584165 -0.585123 -0.586431 -0.588071 -0.590022 -0.592266 -0.594780 -0.597545 -0.600538 -0.603738 -0.607125 -0.610678 -0.614376 -0.618200 -0.622130 -0.626148 -0.630237 -0.634380 -0.638561 -0.642765 -0.646976 -0.651179 -0.655356 -0.659488 -0.663552 -0.667522 -0.671367 -0.675055 -0.678549 -0.681810 -0.684797 -0.687467 -0.689778 -0.691685 -0.693148 -0.694125 -0.694578 -0.694475 -0.693788 -0.692495 -0.690585 -0.688054 -0.684906 -0.681155 -0.676825 -0.671946 -0.666556 -0.660702 -0.654434 -0.647807 -0.640880 -0.633715 -0.626374 -0.618921 -0.611419 -0.603930 -0.596512 -0.589222 -0.582115 -0.575240 -0.568642 -0.562364 -0.556442 -0.550909 -0.545791 -0.541113 -0.536893 -0.533145 -0.529878 -0.527099 -0.524810 -0.523009 -0.521691 -0.520849 -0.520472 -0.520548 -0.521061 -0.521994 -0.523330 -0.525049 -0.527129 -0.529550 -0.532289 -0.535323 -0.538630 -0.542188 -0.545973 -0.549963 -0.554136 -0.558471 -0.562947 -0.567544 -0.572242 -0.577023 -0.581870 -0.586764 -0.591691 -0.596633 -0.601572 -0.606489 -0.611360 -0.616159 -0.620857 -0.625420 -0.629812 -0.633994 -0.637924 -0.641559 -0.644855 -0.647768 -0.650255 -0.652272 -0.653779 -0.654741 -0.655125 -0.654905 -0.654063 -0.652590 -0.650484 -0.647753 -0.644414 -0.640494 -0.636025 -0.631049 -0.625614 -0.619772 -0.613582 -0.607102 -0.600397 -0.593529 -0.586563 -0.579562 -0.572587 -0.565699 -0.558952 -0.552401 -0.546095 -0.540077 -0.534389 -0.529067 -0.524142 -0.519639 -0.515582 -0.511986 -0.508866 -0.506228 -0.504079 -0.502419 -0.501244 -0.500550 -0.500327 -0.500564 -0.501247 -0.502360 -0.503886 -0.505806 -0.508098 -0.510742 -0.513716 -0.516996 -0.520561 -0.524387 -0.528451 -0.532730 -0.537201 -0.541843 -0.546634 -0.551553 -0.556580 -0.561696 -0.566883 -0.572122 -0.577397 -0.582691 -0.587989 -0.593271 -0.598516 -0.603702 -0.608802 -0.613785 -0.618618 -0.623264 -0.627682 -0.631833 -0.635671 -0.639154 -0.642236 -0.644876 -0.647030 -0.648659 -0.649727 -0.650200 -0.650048 -0.649245 -0.647769 -0.645605 -0.642739 -0.639166 -0.634881 -0.629887 -0.624190 -0.617801 -0.610735 -0.603010 -0.594647 -0.585672 -0.576113 -0.565999 -0.555362 -0.544237 -0.532659 -0.520663 -0.508288 -0.495570 -0.482548 -0.469260 -0.455741 -0.442031 -0.428164 -0.414177 -0.400106 -0.385992 -0.371879 -0.357814 -0.343853 -0.330059 -0.316499 -0.303248 -0.290387 -0.277999 -0.266172 -0.254996 -0.244560 -0.234952 -0.226259 -0.218561 -0.211937 -0.206457 -0.202185 -0.199176 -0.197479 -0.197133 -0.198166 -0.200600 -0.204446 -0.209706 -0.216374 -0.224435 -0.233866 -0.244637 -0.256711 -0.270044 -0.284587 -0.300286 -0.317082 -0.334913 -0.353715 -0.373418 -0.393954 -0.415251 -0.437239 -0.459845 -0.482998 -0.506627 -0.530663 -0.555037 -0.579684 -0.604538 -0.629538 -0.654623 -0.679738 -0.704828 -0.729842 -0.754732 -0.779451 -0.803959 -0.828216 -0.852186 -0.875835 -0.899133 -0.922050 -0.944556 -0.966618 -0.988199 -1.009258 -1.029748 -1.049615 -1.068799 -1.087238 -1.104861 -1.121596 -1.137369 -1.152107 -1.165735 -1.178181 -1.189377 -1.199259 -1.207769 -1.214860 -1.220495 -1.224652 -1.227322 -1.228516 -1.228260 -1.226596 -1.223583 -1.219295 -1.213820 -1.207257 -1.199714 -1.191309 -1.182164 -1.172405 -1.162161 -1.151559 -1.140727 -1.129787 -1.118859 -1.108054 -1.097479 -1.087232 -1.077404 -1.068075 -1.059318 -1.051197 -1.043766 -1.037070 -1.031146 -1.026021 -1.021715 -1.018239 -1.015600 -1.013794 -1.012813 -1.012644 -1.013267 -1.014659 -1.016792 -1.019636 -1.023156 -1.027317 -1.032081 -1.037407 -1.043255 -1.049584 -1.056353 -1.063520 -1.071044 -1.078884 -1.087000 -1.095355 -1.103910 -1.112630 -1.121480 -1.130427 -1.139440 -1.148490 -1.157547 -1.166582 -1.175564 -1.184457 -1.193221 -1.201809 -1.210168 -1.218239 -1.225954 -1.233245 -1.240034 -1.246245 -1.251797 -1.256609 -1.260604 -1.263703 -1.265835 -1.266932 -1.266936 -1.265800 -1.263491 -1.259989 -1.255294 -1.249420 -1.242397 -1.234275 -1.225117 -1.215000 -1.204011 -1.192251 -1.179826 -1.166851 -1.153444 -1.139724 -1.125813 -1.111829 -1.097890 -1.084108 -1.070589 -1.057436 -1.044741 -1.032589 -1.021059 -1.010218 -1.000127 -0.990837 -0.982389 -0.974818 -0.968147 -0.962396 -0.957572 -0.953680 -0.950713 -0.948663 -0.947513 -0.947242 -0.947825 -0.949233 -0.951432 -0.954387 -0.958060 -0.962412 -0.967400 -0.972982 -0.979115 -0.985755 -0.992860 -1.000386 -1.008290 -1.016531 -1.025068 -1.033861 -1.042873 -1.052066 -1.061407 -1.070860 -1.080396 -1.089982 -1.099587 -1.109178 -1.118717 -1.128162 -1.137463 -1.146565 -1.155407 -1.163921 -1.172034 -1.179669 -1.186745 -1.193181 -1.198896 -1.203807 -1.207836 -1.210910 -1.212959 -1.213925 -1.213761 -1.212433 -1.209921 -1.206226 -1.201360 -1.195358 -1.188266 -1.180149 -1.171083 -1.161155 -1.150465 -1.139120 -1.127232 -1.114917 -1.102295 -1.089484 -1.076603 -1.063765 -1.051082 -1.038657 -1.026591 -1.014974 -1.003891 -0.993415 -0.983614 -0.974547 -0.966261 -0.958799 -0.952191 -0.946463 -0.941629 -0.937698 -0.934673 -0.932547 -0.931311 -0.930948 -0.931437 -0.932751 -0.934863 -0.937738 -0.941342 -0.945637 -0.950583 -0.956139 -0.962263 -0.968913 -0.976046 -0.983619 -0.991590 -0.999917 -1.008558 -1.017475 -1.026628 -1.035980 -1.045495 -1.055139 -1.064880 -1.074687 -1.084528 -1.094372 -1.104187 -1.113933 -1.123567 -1.133039 -1.142294 -1.151268 -1.159893 -1.168095 -1.175796 -1.182917 -1.189376 -1.195090 -1.199980 -1.203968 -1.206980 -1.208948 -1.209809 -1.209508 -1.207996 -1.205235 -1.201193 -1.195847 -1.189185 -1.181200 -1.171898 -1.161289 -1.149394 -1.136239 -1.121860 -1.106296 -1.089594 -1.071805 -1.052986 -1.033195 -1.012497 -0.990955 -0.968639 -0.945617 -0.921959 -0.897736 -0.873016 -0.847871 -0.822368 -0.796574 -0.770556 -0.744378 -0.718104 -0.691796 -0.665517 -0.639332 -0.613303 -0.587494 -0.561969 -0.536791 -0.512026 -0.487733 -0.463972 -0.440802 -0.418278 -0.396452 -0.375375 -0.355090 -0.335640 -0.317059 -0.299379 -0.282628 -0.266826 -0.251990 -0.238133 -0.225260 -0.213374 -0.202472 -0.192548 -0.183591 -0.175586 -0.168514 -0.162356 -0.157086 -0.152678 -0.149103 -0.146330 -0.144327 -0.143060 -0.142495 -0.142595 -0.143325 -0.144649 -0.146531 -0.148934 -0.151824 -0.155165 -0.158922 -0.163063 -0.167554 -0.172365 -0.177464 -0.182823 -0.188413 -0.194208 -0.200183 -0.206312 -0.212575 -0.218948 -0.225413 -0.231949 -0.238539 -0.245165 -0.251808 -0.258447 -0.265060 -0.271625 -0.278115 -0.284501 -0.290755 -0.296841 -0.302730 -0.308386 -0.313778 -0.318870 -0.323630 -0.328027 -0.332031 -0.335614 -0.338755 -0.341433 -0.343637 -0.345359 -0.346599 -0.347362 -0.347662 -0.347517 -0.346953 -0.346001 -0.344693 -0.343067 -0.341166 -0.339033 -0.336713 -0.334252 -0.331696 -0.329089 -0.326477 -0.323901 -0.321402 -0.319016 -0.316780 -0.314724 -0.312878 -0.311265 -0.309909 -0.308827 -0.308033 -0.307541 -0.307358 -0.307489 -0.307938 -0.308704 -0.309784 -0.311174 -0.312866 -0.314853 -0.317123 -0.319664 -0.322464 -0.325508 -0.328782 -0.332269 -0.335954 -0.339821 -0.343852 -0.348031 -0.352341 -0.356766 -0.361291 -0.365899 -0.370574 -0.375304 -0.380072 -0.384866 -0.389673 -0.394480 -0.399277 -0.404051 -0.408792 -0.413486 -0.418119 -0.422676 -0.427137 -0.431482 -0.435687 -0.439726 -0.443571 -0.447192 -0.450560 -0.453643 -0.456412 -0.458836 -0.460885 -0.462532 -0.463751 -0.464523 -0.464830 -0.464661 -0.464011 -0.462882 -0.461281 -0.459224 -0.456729 -0.453825 -0.450543 -0.446918 -0.442989 -0.438799 -0.434392 -0.429814 -0.425113 -0.420334 -0.415524 -0.410728 -0.405987 -0.401343 -0.396835 -0.392497 -0.388361 -0.384457 -0.380810 -0.377442 -0.374373 -0.371617 -0.369187 -0.367092 -0.365338 -0.363928 -0.362862 -0.362138 -0.361753 -0.361699 -0.361968 -0.362551 -0.363436 -0.364611 -0.366061 -0.367773 -0.369730 -0.371918 -0.374320 -0.376920 -0.379701 -0.382648 -0.385744 -0.388972 -0.392318 -0.395766 -0.399302 -0.402910 -0.406579 -0.410294 -0.414043 -0.417814 -0.421597 -0.425377 -0.429143 -0.432880 -0.436568 -0.440191 -0.443724 -0.447144 -0.450423 -0.453532 -0.456441 -0.459119 -0.461535 -0.463657 -0.465454 -0.466897 -0.467958 -0.468612 -0.468839 -0.468622 -0.467952 -0.466825 -0.465243 -0.463215 -0.460758 -0.457892 -0.454645 -0.451050 -0.447142 -0.442960 -0.438546 -0.433945 -0.429202 -0.424363 -0.419473 -0.414578 -0.409719 -0.404939 -0.400277 -0.395769 -0.391449 -0.387347 -0.383491 -0.379903 -0.376606 -0.373616 -0.370946 -0.368608 -0.366610 -0.364955 -0.363646 -0.362682 -0.362060 -0.361775 -0.361819 -0.362184 -0.362859 -0.363832 -0.365090 -0.366618 -0.368403 -0.370429 -0.372679 -0.375138 -0.377789 -0.380616 -0.383603 -0.386733 -0.389991 -0.393360 -0.396827 -0.400377 -0.403995 -0.407669 -0.411385 -0.415131 -0.418896 -0.422668 -0.426434 -0.430180 -0.433891 -0.437547 -0.441129 -0.444614 -0.447975 -0.451185 -0.454213 -0.457030 -0.459603 -0.461903 -0.463897 -0.465554 -0.466847 -0.467746 -0.468227 -0.468268 -0.467849 -0.466953 -0.465567 -0.463680 -0.461286 -0.458382 -0.454968 -0.451047 -0.446626 -0.441714 -0.436323 -0.430468 -0.424166 -0.417436 -0.410299 -0.402778 -0.394895 -0.386678 -0.378150 -0.369339 -0.360272 -0.350976 -0.341478 -0.331804 -0.321982 -0.312038 -0.301997 -0.291887 -0.281737 -0.271579 -0.261451 -0.251397 -0.241470 -0.231727 -0.222234 -0.213061 -0.204286 -0.195991 -0.188257 -0.181171 -0.174817 -0.169277 -0.164633 -0.160961 -0.158331 -0.156807 -0.156448 -0.157302 -0.159411 -0.162807 -0.167514 -0.173545 -0.180908 -0.189598 -0.199605 -0.210909 -0.223484 -0.237296 -0.252304 -0.268463 -0.285721 -0.304024 -0.323310 -0.343518 -0.364583 -0.386436 -0.409009 -0.432231 -0.456034 -0.480347 -0.505101 -0.530226 -0.555656 -0.581326 -0.607171 -0.633131 -0.659146 -0.685159 -0.711119 -0.736972 -0.762672 -0.788173 -0.813434 -0.838415 -0.863080 -0.887397 -0.911336 -0.934866 -0.957961 -0.980589 -1.002717 -1.024307 -1.045315 -1.065690 -1.085377 -1.104315 -1.122438 -1.139675 -1.155955 -1.171203 -1.185347 -1.198314 -1.210035 -1.220447 -1.229489 -1.237113 -1.243283 -1.247973 -1.251176 -1.252899 -1.253169 -1.252026 -1.249528 -1.245748 -1.240772 -1.234697 -1.227630 -1.219686 -1.210987 -1.201655 -1.191819 -1.181604 -1.171134 -1.160531 -1.149912 -1.139388 -1.129063 -1.119035 -1.109392 -1.100216 -1.091577 -1.083539 -1.076155 -1.069471 -1.063523 -1.058339 -1.053939 -1.050336 -1.047535 -1.045534 -1.044327 -1.043901 -1.044237 -1.045314 -1.047106 -1.049582 -1.052712 -1.056459 -1.060788 -1.065661 -1.071039 -1.076881 -1.083149 -1.089801 -1.096799 -1.104104 -1.111677 -1.119480 -1.127479 -1.135638 -1.143924 -1.152306 -1.160752 -1.169235 -1.177726 -1.186197 -1.194616 -1.202946 -1.211147 -1.219170 -1.226962 -1.234463 -1.241604 -1.248316 -1.254521 -1.260142 -1.265097 -1.269308 -1.272695 -1.275183 -1.276700 -1.277182 -1.276576 -1.274841 -1.271950 -1.267893 -1.262676 -1.256321 -1.248869 -1.240373 -1.230904 -1.220543 -1.209382 -1.197524 -1.185077 -1.172153 -1.158871 -1.145348 -1.131701 -1.118045 -1.104492 -1.091149 -1.078117 -1.065490 -1.053355 -1.041791 -1.030868 -1.020648 -1.011186 -1.002525 -0.994702 -0.987744 -0.981672 -0.976499 -0.972230 -0.968863 -0.966390 -0.964800 -0.964073 -0.964187 -0.965114 -0.966825 -0.969286 -0.972461 -0.976311 -0.980798 -0.985880 -0.991516 -0.997663 -1.004280 -1.011324 -1.018755 -1.026530 -1.034611 -1.042958 -1.051533 -1.060302 -1.069228 -1.078279 -1.087424 -1.096632 -1.105871 -1.115111 -1.124313 -1.133437 -1.142436 -1.151256 -1.159837 -1.168112 -1.176009 -1.183452 -1.190362 -1.196656 -1.202252 -1.207070 -1.211030 -1.214056 -1.216080 -1.217041 -1.216890 -1.215591 -1.213125 -1.209487 -1.204691 -1.198768 -1.191762 -1.183736 -1.174764 -1.164934 -1.154342 -1.143093 -1.131298 -1.119074 -1.106536 -1.093805 -1.080995 -1.068221 -1.055593 -1.043216 -1.031187 -1.019598 -1.008532 -0.998064 -0.988262 -0.979183 -0.970876 -0.963383 -0.956736 -0.950959 -0.946068 -0.942073 -0.938975 -0.936771 -0.935449 -0.934994 -0.935386 -0.936599 -0.938604 -0.941369 -0.944860 -0.949038 -0.953865 -0.959301 -0.965304 -0.971831 -0.978840 -0.986289 -0.994136 -1.002340 -1.010859 -1.019655 -1.028688 -1.037922 -1.047320 -1.056850 -1.066479 -1.076176 -1.085910 -1.095650 -1.105362 -1.115009 -1.124547 -1.133926 -1.143091 -1.151977 -1.160518 -1.168640 -1.176264 -1.183310 -1.189697 -1.195342 -1.200166 -1.204090 -1.207042 -1.208952 -1.209758 -1.209404 -1.207842 -1.205033 -1.200946 -1.195557 -1.188854 -1.180831 -1.171492 -1.160849 -1.148921 -1.135736 -1.121328 -1.105737 -1.089010 -1.071197 -1.052356 -1.032545 -1.011827 -0.990268 -0.967935 -0.944898 -0.921226 -0.896989 -0.872258 -0.847102 -0.821589 -0.795787 -0.769761 -0.743576 -0.717293 -0.690976 -0.664687 -0.638490 -0.612450 -0.586633 -0.561107 -0.535941 -0.511204 -0.486969 -0.463303 -0.440275 -0.417950 -0.396393 -0.375665 -0.355823 -0.336918 -0.318998 -0.302105 -0.286276 -0.271540 -0.257923 -0.245442 -0.234110 -0.223932 -0.214909 -0.207036 -0.200302 -0.194692 -0.190184 -0.186755 -0.184376 -0.183014 -0.182634 -0.183199 -0.184668 -0.187000 -0.190149 -0.194073 -0.198724 -0.204058 -0.210027 -0.216586 -0.223689 -0.231290 -0.239346 -0.247813 -0.256649 -0.265813 -0.275266 -0.284970 -0.294888 -0.304987 -0.315233 -0.325596 -0.336045 -0.346554 -0.357097 -0.367650 -0.378190 -0.388695 -0.399144 -0.409513 -0.419776 -0.429907 -0.439875 -0.449645 -0.459182 -0.468444 -0.477391 -0.485979 -0.494163 -0.501901 -0.509147 -0.515859 -0.521995 -0.527518 -0.532394 -0.536595 -0.540098 -0.542891 -0.544968 -0.546333 -0.547001 -0.546992 -0.546337 -0.545077 -0.543256 -0.540924 -0.538137 -0.534957 -0.531444 -0.527665 -0.523683 -0.519563 -0.515370 -0.511164 -0.507005 -0.502948 -0.499045 -0.495345 -0.491891 -0.488722 -0.485873 -0.483373 -0.481247 -0.479515 -0.478193 -0.477293 -0.476821 -0.476782 -0.477174 -0.477994 -0.479235 -0.480888 -0.482941 -0.485380 -0.488187 -0.491347 -0.494838 -0.498642 -0.502737 -0.507101 -0.511712 -0.516549 -0.521587 -0.526806 -0.532184 -0.537698 -0.543328 -0.549053 -0.554854 -0.560712 -0.566609 -0.572527 -0.578451 -0.584365 -0.590253 -0.596100 -0.601887 -0.607593 -0.613196 -0.618667 -0.623976 -0.629089 -0.633970 -0.638578 -0.642871 -0.646808 -0.650346 -0.653442 -0.656054 -0.658143 -0.659671 -0.660606 -0.660921 -0.660597 -0.659623 -0.657995 -0.655721 -0.652814 -0.649300 -0.645212 -0.640590 -0.635478 -0.629930 -0.624002 -0.617753 -0.611247 -0.604547 -0.597718 -0.590824 -0.583926 -0.577085 -0.570359 -0.563801 -0.557463 -0.551390 -0.545625 -0.540204 -0.535161 -0.530524 -0.526316 -0.522555 -0.519256 -0.516429 -0.514080 -0.512212 -0.510822 -0.509907 -0.509458 -0.509465 -0.509916 -0.510796 -0.512087 -0.513772 -0.515831 -0.518243 -0.520987 -0.524041 -0.527382 -0.530987 -0.534835 -0.538902 -0.543165 -0.547605 -0.552198 -0.556924 -0.561763 -0.566697 -0.571705 -0.576772 -0.581880 -0.587014 -0.592155 -0.597287 -0.602390 -0.607441 -0.612414 -0.617279 -0.622003 -0.626551 -0.630883 -0.634956 -0.638729 -0.642157 -0.645198 -0.647807 -0.649942 -0.651563 -0.652634 -0.653123 -0.653004 -0.652259 -0.650879 -0.648862 -0.646217 -0.642961 -0.639120 -0.634728 -0.629827 -0.624463 -0.618690 -0.612565 -0.606149 -0.599504 -0.592694 -0.585784 -0.578836 -0.571912 -0.565072 -0.558372 -0.551866 -0.545602 -0.539625 -0.533976 -0.528691 -0.523801 -0.519333 -0.515308 -0.511743 -0.508652 -0.506043 -0.503921 -0.502286 -0.501136 -0.500465 -0.500264 -0.500522 -0.501225 -0.502357 -0.503901 -0.505837 -0.508145 -0.510804 -0.513792 -0.517087 -0.520664 -0.524502 -0.528577 -0.532866 -0.537347 -0.541999 -0.546798 -0.551725 -0.556760 -0.561882 -0.567075 -0.572320 -0.577600 -0.582899 -0.588201 -0.593487 -0.598736 -0.603925 -0.609027 -0.614012 -0.618847 -0.623494 -0.627914 -0.632063 -0.635900 -0.639382 -0.642463 -0.645101 -0.647253 -0.648881 -0.649947 -0.650417 -0.650263 -0.649457 -0.647979 -0.645812 -0.642944 -0.639367 -0.635080 -0.630083 -0.624383 -0.617991 -0.610922 -0.603193 -0.594828 -0.585850 -0.576287 -0.566170 -0.555530 -0.544401 -0.532820 -0.520821 -0.508442 -0.495721 -0.482696 -0.469404 -0.455882 -0.442168 -0.428298 -0.414307 -0.400231 -0.386105 -0.371965 -0.357849 -0.343797 -0.329848 -0.316045 -0.302432 -0.289053 -0.275955 -0.263182 -0.250781 -0.238795 -0.227267 -0.216239 -0.205749 -0.195834 -0.186527 -0.177856 -0.169847 -0.162522 -0.155898 -0.149989 -0.144804 -0.140347 -0.136621 -0.133623 -0.131345 -0.129779 -0.128910 -0.128724 -0.129200 -0.130318 -0.132055 -0.134384 -0.137278 -0.140711 -0.144651 -0.149070 -0.153935 -0.159217 -0.164883 -0.170903 -0.177246 -0.183881 -0.190778 -0.197908 -0.205243 -0.212755 -0.220418 -0.228205 -0.236094 -0.244060 -0.252083 -0.260140 -0.268213 -0.276284 -0.284335 -0.292351 -0.300316 -0.308217 -0.316040 -0.323768 -0.331385 -0.338873 -0.346210 -0.353373 -0.360338 -0.367076 -0.373560 -0.379758 -0.385640 -0.391175 -0.396333 -0.401084 -0.405400 -0.409254 -0.412623 -0.415490 -0.417842 -0.419671 -0.420976 -0.421764 -0.422045 -0.421840 -0.421172 -0.420070 -0.418570 -0.416709 -0.414528 -0.412070 -0.409382 -0.406509 -0.403497 -0.400393 -0.397241 -0.394084 -0.390964 -0.387919 -0.384986 -0.382197 -0.379583 -0.377170 -0.374982 -0.373039 -0.371357 -0.369950 -0.368829 -0.368000 -0.367468 -0.367236 -0.367301 -0.367663 -0.368314 -0.369249 -0.370458 -0.371932 -0.373659 -0.375626 -0.377821 -0.380229 -0.382836 -0.385626 -0.388585 -0.391697 -0.394946 -0.398317 -0.401796 -0.405367 -0.409016 -0.412730 -0.416495 -0.420298 -0.424128 -0.427971 -0.431818 -0.435658 -0.439479 -0.443269 -0.447014 -0.450699 -0.454305 -0.457812 -0.461195 -0.464429 -0.467487 -0.470338 -0.472953 -0.475301 -0.477351 -0.479072 -0.480436 -0.481414 -0.481981 -0.482116 -0.481802 -0.481026 -0.479783 -0.478074 -0.475905 -0.473290 -0.470249 -0.466807 -0.462996 -0.458852 -0.454411 -0.449718 -0.444816 -0.439752 -0.434571 -0.429321 -0.424048 -0.418797 -0.413611 -0.408531 -0.403595 -0.398840 -0.394297 -0.389997 -0.385965 -0.382223 -0.378792 -0.375685 -0.372917 -0.370497 -0.368429 -0.366718 -0.365364 -0.364366 -0.363718 -0.363414 -0.363447 -0.363805 -0.364478 -0.365452 -0.366714 -0.368249 -0.370041 -0.372074 -0.374332 -0.376799 -0.379457 -0.382289 -0.385280 -0.388413 -0.391671 -0.395040 -0.398504 -0.402049 -0.405660 -0.409324 -0.413029 -0.416762 -0.420511 -0.424265 -0.428009 -0.431730 -0.435410 -0.439029 -0.442567 -0.445998 -0.449296 -0.452433 -0.455378 -0.458100 -0.460567 -0.462748 -0.464612 -0.466129 -0.467270 -0.468009 -0.468325 -0.468200 -0.467623 -0.466587 -0.465093 -0.463148 -0.460766 -0.457967 -0.454776 -0.451225 -0.447348 -0.443184 -0.438774 -0.434163 -0.429395 -0.424518 -0.419576 -0.414616 -0.409681 -0.404813 -0.400053 -0.395439 -0.391005 -0.386782 -0.382800 -0.379084 -0.375655 -0.372531 -0.369728 -0.367258 -0.365128 -0.363345 -0.361912 -0.360828 -0.360092 -0.359698 -0.359639 -0.359908 -0.360494 -0.361386 -0.362570 -0.364033 -0.365759 -0.367734 -0.369942 -0.372365 -0.374989 -0.377795 -0.380769 -0.383892 -0.387150 -0.390526 -0.394005 -0.397572 -0.401213 -0.404915 -0.408663 -0.412446 -0.416252 -0.420069 -0.423884 -0.427684 -0.431455 -0.435178 -0.438835 -0.442402 -0.445856 -0.449168 -0.452311 -0.455254 -0.457966 -0.460414 -0.462568 -0.464398 -0.465872 -0.466963 -0.467645 -0.467894 -0.467689 -0.467013 -0.465850 -0.464190 -0.462024 -0.459349 -0.456161 -0.452464 -0.448264 -0.443567 -0.438385 -0.432733 -0.426626 -0.420082 -0.413121 -0.405767 -0.398042 -0.389970 -0.381577 -0.372890 -0.363935 -0.354740 -0.345330 -0.335735 -0.325980 -0.316092 -0.306096 -0.296020 -0.285888 -0.275729 -0.265571 -0.255449 -0.245397 -0.235454 -0.225662 -0.216066 -0.206714 -0.197656 -0.188942 -0.180624 -0.172753 -0.165377 -0.158546 -0.152305 -0.146697 -0.141761 -0.137531 -0.134038 -0.131308 -0.129361 -0.128212 -0.127872 -0.128347 -0.129637 -0.131737 -0.134638 -0.138326 -0.142785 -0.147993 -0.153925 -0.160553 -0.167848 -0.175777 -0.184304 -0.193393 -0.203007 -0.213108 -0.223655 -0.234610 -0.245933 -0.257584 -0.269525 -0.281716 -0.294121 -0.306703 -0.319427 -0.332258 -0.345163 -0.358112 -0.371074 -0.384021 -0.396926 -0.409766 -0.422516 -0.435154 -0.447661 -0.460019 -0.472209 -0.484216 -0.496021 -0.507607 -0.518952 -0.530032 -0.540821 -0.551288 -0.561401 -0.571123 -0.580417 -0.589242 -0.597558 -0.605325 -0.612502 -0.619050 -0.624933 -0.630116 -0.634571 -0.638274 -0.641208 -0.643367 -0.644751 -0.645369 -0.645241 -0.644394 -0.642863 -0.640693 -0.637932 -0.634636 -0.630865 -0.626680 -0.622149 -0.617336 -0.612310 -0.607136 -0.601879 -0.596601 -0.591363 -0.586220 -0.581225 -0.576426 -0.571867 -0.567586 -0.563619 -0.559994 -0.556737 -0.553867 -0.551402 -0.549351 -0.547723 -0.546520 -0.545744 -0.545390 -0.545452 -0.545921 -0.546786 -0.548032 -0.549645 -0.551607 -0.553901 -0.556505 -0.559401 -0.562567 -0.565982 -0.569625 -0.573474 -0.577508 -0.581706 -0.586047 -0.590511 -0.595078 -0.599731 -0.604450 -0.609219 -0.614021 -0.618841 -0.623664 -0.628474 -0.633254 -0.637986 -0.642649 -0.647216 -0.651661 -0.655951 -0.660050 -0.663921 -0.667524 -0.670815 -0.673753 -0.676294 -0.678396 -0.680018 -0.681120 -0.681666 -0.681627 -0.680976 -0.679697 -0.677781 -0.675226 -0.672043 -0.668250 -0.663871 -0.658943 -0.653506 -0.647610 -0.641308 -0.634657 -0.627719 -0.620556 -0.613234 -0.605816 -0.598365 -0.590945 -0.583615 -0.576431 -0.569447 -0.562712 -0.556272 -0.550167 -0.544433 -0.539102 -0.534199 -0.529748 -0.525766 -0.522264 -0.519253 -0.516737 -0.514716 -0.513188 -0.512148 -0.511585 -0.511490 -0.511848 -0.512643 -0.513857 -0.515472 -0.517468 -0.519822 -0.522512 -0.525516 -0.528812 -0.532375 -0.536182 -0.540212 -0.544440 -0.548846 -0.553407 -0.558102 -0.562911 -0.567815 -0.572796 -0.577835 -0.582916 -0.588022 -0.593137 -0.598241 -0.603314 -0.608333 -0.613271 -0.618097 -0.622777 -0.627275 -0.631551 -0.635563 -0.639267 -0.642619 -0.645575 -0.648092 -0.650129 -0.651644 -0.652604 -0.652976 -0.652738 -0.651872 -0.650369 -0.648232 -0.645470 -0.642101 -0.638154 -0.633663 -0.628672 -0.623230 -0.617389 -0.611209 -0.604749 -0.598074 -0.591248 -0.584333 -0.577394 -0.570491 -0.563683 -0.557027 -0.550574 -0.544372 -0.538467 -0.532897 -0.527697 -0.522898 -0.518525 -0.514598 -0.511136 -0.508148 -0.505644 -0.503627 -0.502097 -0.501050 -0.500481 -0.500380 -0.500735 -0.501531 -0.502753 -0.504383 -0.506401 -0.508787 -0.511519 -0.514575 -0.517932 -0.521568 -0.525459 -0.529583 -0.533916 -0.538436 -0.543122 -0.547952 -0.552905 -0.557961 -0.563101 -0.568307 -0.573562 -0.578849 -0.584152 -0.589453 -0.594734 -0.599973 -0.605148 -0.610230 -0.615188 -0.619988 -0.624592 -0.628962 -0.633053 -0.636822 -0.640227 -0.643223 -0.645766 -0.647816 -0.649334 -0.650282 -0.650629 -0.650344 -0.649404 -0.647788 -0.645480 -0.642469 -0.638748 -0.634316 -0.629176 -0.623334 -0.616803 -0.609598 -0.601738 -0.593245 -0.584145 -0.574466 -0.564239 -0.553496 -0.542271 -0.530600 -0.518520 -0.506067 -0.493279 -0.480194 -0.466850 -0.453285 -0.439534 -0.425633 -0.411619 -0.397526 -0.383388 -0.369241 -0.355120 -0.341064 -0.327111 -0.313302 -0.299679 -0.286285 -0.273166 -0.260366 -0.247929 -0.235899 -0.224319 -0.213229 -0.202670 -0.192677 -0.183283 -0.174519 -0.166411 -0.158982 -0.152250 -0.146229 -0.140930 -0.136359 -0.132518 -0.129406 -0.127017 -0.125342 -0.124370 -0.124084 -0.124467 -0.125498 -0.127155 -0.129412 -0.132243 -0.135620 -0.139514 -0.143895 -0.148732 -0.153994 -0.159650 -0.165669 -0.172019 -0.178670 -0.185592 -0.192755 -0.200130 -0.207690 -0.215408 -0.223258 -0.231215 -0.239256 -0.247358 -0.255500 -0.263663 -0.271827 -0.279976 -0.288092 -0.296162 -0.304170 -0.312102 -0.319944 -0.327680 -0.335291 -0.342757 -0.350058 -0.357167 -0.364060 -0.370706 -0.377078 -0.383143 -0.388873 -0.394235 -0.399200 -0.403739 -0.407824 -0.411431 -0.414540 -0.417135 -0.419207 -0.420750 -0.421767 -0.422268 -0.422268 -0.421789 -0.420857 -0.419505 -0.417770 -0.415691 -0.413310 -0.410674 -0.407828 -0.404818 -0.401692 -0.398495 -0.395272 -0.392065 -0.388914 -0.385859 -0.382933 -0.380168 -0.377594 -0.375236 -0.373115 -0.371250 -0.369657 -0.368347 -0.367330 -0.366612 -0.366196 -0.366082 -0.366269 -0.366753 -0.367527 -0.368584 -0.369914 -0.371506 -0.373349 -0.375429 -0.377732 -0.380245 -0.382951 -0.385836 -0.388884 -0.392079 -0.395407 -0.398851 -0.402397 -0.406031 -0.409737 -0.413502 -0.417312 -0.421156 -0.425021 -0.428896 -0.432770 -0.436631 -0.440468 -0.444269 -0.448019 -0.451700 -0.455294 -0.458779 -0.462129 -0.465320 -0.468321 -0.471103 -0.473636 -0.475889 -0.477831 -0.479432 -0.480663 -0.481498 -0.481912 -0.481885 -0.481401 -0.480451 -0.479030 -0.477141 -0.474793 -0.472002 -0.468789 -0.465182 -0.461214 -0.456920 -0.452342 -0.447521 -0.442505 -0.437338 -0.432069 -0.426744 -0.421409 -0.416110 -0.410890 -0.405788 -0.400843 -0.396090 -0.391562 -0.387286 -0.383289 -0.379591 -0.376211 -0.373164 -0.370462 -0.368113 -0.366123 -0.364493 -0.363224 -0.362313 -0.361755 -0.361543 -0.361668 -0.362119 -0.362884 -0.363950 -0.365303 -0.366928 -0.368808 -0.370927 -0.373270 -0.375818 -0.378554 -0.381463 -0.384527 -0.387731 -0.391057 -0.394490 -0.398015 -0.401618 -0.405284 -0.409001 -0.412755 -0.416534 -0.420327 -0.424121 -0.427902 -0.431655 -0.435363 -0.439006 -0.442561 -0.446004 -0.449307 -0.452442 -0.455378 -0.458083 -0.460527 -0.462678 -0.464504 -0.465977 -0.467067 -0.467750 -0.468005 -0.467816 -0.467171 -0.466066 -0.464504 -0.462493 -0.460047 -0.457187 -0.453942 -0.450341 -0.446422 -0.442222 -0.437785 -0.433155 -0.428377 -0.423498 -0.418563 -0.413618 -0.408706 -0.403869 -0.399147 -0.394578 -0.390194 -0.386028 -0.382107 -0.378456 -0.375096 -0.372044 -0.369314 -0.366919 -0.364866 -0.363160 -0.361803 -0.360796 -0.360134 -0.359813 -0.359826 -0.360164 -0.360817 -0.361772 -0.363017 -0.364537 -0.366318 -0.368344 -0.370599 -0.373066 -0.375730 -0.378573 -0.381579 -0.384732 -0.388016 -0.391415 -0.394914 -0.398498 -0.402153 -0.405865 -0.409621 -0.413410 -0.417218 -0.421035 -0.424848 -0.428643 -0.432405 -0.436115 -0.439755 -0.443300 -0.446726 -0.450005 -0.453109 -0.456006 -0.458665 -0.461056 -0.463145 -0.464904 -0.466301 -0.467310 -0.467905 -0.468062 -0.467762 -0.466988 -0.465724 -0.463960 -0.461690 -0.458909 -0.455617 -0.451816 -0.447513 -0.442715 -0.437436 -0.431688 -0.425489 -0.418858 -0.411814 -0.404381 -0.396581 -0.388440 -0.379984 -0.371238 -0.362230 -0.352987 -0.343536 -0.333904 -0.324117 -0.314203 -0.304187 -0.294095 -0.283957 -0.273803 -0.263671 -0.253604 -0.243652 -0.233871 -0.224326 -0.215087 -0.206230 -0.197835 -0.189985 -0.182765 -0.176259 -0.170552 -0.165725 -0.161853 -0.159011 -0.157262 -0.156666 -0.157275 -0.159130 -0.162266 -0.166709 -0.172475 -0.179570 -0.187995 -0.197739 -0.208785 -0.221107 -0.234673 -0.249444 -0.265375 -0.282416 -0.300512 -0.319605 -0.339632 -0.360528 -0.382226 -0.404658 -0.427754 -0.451444 -0.475658 -0.500326 -0.525379 -0.550751 -0.576375 -0.602187 -0.628126 -0.654131 -0.680147 -0.706118 -0.731993 -0.757724 -0.783265 -0.808574 -0.833611 -0.858339 -0.882725 -0.906738 -0.930349 -0.953530 -0.976251 -0.998479 -1.020177 -1.041301 -1.061804 -1.081631 -1.100720 -1.119009 -1.136426 -1.152899 -1.168357 -1.182724 -1.195929 -1.207903 -1.218579 -1.227899 -1.235815 -1.242290 -1.247301 -1.250843 -1.252924 -1.253571 -1.252827 -1.250751 -1.247416 -1.242909 -1.237325 -1.230772 -1.223363 -1.215216 -1.206455 -1.197204 -1.187584 -1.177719 -1.167726 -1.157718 -1.147803 -1.138082 -1.128650 -1.119591 -1.110982 -1.102894 -1.095385 -1.088507 -1.082303 -1.076807 -1.072045 -1.068036 -1.064792 -1.062316 -1.060606 -1.059656 -1.059451 -1.059975 -1.061204 -1.063115 -1.065676 -1.068858 -1.072627 -1.076946 -1.081780 -1.087089 -1.092837 -1.098985 -1.105493 -1.112325 -1.119441 -1.126807 -1.134385 -1.142142 -1.150044 -1.158060 -1.166159 -1.174312 -1.182491 -1.190670 -1.198819 -1.206904 -1.214889 -1.222730 -1.230377 -1.237773 -1.244857 -1.251559 -1.257806 -1.263520 -1.268623 -1.273035 -1.276676 -1.279468 -1.281337 -1.282213 -1.282036 -1.280756 -1.278336 -1.274755 -1.270006 -1.264102 -1.257069 -1.248952 -1.239810 -1.229717 -1.218759 -1.207031 -1.194638 -1.181691 -1.168305 -1.154599 -1.140691 -1.126698 -1.112736 -1.098916 -1.085344 -1.072121 -1.059338 -1.047082 -1.035429 -1.024449 -1.014201 -1.004736 -0.996097 -0.988319 -0.981427 -0.975439 -0.970366 -0.966211 -0.962971 -0.960636 -0.959192 -0.958618 -0.958891 -0.959982 -0.961860 -0.964489 -0.967832 -0.971852 -0.976506 -0.981754 -0.987553 -0.993861 -1.000634 -1.007831 -1.015410 -1.023329 -1.031548 -1.040029 -1.048733 -1.057625 -1.066669 -1.075834 -1.085086 -1.094397 -1.103733 -1.113063 -1.122348 -1.131546 -1.140608 -1.149479 -1.158097 -1.166395 -1.174300 -1.181734 -1.188618 -1.194868 -1.200403 -1.205143 -1.209008 -1.211924 -1.213824 -1.214651 -1.214360 -1.212918 -1.210312 -1.206541 -1.201625 -1.195599 -1.188512 -1.180430 -1.171432 -1.161607 -1.151054 -1.139879 -1.128195 -1.116116 -1.103760 -1.091244 -1.078682 -1.066187 -1.053865 -1.041819 -1.030144 -1.018928 -1.008250 -0.998184 -0.988791 -0.980128 -0.972241 -0.965166 -0.958935 -0.953567 -0.949078 -0.945474 -0.942755 -0.940914 -0.939940 -0.939815 -0.940518 -0.942022 -0.944298 -0.947313 -0.951032 -0.955417 -0.960429 -0.966028 -0.972172 -0.978820 -0.985930 -0.993460 -1.001367 -1.009613 -1.018157 -1.026959 -1.035983 -1.045193 -1.054553 -1.064031 -1.073594 -1.083214 -1.092859 -1.102498 -1.112096 -1.121611 -1.131000 -1.140209 -1.149181 -1.157849 -1.166145 -1.173991 -1.181310 -1.188020 -1.194039 -1.199286 -1.203682 -1.207150 -1.209619 -1.211021 -1.211299 -1.210398 -1.208274 -1.204891 -1.200221 -1.194245 -1.186953 -1.178344 -1.168424 -1.157207 -1.144718 -1.130987 -1.116048 -1.099947 -1.082730 -1.064452 -1.045169 -1.024942 -1.003836 -0.981918 -0.959254 -0.935915 -0.911970 -0.887490 -0.862545 -0.837203 -0.811533 -0.785601 -0.759472 -0.733211 -0.706882 -0.680548 -0.654276 -0.628131 -0.602182 -0.576499 -0.551152 -0.526213 -0.501753 -0.477844 -0.454558 -0.431960 -0.410117 -0.389091 -0.368940 -0.349718 -0.331474 -0.314251 -0.298086 -0.283012 -0.269054 -0.256231 -0.244556 -0.234036 -0.224672 -0.216460 -0.209390 -0.203447 -0.198610 -0.194856 -0.192157 -0.190481 -0.189793 -0.190055 -0.191227 -0.193268 -0.196134 -0.199780 -0.204161 -0.209230 -0.214942 -0.221251 -0.228111 -0.235476 -0.243302 -0.251546 -0.260166 -0.269120 -0.278370 -0.287877 -0.297605 -0.307519 -0.317587 -0.327777 -0.338059 -0.348407 -0.358794 -0.369197 -0.379591 -0.389957 -0.400270 -0.410509 -0.420647 -0.430657 -0.440508 -0.450167 -0.459595 -0.468754 -0.477602 -0.486095 -0.494188 -0.501837 -0.508998 -0.515629 -0.521688 -0.527137 -0.531944 -0.536080 -0.539526 -0.542270 -0.544308 -0.545646 -0.546298 -0.546290 -0.545652 -0.544424 -0.542654 -0.540391 -0.537693 -0.534618 -0.531230 -0.527591 -0.523766 -0.519818 -0.515809 -0.511799 -0.507846 -0.504004 -0.500322 -0.496847 -0.493621 -0.490682 -0.488060 -0.485786 -0.483882 -0.482366 -0.481254 -0.480555 -0.480275 -0.480418 -0.480981 -0.481961 -0.483350 -0.485138 -0.487313 -0.489860 -0.492763 -0.496004 -0.499565 -0.503425 -0.507563 -0.511958 -0.516588 -0.521431 -0.526466 -0.531670 -0.537022 -0.542502 -0.548088 -0.553762 -0.559503 -0.565294 -0.571117 -0.576956 -0.582795 -0.588619 -0.594412 -0.600157 -0.605836 -0.611427 -0.616904 -0.622241 -0.627404 -0.632358 -0.637067 -0.641488 -0.645579 -0.649298 -0.652602 -0.655450 -0.657799 -0.659611 -0.660851 -0.661488 -0.661498 -0.660866 -0.659582 -0.657648 -0.655073 -0.651877 -0.648087 -0.643739 -0.638875 -0.633545 -0.627801 -0.621702 -0.615309 -0.608685 -0.601895 -0.595002 -0.588069 -0.581159 -0.574330 -0.567639 -0.561138 -0.554876 -0.548899 -0.543245 -0.537950 -0.533046 -0.528557 -0.524507 -0.520911 -0.517783 -0.515130 -0.512957 -0.511266 -0.510052 -0.509311 -0.509033 -0.509207 -0.509820 -0.510855 -0.512296 -0.514124 -0.516317 -0.518856 -0.521719 -0.524883 -0.528326 -0.532025 -0.535958 -0.540101 -0.544433 -0.548933 -0.553578 -0.558349 -0.563226 -0.568190 -0.573223 -0.578307 -0.583427 -0.588565 -0.593706 -0.598829 -0.603915 -0.608940 -0.613875 -0.618690 -0.623351 -0.627821 -0.632058 -0.636021 -0.639665 -0.642948 -0.645825 -0.648254 -0.650193 -0.651603 -0.652450 -0.652703 -0.652341 -0.651349 -0.649720 -0.647456 -0.644570 -0.641083 -0.637023 -0.632427 -0.627342 -0.621814 -0.615900 -0.609658 -0.603150 -0.596438 -0.589587 -0.582661 -0.575723 -0.568832 -0.562049 -0.555427 -0.549019 -0.542872 -0.537029 -0.531528 -0.526404 -0.521687 -0.517400 -0.513564 -0.510194 -0.507302 -0.504893 -0.502972 -0.501538 -0.500587 -0.500111 -0.500101 -0.500545 -0.501427 -0.502732 -0.504441 -0.506534 -0.508991 -0.511789 -0.514908 -0.518323 -0.522012 -0.525953 -0.530121 -0.534494 -0.539051 -0.543768 -0.548626 -0.553602 -0.558678 -0.563835 -0.569055 -0.574319 -0.579613 -0.584919 -0.590220 -0.595497 -0.600729 -0.605890 -0.610952 -0.615885 -0.620652 -0.625216 -0.629537 -0.633569 -0.637272 -0.640601 -0.643512 -0.645963 -0.647913 -0.649322 -0.650156 -0.650382 -0.649972 -0.648901 -0.647151 -0.644707 -0.641558 -0.637698 -0.633128 -0.627850 -0.621874 -0.615210 -0.607876 -0.599892 -0.591279 -0.582065 -0.572278 -0.561949 -0.551110 -0.539797 -0.528045 -0.515891 -0.503372 -0.490526 -0.477390 -0.464002 -0.450400 -0.436620 -0.422698 -0.408669 -0.394569 -0.380432 -0.366295 -0.352196 -0.338173 -0.324268 -0.310522 -0.296979 -0.283684 -0.270682 -0.258019 -0.245739 -0.233886 -0.222502 -0.211629 -0.201303 -0.191561 -0.182434 -0.173950 -0.166134 -0.159006 -0.152584 -0.146878 -0.141899 -0.137648 -0.134128 -0.131334 -0.129259 -0.127892 -0.127220 -0.127225 -0.127889 -0.129188 -0.131101 -0.133599 -0.136657 -0.140246 -0.144336 -0.148896 -0.153896 -0.159305 -0.165091 -0.171224 -0.177672 -0.184405 -0.191393 -0.198607 -0.206019 -0.213602 -0.221329 -0.229175 -0.237116 -0.245130 -0.253194 -0.261288 -0.269393 -0.277491 -0.285566 -0.293601 -0.301582 -0.309495 -0.317325 -0.325057 -0.332674 -0.340156 -0.347482 -0.354629 -0.361572 -0.368281 -0.374730 -0.380885 -0.386718 -0.392198 -0.397293 -0.401975 -0.406215 -0.409987 -0.413269 -0.416043 -0.418293 -0.420014 -0.421203 -0.421866 -0.422014 -0.421666 -0.420845 -0.419580 -0.417908 -0.415865 -0.413492 -0.410835 -0.407940 -0.404853 -0.401622 -0.398294 -0.394914 -0.391529 -0.388179 -0.384906 -0.381747 -0.378735 -0.375904 -0.373279 -0.370886 -0.368747 -0.366878 -0.365293 -0.364005 -0.363022 -0.362347 -0.361983 -0.361931 -0.362187 -0.362746 -0.363602 -0.364745 -0.366165 -0.367852 -0.369792 -0.371971 -0.374375 -0.376989 -0.379797 -0.382785 -0.385935 -0.389231 -0.392659 -0.396203 -0.399847 -0.403576 -0.407375 -0.411232 -0.415133 -0.419064 -0.423014 -0.426971 -0.430924 -0.434863 -0.438774 -0.442646 -0.446461 -0.450205 -0.453855 -0.457390 -0.460785 -0.464012 -0.467044 -0.469848 -0.472396 -0.474657 -0.476599 -0.478192 -0.479409 -0.480223 -0.480610 -0.480550 -0.480028 -0.479036 -0.477569 -0.475631 -0.473232 -0.470388 -0.467121 -0.463460 -0.459438 -0.455091 -0.450461 -0.445591 -0.440528 -0.435317 -0.430007 -0.424644 -0.419276 -0.413947 -0.408701 -0.403578 -0.398617 -0.393852 -0.389316 -0.385037 -0.381040 -0.377348 -0.373978 -0.370944 -0.368260 -0.365932 -0.363966 -0.362364 -0.361126 -0.360249 -0.359728 -0.359555 -0.359721 -0.360215 -0.361026 -0.362139 -0.363540 -0.365213 -0.367144 -0.369314 -0.371708 -0.374308 -0.377097 -0.380058 -0.383175 -0.386430 -0.389808 -0.393292 -0.396869 -0.400522 -0.404238 -0.408003 -0.411805 -0.415632 -0.419471 -0.423309 -0.427135 -0.430931 -0.434681 -0.438364 -0.441959 -0.445440 -0.448781 -0.451952 -0.454922 -0.457662 -0.460138 -0.462321 -0.464177 -0.465679 -0.466797 -0.467508 -0.467789 -0.467624 -0.467004 -0.465922 -0.464382 -0.462392 -0.459966 -0.457126 -0.453899 -0.450317 -0.446414 -0.442231 -0.437809 -0.433194 -0.428430 -0.423564 -0.418642 -0.413708 -0.408808 -0.403982 -0.399271 -0.394711 -0.390336 -0.386179 -0.382266 -0.378623 -0.375270 -0.372224 -0.369502 -0.367113 -0.365065 -0.363364 -0.362012 -0.361009 -0.360351 -0.360034 -0.360051 -0.360392 -0.361048 -0.362005 -0.363252 -0.364775 -0.366557 -0.368584 -0.370840 -0.373309 -0.375973 -0.378817 -0.381823 -0.384977 -0.388260 -0.391659 -0.395157 -0.398741 -0.402395 -0.406106 -0.409861 -0.413648 -0.417455 -0.421271 -0.425082 -0.428875 -0.432634 -0.436343 -0.439980 -0.443523 -0.446947 -0.450224 -0.453324 -0.456219 -0.458875 -0.461263 -0.463350 -0.465105 -0.466500 -0.467506 -0.468097 -0.468252 -0.467949 -0.467171 -0.465904 -0.464137 -0.461864 -0.459080 -0.455784 -0.451980 -0.447673 -0.442873 -0.437590 -0.431839 -0.425637 -0.419002 -0.411955 -0.404519 -0.396716 -0.388572 -0.380113 -0.371364 -0.362353 -0.353107 -0.343652 -0.334017 -0.324228 -0.314311 -0.304292 -0.294197 -0.284054 -0.273894 -0.263752 -0.253670 -0.243696 -0.233886 -0.224302 -0.215012 -0.206092 -0.197621 -0.189681 -0.182355 -0.175730 -0.169888 -0.164912 -0.160879 -0.157861 -0.155926 -0.155134 -0.155537 -0.157180 -0.160099 -0.164319 -0.169861 -0.176731 -0.184932 -0.194455 -0.205283 -0.217393 -0.230753 -0.245326 -0.261069 -0.277931 -0.295859 -0.314795 -0.334677 -0.355441 -0.377020 -0.399346 -0.422349 -0.445959 -0.470106 -0.494720 -0.519733 -0.545077 -0.570685 -0.596493 -0.622438 -0.648462 -0.674506 -0.700515 -0.726438 -0.752226 -0.777832 -0.803213 -0.828329 -0.853142 -0.877620 -0.901729 -0.925442 -0.948730 -0.971563 -0.993910 -1.015733 -1.036992 -1.057639 -1.077621 -1.096877 -1.115345 -1.132955 -1.149636 -1.165315 -1.179918 -1.193373 -1.205609 -1.216560 -1.226164 -1.234368 -1.241129 -1.246419 -1.250223 -1.252542 -1.253394 -1.252815 -1.250856 -1.247583 -1.243079 -1.237435 -1.230755 -1.223151 -1.214742 -1.205651 -1.196003 -1.185927 -1.175546 -1.164983 -1.154358 -1.143784 -1.133369 -1.123212 -1.113405 -1.104034 -1.095172 -1.086887 -1.079235 -1.072266 -1.066020 -1.060527 -1.055810 -1.051886 -1.048763 -1.046441 -1.044917 -1.044178 -1.044210 -1.044992 -1.046500 -1.048704 -1.051575 -1.055077 -1.059176 -1.063834 -1.069012 -1.074671 -1.080771 -1.087271 -1.094133 -1.101317 -1.108785 -1.116498 -1.124420 -1.132516 -1.140753 -1.149097 -1.157518 -1.165987 -1.174476 -1.182955 -1.191396 -1.199763 -1.208018 -1.216116 -1.224005 -1.231627 -1.238917 -1.245807 -1.252221 -1.258082 -1.263310 -1.267826 -1.271549 -1.274403 -1.276313 -1.277212 -1.277040 -1.275749 -1.273303 -1.269682 -1.264883 -1.258917 -1.251816 -1.243625 -1.234405 -1.224231 -1.213191 -1.201383 -1.188911 -1.175889 -1.162433 -1.148662 -1.134696 -1.120653 -1.106650 -1.092797 -1.079203 -1.065966 -1.053180 -1.040931 -1.029296 -1.018343 -1.008133 -0.998716 -0.990135 -0.982423 -0.975606 -0.969703 -0.964721 -0.960666 -0.957532 -0.955310 -0.953984 -0.953535 -0.953937 -0.955161 -0.957175 -0.959944 -0.963430 -0.967594 -0.972395 -0.977790 -0.983738 -0.990194 -0.997116 -1.004461 -1.012186 -1.020251 -1.028615 -1.037238 -1.046083 -1.055113 -1.064293 -1.073590 -1.082973 -1.092411 -1.101872 -1.111323 -1.120725 -1.130038 -1.139211 -1.148190 -1.156912 -1.165311 -1.173313 -1.180841 -1.187814 -1.194152 -1.199771 -1.204591 -1.208533 -1.211522 -1.213490 -1.214376 -1.214131 -1.212717 -1.210113 -1.206314 -1.201333 -1.195197 -1.187952 -1.179658 -1.170391 -1.160237 -1.149294 -1.137668 -1.125472 -1.112824 -1.099843 -1.086651 -1.073367 -1.060109 -1.046989 -1.034116 -1.021592 -1.009511 -0.997961 -0.987019 -0.976755 -0.967231 -0.958499 -0.950601 -0.943574 -0.937442 -0.932224 -0.927930 -0.924564 -0.922122 -0.920594 -0.919965 -0.920214 -0.921316 -0.923242 -0.925959 -0.929432 -0.933622 -0.938490 -0.943994 -0.950090 -0.956737 -0.963890 -0.971505 -0.979538 -0.987948 -0.996692 -1.005728 -1.015017 -1.024521 -1.034202 -1.044025 -1.053957 -1.063965 -1.074018 -1.084085 -1.094133 -1.104126 -1.114022 -1.123773 -1.133327 -1.142622 -1.151592 -1.160166 -1.168266 -1.175815 -1.182729 -1.188928 -1.194330 -1.198857 -1.202432 -1.204985 -1.206452 -1.206773 -1.205899 -1.203785 -1.200398 -1.195711 -1.189708 -1.182381 -1.173729 -1.163761 -1.152494 -1.139953 -1.126169 -1.111180 -1.095031 -1.077770 -1.059453 -1.040137 -1.019884 -0.998760 -0.976830 -0.954164 -0.930831 -0.906902 -0.882446 -0.857534 -0.832234 -0.806615 -0.780743 -0.754681 -0.728494 -0.702240 -0.675977 -0.649760 -0.623640 -0.597668 -0.571888 -0.546345 -0.521078 -0.496126 -0.471520 -0.447293 