0.00000000000000004082 0.00000000000000021768 -0.00000000000000008163 
-0.00000000000000003720 0.00000000000000021768 -0.00000000000000003401 
0.00000000000000001424 0.00000000000000000000 -0.00000000000000002381 
0.00000000000000004167 0.00000000000000000000 -0.00000000000000008673 
-0.00000000000000002817 0.00000000000000016326 -0.00000000000000002891 
-0.00000000000000004783 0.00000000000000005442 -0.00000000000000015816 
0.00000000000000000085 0.00000000000000016326 -0.00000000000000006632 
0.00000000000000002275 0.00000000000000010884 -0.00000000000000006632 
0.00000000000000005761 0.00000000000000010884 -0.00000000000000000680 
0.00000000000000002593 0.00000000000000000000 -0.00000000000000007823 
0.00000000000000000510 0.00000000000000005442 -0.00000000000000010544 
-0.00000000000000005357 0.00000000000000005442 -0.00000000000000005952 
0.00000000000000007313 0.00000000000000010884 0.00000000000000004592 
0.00000000000000009481 0.00000000000000010884 -0.00000000000000002551 
0.00000000000000008121 0.00000000000000016326 -0.00000000000000009864 
-0.00000000000000000043 0.00000000000000000000 -0.00000000000000003061 
0.00000000000000001701 0.00000000000000010884 -0.00000000000000013095 
-0.00000000000000000680 0.00000000000000010884 0.00000000000000000000 
-0.00000000000000006037 0.00000000000000000000 -0.00000000000000012245 
-0.00000000000000005017 0.00000000000000000000 -0.00000000000000011734 
-0.00000000000000001446 0.00000000000000010884 0.00000000000000007823 
0.00000000000000005527 0.00000000000000010884 -0.00000000000000017857 
-0.00000000000000004252 0.00000000000000010884 -0.00000000000000001786 
0.00000000000000000340 0.00000000000000016326 -0.00000000000000007908 
0.00000000000000001190 0.00000000000000016326 0.00000000000000004337 
-0.00000000000000003061 0.00000000000000000000 -0.00000000000000009609 
-0.00000000000000001871 0.00000000000000005442 -0.00000000000000008163 
-0.00000000000000002126 0.00000000000000016326 -0.00000000000000005442 
0.00000000000000001105 0.00000000000000016326 -0.00000000000000005612 
0.00000000000000000510 0.00000000000000010884 -0.00000000000000012500 
0.00000000000000003826 0.00000000000000005442 -0.00000000000000003656 
0.00000000000000003061 0.00000000000000016326 -0.00000000000000002976 
0.00000000000000005612 0.00000000000000005442 -0.00000000000000002976 
0.00000000000000006973 0.00000000000000010884 -0.00000000000000004337 
-0.00000000000000001361 0.00000000000000000000 -0.00000000000000002891 
-0.00000000000000006377 0.00000000000000010884 -0.00000000000000006122 
-0.00000000000000003741 0.00000000000000005442 0.00000000000000010629 
0.00000000000000006292 0.00000000000000010884 -0.00000000000000013435 
0.00000000000000004082 0.00000000000000010884 -0.00000000000000006122 
0.00000000000000011224 0.00000000000000010884 -0.00000000000000002721 
0.00000000000000005017 0.00000000000000000000 0.00000000000000009353 
-0.00000000000000004592 0.00000000000000000000 -0.00000000000000003061 
-0.00000000000000006973 0.00000000000000005442 -0.00000000000000000085 
-0.00000000000000008801 0.00000000000000000000 -0.00000000000000004762 
-0.00000000000000001701 0.00000000000000000000 -0.00000000000000008588 
-0.00000000000000002508 0.00000000000000010884 -0.00000000000000010714 
0.00000000000000002806 0.00000000000000005442 -0.00000000000000001020 
-0.00000000000000014796 0.00000000000000000000 0.00000000000000004422 
-0.00000000000000000043 -0.00000000000000005442 0.00000000000000003996 
-0.00000000000000003401 -0.00000000000000005442 -0.00000000000000002551 
-0.00000000000000004379 -0.00000000000000005442 0.00000000000000000553 
-0.00000000000000008673 0.00000000000000021768 -0.00000000000000009779 
-0.00000000000000002168 0.00000000000000010884 0.00000000000000005229 
-0.00000000000000006888 0.00000000000000016326 -0.00000000000000013180 
-0.00000000000000002572 0.00000000000000010884 -0.00000000000000005612 
-0.00000000000000007291 0.00000000000000005442 0.00000000000000004422 
-0.00000000000000000133 -0.00000000000000010884 0.00000000000000005782 
-0.00000000000000008566 0.00000000000000000000 -0.00000000000000016114 
-0.00000000000000005203 0.00000000000000005442 -0.00000000000000000978 
-0.00000000000000002843 0.00000000000000005442 0.00000000000000005272 
-0.00000000000000009885 0.00000000000000005442 -0.00000000000000001275 
-0.00000000000000003922 0.00000000000000021768 -0.00000000000000003316 
0.00000000000000006569 0.00000000000000016326 -0.00000000000000002360 
-0.00000000000000013669 0.00000000000000000000 0.00000000000000003784 
0.00000000000000001063 0.00000000000000005442 0.00000000000000007525 
-0.00000000000000004762 0.00000000000000005442 -0.00000000000000002764 
-0.00000000000000004741 0.00000000000000000000 -0.00000000000000006122 
-0.00000000000000005740 0.00000000000000005442 -0.00000000000000015168 
-0.00000000000000007950 0.00000000000000005442 0.00000000000000002466 
-0.00000000000000011904 0.00000000000000000000 -0.00000000000000016092 
-0.00000000000000008546 0.00000000000000010884 -0.00000000000000005336 
0.00000000000000001446 0.00000000000000010884 -0.00000000000000002817 
0.00000000000000002806 0.00000000000000000000 -0.00000000000000000787 
-0.00000000000000002211 0.00000000000000010884 -0.00000000000000004082 
0.00000000000000003954 0.00000000000000005442 -0.00000000000000005346 
-0.00000000000000004847 0.00000000000000010884 -0.00000000000000003380 
-0.00000000000000003529 0.00000000000000010884 -0.00000000000000002094 
0.00000000000000004847 0.00000000000000000000 -0.00000000000000001881 
0.00000000000000004124 0.00000000000000010884 -0.00000000000000000096 
0.00000000000000004039 -0.00000000000000005442 -0.00000000000000008376 
0.00000000000000004315 0.00000000000000000000 -0.00000000000000003529 
-0.00000000000000006165 0.00000000000000010884 -0.00000000000000006335 
0.00000000000000003508 0.00000000000000005442 -0.00000000000000013329 
0.00000000000000000064 0.00000000000000005442 -0.00000000000000001275 
0.00000000000000001148 0.00000000000000000000 -0.00000000000000002216 
0.00000000000000004252 -0.00000000000000005442 -0.00000000000000017660 
-0.00000000000000004581 0.00000000000000010884 -0.00000000000000002190 
0.00000000000000002702 0.00000000017196912889 -0.00000000000000002317 
0.00000000000000005233 0.00000003528450845793 0.00000000000000001148 
0.00000000000000002955 0.00000052528313802809 -0.00000000000000005144 
0.00000000000000000372 0.00000320431630386949 0.00000000000000001786 
-0.00000000000000003369 0.00001238046057463357 -0.00000000000000002934 
0.00000000000000006016 0.00003620937583827743 -0.00000000000000007525 
0.00000000000000004124 0.00008777964825641297 -0.00000000000000011862 
0.00000000000000005718 0.00018589781291141011 -0.00000000000000001743 
-0.00000000000000001275 0.00035552538187145528 -0.00000000000000006973 
0.00000000000000007270 0.00062786457631138328 0.00000000000000002976 
-0.00000000000000000468 0.00104011863213349142 -0.00000000000000008163 
0.00000000000000002253 0.00163497030717203273 -0.00000000000000010884 
-0.00000000000000009311 0.00245983156263183001 -0.00000000000000012330 
0.00000000000000014583 0.00356592067538052905 0.00000000000000003146 
0.00000000000000005697 0.00500722209195022128 -0.00000000000000005400 
0.00000000000000005867 0.00683938056881389176 -0.00000000000000005952 
-0.00000000000000001233 0.00911857562741863817 -0.00000000000000007908 
0.00000000000000010714 0.01190041588730044592 0.00000000000000002806 
-0.00000000000000007780 0.01523888601308646083 -0.00000000000000003486 
0.00000000000000001233 0.01918537223979296241 -0.00000000000000010842 
-0.00000000000000007015 0.02378778601295514217 -0.00000000000000001913 
0.00000000000000001871 0.02908979938221425976 -0.00000000000000007568 
-0.00000000000000000383 0.03513020052868569276 -0.00000000000000014668 
0.00000000000000002934 0.04194237324000234940 -0.00000000000000006080 
0.00000000000000004974 0.04955390028260971830 -0.00000000000000000935 
0.00000000000000011649 0.05798628743908465499 0.00000000000000001743 
0.00000000000000007802 0.06725480243896567178 -0.00000000000000007780 
-0.00000000000000004145 0.07736842106181794632 -0.00000000000000006420 
0.00000000000000003337 0.08832987127052978338 -0.00000000000000008588 
-0.00000000000000000138 0.10013576527748882516 0.00000000000000000680 
0.00000000000000006399 0.11277680889244777462 -0.00000000000000012287 
0.00000000000000004537 0.12623807728674649176 -0.00000000000000014200 
0.00000000000000002604 0.14049934637591929287 -0.00000000000000014966 
0.00000000000000006675 0.15553546931779377305 -0.00000000000000000298 
-0.00000000000000002806 0.17131678809740152891 -0.00000000000000018027 
-0.00000000000000003061 0.18780957078002058491 -0.00000000000000004082 
-0.00000000000000000935 0.20497646572149971766 -0.00000000000000005442 
0.00000000000000003741 0.22277696479785547012 0.00000000000000001488 
-0.00000000000000000723 0.24116786852611951653 -0.00000000000000014498 
0.00000000000000003741 0.26010374677219855188 -0.00000000000000000638 
-0.00000000000000018282 0.27953738955995677262 -0.00000000000000012457 
-0.00000000000000000340 0.29942024329342609157 0.00000000000000006930 
-0.00000000000000004932 0.31970282846895098361 -0.00000000000000013945 
-0.00000000000000006462 0.34033513567704087865 -0.00000000000000001318 
-0.00000000000000014370 0.36126699736816236808 -0.00000000000000007823 
0.00000000000000001871 0.38244843347822526924 -0.00000000000000008716 
-0.00000000000000001871 0.40382996957555838957 -0.00000000000000011649 
-0.00000000000000003231 0.42536292670064201893 -0.00000000000000006080 
0.00000000000000001275 0.44699968252302235694 -0.00000000000000002211 
0.00000000000000011819 0.46869390383783909870 0.00000000000000002381 
-0.00000000000000007653 0.49040075076929756648 -0.00000000000000011224 
-0.00000000000000002126 0.51207705334277398013 -0.00000000000000001828 
-0.00000000000000006718 0.53368146133412330823 0.00000000000000000468 
0.00000000000000005612 0.55517456850746260688 -0.00000000000000001318 
0.00000000000000005102 0.57651901251480786037 -0.00000000000000019302 
0.00000000000000003571 0.59767955185596322032 -0.00000000000000004889 
-0.00000000000000004932 0.61862312138868769118 -0.00000000000000011479 
0.00000000000000000850 0.63931886794089309856 -0.00000000000000000553 
-0.00000000000000002891 0.65973816761191095281 -0.00000000000000012032 
-0.00000000000000003571 0.67985462636199034403 -0.00000000000000006973 
0.00000000000000000170 0.69964406546034019208 -0.00000000000000008078 
0.00000000000000001105 0.71908447664810226652 -0.00000000000000001573 
-0.00000000000000001871 0.73815572975252907728 -0.00000000000000019855 
0.00000000000000000425 0.75683870110972251144 -0.00000000000000006930 
-0.00000000000000001701 0.77511399125685920275 -0.00000000000000006803 
0.00000000000000005782 0.79296056686713922712 0.00000000000000002041 
-0.00000000000000011649 0.81035455219460605925 -0.00000000000000014923 
-0.00000000000000012245 0.82726829899083986763 -0.00000000000000004634 
-0.00000000000000014115 0.84366979477755466021 0.00000000000000005782 
0.00000000000000005952 0.85952242132664491425 0.00000000000000001361 
0.00000000000000000000 0.87478504323657624298 -0.00000000000000008503 
0.00000000000000003741 0.88941238663358901384 0.00000000000000000723 
0.00000000000000004082 0.90335565712504073410 0.00000000000000005740 
0.00000000000000001190 0.91656334171907682951 0.00000000000000004422 
0.00000000000000002381 0.92898213957355069148 -0.00000000000000016284 
0.00000000000000006122 0.94055796966182214636 -0.00000000000000003656 
-0.00000000000000003741 0.95123700861153570596 0.00000000000000000043 
0.00000000000000001361 0.96096671840707736933 0.00000000000000000128 
0.00000000000000005782 0.96969686428659407351 -0.00000000000000013010 
-0.00000000000000008503 0.97738077773806242288 0.00000000000000006207 
-0.00000000000000005782 0.98397710634653767769 -0.00000000000000002466 
-0.00000000000000000680 0.98945178817304724195 0.00000000000000007058 
-0.00000000000000003741 0.99377992466912046243 -0.00000000000000004337 
-0.00000000000000001020 0.99694734532275375294 0.00000000000000006292 
-0.00000000000000012245 0.99895175143170122922 -0.00000000000000000765 
0.00000000000000003741 0.99980339401505269326 -0.00000000000000006675 
0.00000000000000000680 0.99952528788004624261 -0.00000000000000008716 
0.00000000000000006462 0.99815299506747379166 0.00000000000000007185 
-0.00000000000000007143 0.99573403015500727697 0.00000000000000002466 
0.00000000000000013945 0.99232695026449335707 0.00000000000000002849 
-0.00000000000000010884 0.98800019651412018806 -0.00000000000000007972 
-0.00000000000000005102 0.98283075297229194334 0.00000000000000003125 
-0.00000000000000008503 0.97690268537520363878 -0.00000000000000002338 
-0.00000000000000003401 0.97030561608965637532 0.00000000000000008461 
-0.00000000000000002041 0.96313318488686694430 0.00000000000000006951 
0.00000000000000005102 0.95548153767276144954 -0.00000000000000007738 
-0.00000000000000003401 0.94744787785293416160 0.00000000000000000213 
0.00000000000000004422 0.93912910781705771779 0.00000000000000007462 
-0.00000000000000010884 0.93062058132326230808 -0.00000000000000009715 
0.00000000000000003061 0.92201498148149185763 0.00000000000000007036 
-0.00000000000000004082 0.91340133364821518569 0.00000000000000006122 
-0.00000000000000008843 0.90486415787931462340 0.00000000000000009800 
-0.00000000000000006803 0.89648276163648021875 -0.00000000000000007802 
0.00000000000000001361 0.88833067017454403480 0.00000000000000014455 
-0.00000000000000003741 0.88047518940688107580 0.00000000000000000383 
0.00000000000000002381 0.87297709399748868453 0.00000000000000011798 
-0.00000000000000008163 0.86589043190080916546 -0.00000000000000004358 
0.00000000000000002381 0.85926243550112868519 0.00000000000000004889 
-0.00000000000000003061 0.85313352883065651788 -0.00000000000000009715 
-0.00000000000000006122 0.84753742000976717286 0.00000000000000000128 
0.00000000000000004422 0.84250126799878133355 -0.00000000000000005570 
-0.00000000000000002721 0.83804591292681362980 0.00000000000000002785 
-0.00000000000000005102 0.83418615962337783198 0.00000000000000000553 
0.00000000000000011224 0.83093110448119567035 0.00000000000000005336 
0.00000000000000004422 0.82828449638778900432 -0.00000000000000000595 
-0.00000000000000003741 0.82624512314732045937 0.00000000000000005006 
-0.00000000000000005952 0.82480721554590219480 0.00000000000000005857 
0.00000000000000001361 0.82396086197040385724 -0.00000000000000000595 
0.00000000000000006122 0.82369242725382496584 0.00000000000000003688 
0.00000000000000011904 0.82398497017410832211 0.00000000000000009715 
-0.00000000000000001020 0.82481865476560634054 0.00000000000000004156 
0.00000000000000004082 0.82617115130368856679 -0.00000000000000000096 
-0.00000000000000001361 0.82801802348603270598 0.00000000000000002062 
-0.00000000000000002721 0.83033309895386253618 0.00000000000000010278 
-0.00000000000000010204 0.83308882086941471456 0.00000000000000002158 
-0.00000000000000002721 0.83625657879032400110 0.00000000000000012787 
0.00000000000000008163 0.83980701755676789855 -0.00000000000000003476 
0.00000000000000002721 0.84371032333337458997 -0.00000000000000000244 
0.00000000000000002721 0.84793648632624418759 0.00000000000000007451 
0.00000000000000000000 0.85245554002764489798 0.00000000000000010193 
-0.00000000000000004082 0.85723777712926974015 -0.00000000000000013244 
0.00000000000000005442 0.86225394249190112639 0.00000000000000008508 
-0.00000000000000010884 0.86747540376773235593 0.00000000000000012080 
-0.00000000000000004082 0.87287430044433722554 0.00000000000000001180 
0.00000000000000000000 0.87842367221937811550 -0.00000000000000002551 
0.00000000000000000000 0.88409756772555736504 0.00000000000000007988 
-0.00000000000000002721 0.88987113470901557655 0.00000000000000008195 
0.00000000000000000000 0.89572069280324784213 0.00000000000000000138 
0.00000000000000000000 0.90162377339041444024 0.00000000000000003662 
-0.00000000000000005442 0.90755890898138091849 0.00000000000000000733 
-0.00000000000000005442 0.91350484022231226433 0.00000000000000001398 
0.00000000000000008163 0.91943930879041968485 0.00000000000000006074 
0.00000000000000010884 0.92533777100084912970 0.00000000000000001517 
0.00000000000000000000 0.93117225728356844972 0.00000000000000009704 
-0.00000000000000008163 0.93691050642302342588 0.00000000000000001892 
0.00000000000000000000 0.94251543441051877092 0.00000000000000009383 
-0.00000000000000005442 0.94794494975832099826 0.00000000000000002038 
0.00000000000000005442 0.95315209518979404635 -0.00000000000000000460 
-0.00000000000000010884 0.95808547578412484036 0.00000000000000005920 
0.00000000000000000000 0.96268992277452236639 0.00000000000000005402 
0.00000000000000005442 0.96690733780418280929 -0.00000000000000002620 
0.00000000000000010884 0.97067766260880417040 0.00000000000000008689 
0.00000000000000000000 0.97393992233232873357 0.00000000000000001416 
0.00000000000000000000 0.97663329586250424708 0.00000000000000011756 
-0.00000000000000016326 0.97869818005241981940 -0.00000000000000000165 
0.00000000000000000000 0.98007737090820490344 -0.00000000000000003086 
-0.00000000000000005442 0.98071770351416576172 -0.00000000000000000081 
0.00000000000000000000 0.98057206554150078137 0.00000000000000014547 
0.00000000000000005442 0.97960142924569026945 0.00000000000000001770 
0.00000000000000005442 0.97777664588692747571 0.00000000000000003631 
-0.00000000000000005442 0.97507985354953619073 0.00000000000000006973 
0.00000000000000000000 0.97150542720741317471 -0.00000000000000000773 
0.00000000000000000000 0.96706045488618752604 -0.00000000000000012006 
0.00000000000000000000 0.96176476114909825732 0.00000000000000002170 
0.00000000000000000000 0.95565052308784093071 0.00000000000000006797 
0.00000000000000010884 0.94876153788669403966 0.00000000000000005551 
0.00000000000000005442 0.94115220750675054884 -0.00000000000000007760 
0.00000000000000000000 0.93288630719760912147 0.00000000000000003743 
-0.00000000000000010884 0.92403560201572232380 -0.00000000000000003769 
0.00000000000000000000 0.91467837056775325166 0.00000000000000007126 
0.00000000000000000000 0.90489788875973908855 0.00000000000000001757 
0.00000000000000000000 0.89478091913441171190 -0.00000000000000005534 
-0.00000000000000010884 0.88441624394485485183 -0.00000000000000001814 
0.00000000000000005442 0.87389327281752837706 0.00000000000000005288 
0.00000000000000000000 0.86330074895888841979 -0.00000000000000008374 
0.00000000000000010884 0.85272557152387951085 0.00000000000000004167 
0.00000000000000000000 0.84225174608875141846 0.00000000000000002111 
0.00000000000000010884 0.83195947020018190532 0.00000000000000006035 
0.00000000000000000000 0.82192435671467700686 0.00000000000000000653 
0.00000000000000000000 0.81221679407641422799 0.00000000000000005258 
0.00000000000000000000 0.80290143976909766899 0.00000000000000000509 
0.00000000000000010884 0.79403684086693315791 0.00000000000000007940 
0.00000000000000000000 0.78567517384341800657 -0.00000000000000003695 
0.00000000000000021768 0.77786209451295074135 0.00000000000000003351 
0.00000000000000000000 0.77063668811780294821 0.00000000000000005480 
-0.00000000000000010884 0.76403150907178818407 0.00000000000000003215 
-0.00000000000000010884 0.75807269967538148947 0.00000000000000000133 
0.00000000000000000000 0.75278017717239431583 0.00000000000000004758 
-0.00000000000000005442 0.74816787877758994529 0.00000000000000004161 
0.00000000000000005442 0.74424405472471011347 0.00000000000000013226 
0.00000000000000000000 0.74101159992711662650 -0.00000000000000006162 
-0.00000000000000005442 0.73846841547520880589 -0.00000000000000004481 
-0.00000000000000010884 0.73660779188731850819 -0.00000000000000000390 
0.00000000000000000000 0.73541880675936621703 0.00000000000000006541 
0.00000000000000005442 0.73488673020283912241 0.00000000000000001539 
0.00000000000000010884 0.73499343220369883767 0.00000000000000005082 
-0.00000000000000005442 0.73571778676309373957 0.00000000000000003920 
0.00000000000000010884 0.73703606838346913399 0.00000000000000012294 
0.00000000000000000000 0.73892233713264943162 -0.00000000000000004478 
0.00000000000000010884 0.74134880914763046089 0.00000000000000007465 
-0.00000000000000005442 0.74428621002503014825 -0.00000000000000001528 
0.00000000000000000000 0.74770410908377660242 0.00000000000000007700 
-0.00000000000000005442 0.75157123297640826554 0.00000000000000000465 
0.00000000000000000000 0.75585575756811373971 0.00000000000000003601 
-0.00000000000000010884 0.76052557739805370929 0.00000000000000005684 
0.00000000000000005442 0.76554855238694585751 0.00000000000000010097 
0.00000000000000010884 0.77089273176030181922 -0.00000000000000000777 
-0.00000000000000005442 0.77652655542037418712 0.00000000000000001416 
-0.00000000000000016326 0.78241903322442973856 0.00000000000000005348 
-0.00000000000000010884 0.78853990281517538641 0.00000000000000000508 
-0.00000000000000005442 0.79485976680393177762 0.00000000000000011625 
0.00000000000000000000 0.80135021023137187335 0.00000000000000006186 
-0.00000000000000005442 0.80798389932725045437 0.00000000000000002854 
0.00000000000000010884 0.81473466266231653332 0.00000000000000010129 
-0.00000000000000005442 0.82157755317340874779 0.00000000000000004868 
0.00000000000000005442 0.82848878900027000949 0.00000000000000011437 
-0.00000000000000005442 0.83544520668624333570 0.00000000000000003922 
0.00000000000000000000 0.84242317807045707934 -0.00000000000000001913 
-0.00000000000000016326 0.84939732427942016280 0.00000000000000009162 
0.00000000000000000000 0.85633929885539250559 0.00000000000000008631 
-0.00000000000000016326 0.86321680373830267374 -0.00000000000000000149 
0.00000000000000000000 0.86999292270128136817 0.00000000000000017431 
-0.00000000000000010884 0.87662580108546395152 0.00000000000000005570 
0.00000000000000000000 0.88306866284919127708 -0.00000000000000000680 
-0.00000000000000010884 0.88927013169355462185 0.00000000000000002296 
0.00000000000000000000 0.89517480889753597850 0.00000000000000004762 
0.00000000000000000000 0.90072405376872421989 -0.00000000000000004252 
0.00000000000000000000 0.90585691115936595175 0.00000000000000014710 
-0.00000000000000010884 0.91051113266193761664 0.00000000000000013690 
0.00000000000000005442 0.91462424261929431424 0.00000000000000019132 
0.00000000000000000000 0.91813460602795959886 0.00000000000000000935 
0.00000000000000005442 0.92098247871762162209 0.00000000000000001616 
-0.00000000000000010884 0.92311122906513376485 0.00000000000000005102 
-0.00000000000000016326 0.92446904144058239527 0.00000000000000008333 
-0.00000000000000010884 0.92501091760375209194 0.00000000000000005782 
0.00000000000000010884 0.92470063129434421079 -0.00000000000000001871 
-0.00000000000000010884 0.92351240583318683353 -0.00000000000000001020 
0.00000000000000005442 0.92143218502282242532 0.00000000000000002721 
-0.00000000000000016326 0.91845844018265920816 -0.00000000000000001361 
0.00000000000000000000 0.91460250698790823698 -0.00000000000000006122 
-0.00000000000000010884 0.90988847992561605604 0.00000000000000001020 
-0.00000000000000005442 0.90435271366020564265 0.00000000000000002721 
-0.00000000000000010884 0.89804299262101172641 0.00000000000000002381 
-0.00000000000000005442 0.89101743522122567320 0.00000000000000008843 
0.00000000000000000000 0.88334319928127735810 0.00000000000000007823 
-0.00000000000000005442 0.87509505200677539793 0.00000000000000013945 
-0.00000000000000005442 0.86635386245063994437 0.00000000000000004082 
0.00000000000000005442 0.85720506767247328650 0.00000000000000005102 
-0.00000000000000005442 0.84773715646750358310 0.00000000000000003741 
-0.00000000000000005442 0.83804020706254944706 -0.00000000000000003741 
-0.00000000000000005442 0.82820450791415700653 0.00000000000000011904 
0.00000000000000000000 0.81831928392957431484 0.00000000000000000340 
0.00000000000000000000 0.80847154421373546018 0.00000000000000001701 
-0.00000000000000005442 0.79874506190886740420 0.00000000000000009183 
-0.00000000000000010884 0.78921949187272222304 0.00000000000000000680 
-0.00000000000000005442 0.77996962783625856108 -0.00000000000000001361 
0.00000000000000000000 0.77106479726601284685 0.00000000000000004762 
-0.00000000000000010884 0.76256838938744475609 0.00000000000000009524 
-0.00000000000000005442 0.75453750964950949687 -0.00000000000000000680 
-0.00000000000000005442 0.74702275226777270500 0.00000000000000002721 
-0.00000000000000010884 0.74006808131138379636 0.00000000000000003401 
0.00000000000000000000 0.73371081003627014461 0.00000000000000010204 
0.00000000000000005442 0.72798166775321404565 0.00000000000000002721 
0.00000000000000000000 0.72290494339874622476 0.00000000000000010204 
0.00000000000000000000 0.71849869509702035675 0.00000000000000000680 
-0.00000000000000005442 0.71477501531478682129 0.00000000000000006122 
-0.00000000000000005442 0.71174034167698418951 0.00000000000000004082 
0.00000000000000005442 0.70939580409005054129 -0.00000000000000008843 
-0.00000000000000010884 0.70773759948132719533 -0.00000000000000004762 
0.00000000000000005442 0.70675738617808125941 -0.00000000000000001361 
-0.00000000000000005442 0.70644269069506593350 0.00000000000000008843 
0.00000000000000005442 0.70677732045555097251 -0.00000000000000000680 
-0.00000000000000016326 0.70774177672126159511 -0.00000000000000012925 
-0.00000000000000005442 0.70931366273874119077 -0.00000000000000002041 
0.00000000000000000000 0.71146808281316087363 0.00000000000000010204 
0.00000000000000005442 0.71417802868789004300 0.00000000000000003401 
0.00000000000000005442 0.71741475023362744068 0.00000000000000010884 
0.00000000000000010884 0.72114810803084739010 0.00000000000000006803 
0.00000000000000000000 0.72534690596150608322 0.00000000000000001361 
0.00000000000000010884 0.72997920240942537617 0.00000000000000000000 
-0.00000000000000005442 0.73501259910359995065 -0.00000000000000006803 
0.00000000000000005442 0.74041450702580535737 -0.00000000000000004762 
-0.00000000000000021768 0.74615238914484727228 0.00000000000000001361 
-0.00000000000000005442 0.75219398003673032527 -0.00000000000000004762 
0.00000000000000000000 0.75850748270531542783 -0.00000000000000001361 
0.00000000000000010884 0.76506174313445785007 0.00000000000000004082 
0.00000000000000000000 0.77182640328297291710 -0.00000000000000004082 
-0.00000000000000005442 0.77877203338105394081 -0.00000000000000014966 
0.00000000000000000000 0.78587024450392761743 0.00000000000000006462 
-0.00000000000000005442 0.79309378248845729953 0.00000000000000003401 
0.00000000000000000000 0.80041660432337136122 0.00000000000000007483 
0.00000000000000010884 0.80781393097945186632 -0.00000000000000001701 
0.00000000000000000000 0.81526212119494734232 0.00000000000000004422 
-0.00000000000000005442 0.82273799880496989445 0.00000000000000008503 
-0.00000000000000010884 0.83021769958645075249 0.00000000000000003061 
0.00000000000000005442 0.83767537947981773883 -0.00000000000000004082 
-0.00000000000000010884 0.84508203233746181926 -0.00000000000000006122 
-0.00000000000000016326 0.85240456293474897720 -0.00000000000000009864 
-0.00000000000000005442 0.85960518702863708551 0.00000000000000012585 
-0.00000000000000005442 0.86664117847478827628 -0.00000000000000011904 
0.00000000000000000000 0.87346494861415191480 -0.00000000000000004762 
0.00000000000000000000 0.88002442116102586045 -0.00000000000000005442 
0.00000000000000000000 0.88626365337203061312 0.00000000000000004422 
0.00000000000000000000 0.89212364875474525761 -0.00000000000000013520 
-0.00000000000000021768 0.89754330596001619114 -0.00000000000000012585 
-0.00000000000000005442 0.90246045122684181994 -0.00000000000000000298 
-0.00000000000000005442 0.90681290661668711994 0.00000000000000002381 
0.00000000000000000000 0.91053955238417538798 -0.00000000000000004369 
-0.00000000000000005442 0.91358134851743344473 0.00000000000000000500 
-0.00000000000000010884 0.91588228726336928798 0.00000000000000003125 
0.00000000000000005442 0.91739025499522774965 0.00000000000000005995 
0.00000000000000010884 0.91805778785844283085 0.00000000000000003614 
-0.00000000000000010884 0.91784271110846182840 0.00000000000000002211 
0.00000000000000000000 0.91670865685774882703 0.00000000000000001190 
-0.00000000000000005442 0.91462545905323111572 0.00000000000000010969 
0.00000000000000000000 0.91156942791896189426 -0.00000000000000009013 
-0.00000000000000005442 0.90752350885457744312 -0.00000000000000005867 
0.00000000000000000000 0.90247733292671472594 0.00000000000000000595 
0.00000000000000000000 0.89642716768596775179 -0.00000000000000005272 
-0.00000000000000016326 0.88937577814890400596 -0.00000000000000025510 
-0.00000000000000010884 0.88133220846718796082 -0.00000000000000007143 
0.00000000000000000000 0.87231149512665506762 0.00000000000000006632 
0.00000000000000000000 0.86233432253801201028 -0.00000000000000006973 
0.00000000000000010884 0.85142663165314724782 -0.00000000000000000850 
-0.00000000000000010884 0.83961919181747091123 -0.00000000000000001020 
0.00000000000000000000 0.82694714549457093433 -0.00000000000000002891 
-0.00000000000000010884 0.81344953481478343704 0.00000000000000001020 
0.00000000000000000000 0.79916881813872198137 0.00000000000000003061 
0.00000000000000005442 0.78415038402011849605 -0.00000000000000000255 
-0.00000000000000010884 0.76844206912447077240 0.00000000000000006207 
-0.00000000000000005442 0.75209368583164026845 -0.00000000000000002806 
0.00000000000000005442 0.73515656443841970180 -0.00000000000000004592 
-0.00000000000000010884 0.71768311409446738924 0.00000000000000003826 
-0.00000000000000005442 0.69972640586198509016 -0.00000000000000003996 
0.00000000000000000000 0.68133978059361266499 -0.00000000000000009949 
0.00000000000000005442 0.66257648367931198941 -0.00000000000000003826 
0.00000000000000000000 0.64348932812476189458 -0.00000000000000009609 
-0.00000000000000010884 0.62413038689246058688 0.00000000079581127323 
-0.00000000000000016326 0.60455071496256218566 0.00000006783503698280 
0.00000000000000005442 0.58480010115253788783 0.00000079354332800049 
-0.00000000000000005442 0.56492684937124870714 0.00000432183450708276 
0.00000000000000000000 0.54497758867153156537 0.00001563218221814505 
0.00000000000000000000 0.52499711120298542255 0.00004378847683638430 
0.00000000000000005442 0.50502823694998966175 0.00010297087485801300 
-0.00000000000000005442 0.48511170396561803519 0.00021319336253665020 
-0.00000000000000010884 0.46528608267638316143 0.00040066966310968108 
0.00000000000000000000 0.44558771273200764584 0.00069783110257254019 
-0.00000000000000005442 0.42605066080505377135 0.00114302666181771251 
0.00000000000000000000 0.40670669770372458451 0.00177995130151246072 
0.00000000000000000000 0.38758529314410933297 0.00265685660858696162 
0.00000000000000005442 0.36871475958273625118 0.00382560011958894700 
0.00000000000000000000 0.35011909044943195779 0.00534058806548235593 
-0.00000000000000005442 0.33182068562095923259 0.00725766209009653940 
0.00000000000000000000 0.31384005823326216467 0.00963297473206579588 
0.00000000000000000000 0.29619560223285429368 0.01252189188151478158 
0.00000000000000010884 0.27890365974765513046 0.01597795357764903237 
-0.00000000000000010884 0.26197859549458879513 0.02005191779135362048 
0.00000000000000000000 0.24543287697201507380 0.02479090550287833469 
0.00000000000000010884 0.22927715926849506767 0.03023765960801398645 
-0.00000000000000005442 0.21352037340454205205 0.03642992506360390181 
-0.00000000000000005442 0.19816981720972862147 0.04339995325751126731 
0.00000000000000000000 0.18323124782276808964 0.05117412986270192948 
0.00000000000000005442 0.16870897498614864651 0.05977272238549975053 
-0.00000000000000005442 0.15460595438881330477 0.06920974120124903650 
-0.00000000000000005442 0.14092388038968922670 0.07949290603165085067 
-0.00000000000000005442 0.12766327753108006049 0.09062370849552811580 
0.00000000000000000000 0.11482359032367289720 0.10259756049479873408 
0.00000000000000005442 0.10240327085389273887 0.11540401771638057749 
-0.00000000000000021768 0.09039986382937234555 0.12902706737744393251 
-0.00000000000000010884 0.07881008873922312752 0.14344546945846101127 
0.00000000000000005442 0.06762991886256886076 0.15863314100314132582 
-0.00000000000000005442 0.05685465691139088978 0.17455957356899809430 
0.00000000000000000000 0.04647900714215050938 0.19119027454473006000 
-0.00000000000000005442 0.03649714381500201998 0.20848722377389589111 
0.00000000000000000000 0.02690277591974607474 0.22640933770670618186 
-0.00000000000000005442 0.01768920812414338795 0.24491293411623793475 
-0.00000000000000005442 0.00884939793296029772 0.26395219123949209550 
-0.00000000000000005442 0.00037600907528756260 0.28347959601913247374 
-0.00000000000000010884 -0.00773853883653205423 0.30344637691375214716 
0.00000000000000000000 -0.01550202431045678148 0.32380291750166212417 
-0.00000000000000010884 -0.02292238155531381091 0.34449914781692192456 
-0.00000000000000005442 -0.03000766153618721066 0.36548491102048513701 
-0.00000000000000005442 -0.03676599638834254086 0.38671030361992242419 
0.00000000000000000000 -0.04320556706176228307 0.40812598800593818948 
-0.00000000000000005442 -0.04933457405897521963 0.42968347657206845680 
-0.00000000000000005442 -0.05516121112155211725 0.45133538712593285203 
0.00000000000000005442 -0.06069364171521635098 0.47303566968763877121 
0.00000000000000000000 -0.06593997815981444965 0.49473980510548082323 
0.00000000000000005442 -0.07090826324824681115 0.51640497620370018339 
0.00000000000000000000 -0.07560645419769583542 0.53799021241483457878 
0.00000000000000005442 -0.08004240877698616530 0.55945650904349419896 
0.00000000000000000000 -0.08422387345549066373 0.58076692246278349696 
0.00000000000000005442 -0.08815847342155280764 0.60188664266266211911 
0.00000000000000005442 -0.09185370432178478761 0.62278304465488698582 
-0.00000000000000016326 -0.09531692557671132826 0.64342572029536304612 
0.00000000000000000000 -0.09855535513294715055 0.66378649211510332151 
0.00000000000000000000 -0.10157606551732720201 0.68383941075889942418 
-0.00000000000000010884 -0.10438598106404460564 0.70356073744724167973 
0.00000000000000010884 -0.10699187619182014275 0.72292887894014956629 
-0.00000000000000010884 -0.10940037461434645727 0.74192399461731728394 
-0.00000000000000005442 -0.11161794937363053726 0.76052701484829265954 
0.00000000000000005442 -0.11365092359236776687 0.77871831980031602782 
-0.00000000000000010884 -0.11550547184802695266 0.79647639678413262310 
0.00000000000000000000 -0.11718762207787526697 0.81377667963578004251 
-0.00000000000000005442 -0.11870325793067458553 0.83059068331900098858 
-0.00000000000000005442 -0.12005812148719263721 0.84688548251756712304 
0.00000000000000005442 -0.12125781627795399753 0.86262353853116191527 
-0.00000000000000005442 -0.12230781053278617920 0.87776284953484828844 
-0.00000000000000010884 -0.12321344060265744524 0.89225738142150090582 
-0.00000000000000005442 -0.12397991450003864600 0.90605772702162234999 
-0.00000000000000005442 -0.12461317013831314793 0.91911193813281910625 
0.00000000000000000000 -0.12511782122286860264 0.93136647566155184030 
-0.00000000000000010884 -0.12549813053436661980 0.94276722687384240107 
0.00000000000000000000 -0.12575883300190077163 0.95326054419892858327 
0.00000000000000005442 -0.12590455297574068561 0.96279426643067533842 
-0.00000000000000010884 -0.12593980765096043917 0.97131869714623664258 
0.00000000000000000000 -0.12586901037280484594 0.97878767135180000381 
-0.00000000000000005442 -0.12569647380689188965 0.98516005967492314976 
0.00000000000000000000 -0.12542641296072465362 0.99040163188316565623 
0.00000000000000000000 -0.12506294804612666516 0.99448693081434014207 
0.00000000000000000000 -0.12461010717507002565 0.99740090601185249497 
-0.00000000000000005442 -0.12407182888397916276 0.99914016256321491749 
0.00000000000000000000 -0.12345196448395694133 0.99971375769514858600 
-0.00000000000000005442 -0.12275428023650329645 0.99914353191311500169 
0.00000000000000005442 -0.12198245935619235480 0.99746399814305641840 
-0.00000000000000005442 -0.12114010384345295923 0.99472183565329574950 
0.00000000000000005442 -0.12023073615206243681 0.99097504886403386948 
0.00000000000000000000 -0.11925666764684912657 0.98629185714973743870 
0.00000000000000000000 -0.11822218689147569182 0.98074938249424825631 
-0.00000000000000010884 -0.11713087334447311316 0.97443219899465760570 
0.00000000000000000000 -0.11598594083574502445 0.96743080297859551653 
-0.00000000000000010884 -0.11479052995476685117 0.95984005585037113217 
0.00000000000000000000 -0.11354770887178514127 0.95175764442378441021 
-0.00000000000000010884 -0.11226047405237728205 0.94328259595213781452 
0.00000000000000010884 -0.11093175087552926972 0.93451387769744143075 
0.00000000000000000000 -0.10956439416547936183 0.92554910394241374227 
-0.00000000000000010884 -0.10816118864756915641 0.91648336700157795320 
0.00000000000000005442 -0.10672484933824202824 0.90740820312372383327 
0.00000000000000000000 -0.10525802187915414554 0.89841069923793093199 
-0.00000000000000010884 -0.10376328282511501633 0.88957274228222893431 
0.00000000000000000000 -0.10224313989526680191 0.88097040934398640477 
-0.00000000000000005442 -0.10070003219654427573 0.87267349399217475359 
0.00000000000000000000 -0.09913633042805901352 0.86474516194002681857 
0.00000000000000008163 -0.09755433707459332249 0.85724172748191862503 
0.00000000000000005442 -0.09595628659692624629 0.85021254093744991209 
-0.00000000000000002721 -0.09434434562620107323 0.84369997654553718913 
-0.00000000000000013605 -0.09272061316903357220 0.83773950982076994531 
-0.00000000000000005442 -0.09108712082952262479 0.83235987325565641282 
0.00000000000000002721 -0.08944583305378489557 0.82758327937228681748 
0.00000000000000000000 -0.08779864740209900043 0.82342570044685980957 
0.00000000000000000000 -0.08614739485319378165 0.81989719470693955827 
0.00000000000000008163 -0.08449384014468613868 0.81700226939585340880 
0.00000000000000000000 -0.08283968215314459205 0.81474027177782260001 
0.00000000000000005442 -0.08118655431673690859 0.81310579989254327948 
0.00000000000000002721 -0.07953602510292225036 0.81208912563459767497 
0.00000000000000001361 -0.07788959852316182375 0.81167662351100822171 
0.00000000000000001361 -0.07624871469615836228 0.81185119920277437622 
0.00000000000000002721 -0.07461475046068614947 0.81259271280997547038 
-0.00000000000000005442 -0.07298902003865807842 0.81387839238451153978 
-0.00000000000000004082 -0.07137277574866815466 0.81568323404180431702 
0.00000000000000002721 -0.06976720876987925479 0.81798038558706220869 
-0.00000000000000002721 -0.06817344995577133415 0.82074151118908666991 
0.00000000000000005442 -0.06659257069694289599 0.82393713518277533758 
0.00000000000000002041 -0.06502558383185565172 0.82753696357942330142 
0.00000000000000008163 -0.06347344460413978373 0.83151018231172246775 
-0.00000000000000009524 -0.06193705166482751934 0.83582573163893358892 
-0.00000000000000010204 -0.06041724811765851466 0.84045255648866645792 
-0.00000000000000009183 -0.05891482260539920163 0.84535983281720894489 
0.00000000000000009524 -0.05743051043494640934 0.85051717033287932423 
-0.00000000000000002041 -0.05596499473882869669 0.85589479214927155493 
-0.00000000000000002721 -0.05451890767059389825 0.86146369212043349961 
0.00000000000000000340 -0.05309283163145649825 0.86719577076103460112 
0.00000000000000000085 -0.05168730052550288279 0.87306395077448439856 
0.00000000000000002795 -0.05030280104067002406 0.87904227330378503780 
-0.00000000000000007143 -0.04893977395268025998 0.88510597608658525548 
0.00000000000000003061 -0.04759861544907331710 0.89123155207833004710 
-0.00000000000000002041 -0.04627967847046868949 0.89739668655948123810 
-0.00000000000000001701 -0.04498327406619169466 0.90357970635081308330 
-0.00000000000000009524 -0.04370967276141460994 0.90975849253067353484 
-0.00000000000000002381 -0.04245910593299190988 0.91590919012288063428 
0.00000000000000010884 -0.04123176719121609407 0.92200498684794440774 
-0.00000000000000004082 -0.04002781376476820252 0.92801512470440561398 
-0.00000000000000002721 -0.03884736788620930803 0.93390422902527225890 
-0.00000000000000002041 -0.03769051817542472260 0.93963198389516056075 
-0.00000000000000005442 -0.03655732101852324223 0.94515314497854630016 
0.00000000000000002041 -0.03544780193977415533 0.95041785655182642323 
-0.00000000000000000680 -0.03436195696426989216 0.95537222539899024909 
0.00000000000000003401 -0.03330060859787759703 0.95995909749941665812 
0.00000000000000006122 -0.03226334941799709199 0.96411898197637369012 
0.00000000000000004762 -0.03124951305159622342 0.96779106893573518811 
-0.00000000000000004762 -0.03025899496957110829 0.97091429234208759258 
-0.00000000000000002041 -0.02929166753410057319 0.97342839499963051964 
0.00000000000000001361 -0.02834738127316239337 0.97527496652649847686 
-0.00000000000000004762 -0.02742596613212459900 0.97639858147925351339 
-0.00000000000000002721 -0.02652723270101047665 0.97674838332870017599 
-0.00000000000000002721 -0.02565097341615169349 0.97628003278283570499 
-0.00000000000000000680 -0.02479696373505388060 0.97495766864931809881 
-0.00000000000000004082 -0.02396496328342134080 0.97275562805324533588 
-0.00000000000000004762 -0.02315471697339796173 0.96965977944680059597 
0.00000000000000001361 -0.02236595609218425609 0.96566839930324332997 
-0.00000000000000001361 -0.02159839936031416469 0.96079257799606565538 
-0.00000000000000012245 -0.02085175395896392281 0.95505617737443171400 
-0.00000000000000002041 -0.02012571652577934550 0.94849538616918127598 
-0.00000000000000006803 -0.01941940111524229073 0.94115793295742866675 
0.00000000000000006803 -0.01873225570552234515 0.93310202263745267715 
0.00000000000000008163 -0.01806483104674565937 0.92439506330902465603 
-0.00000000000000006803 -0.01741678679837476915 0.91511224774492483380 
-0.00000000000000002721 -0.01678777678385262942 0.90533504853068380580 
-0.00000000000000005442 -0.01617744978161807234 0.89514967939456047130 
-0.00000000000000009524 -0.01558545028403744183 0.88464556796109650172 
-0.00000000000000004082 -0.01501141922440266119 0.87391387766117611946 
-0.00000000000000016326 -0.01445499467221002948 0.86304610919103130762 
0.00000000000000001361 -0.01391581249699643148 0.85213280498627919091 
0.00000000000000000000 -0.01339350700107262183 0.84126237382862012470 
0.00000000000000000000 -0.01288771152154542625 0.83052004702686255122 
-0.00000000000000005442 -0.01239805900207197747 0.81998697265342346263 
-0.00000000000000002721 -0.01192418253483815832 0.80973945007730474543 
0.00000000000000000000 -0.01146571587329158273 0.79984830349271762717 
0.00000000000000000000 -0.01102229391620433881 0.79037839025837730578 
-0.00000000000000010884 -0.01059355316367154021 0.78138823758356457105 
0.00000000000000008843 -0.01017913214568544333 0.77292979936406791541 
0.00000000000000002041 -0.00977867182394991444 0.76504832372180742173 
-0.00000000000000002721 -0.00939181596762997915 0.75778232097393205535 
-0.00000000000000016326 -0.00901821150374607777 0.75116362128989522251 
0.00000000000000000000 -0.00865750884294459212 0.74521751113128709143 
-0.00000000000000008843 -0.00830936218139023859 0.73996293765590448466 
-0.00000000000000003401 -0.00797342977953710737 0.73541277055644005411 
-0.00000000000000012245 -0.00764937421854605410 0.73157411125187188361 
0.00000000000000002721 -0.00733686263512019904 0.72844863991787411894 
-0.00000000000000002721 -0.00703556693553706539 0.72603299149787481337 
-0.00000000000000004762 -0.00674516398965725999 0.72431915255002798926 
-0.00000000000000008843 -0.00646533580568640822 0.72329487153293092749 
-0.00000000000000004762 -0.00619576968646924631 0.72294407589400133674 
-0.00000000000000002041 -0.00593615836808664751 0.72324729008228871852 
-0.00000000000000006803 -0.00568620014152213145 0.72418204934860053168 
-0.00000000000000012245 -0.00544559895815594375 0.72572330490959979787 
0.00000000000000004082 -0.00521406451983629036 0.72784381673083342612 
-0.00000000000000008843 -0.00499131235426494499 0.73051453082060346933 
0.00000000000000000680 -0.00477706387642588652 0.73370493851814722053 
-0.00000000000000006803 -0.00457104643676784460 0.73738341580325705849 
0.00000000000000002041 -0.00437299335684238327 0.74151754114914936178 
0.00000000000000000000 -0.00418264395308026813 0.74607439088596272381 
0.00000000000000002721 -0.00399974354937564919 0.75102081143957299947 
-0.00000000000000001361 -0.00382404347913019348 0.75632366816094853679 
0.00000000000000006122 -0.00365530107739075842 0.76195007076703280546 
-0.00000000000000002721 -0.00349327966369968870 0.76786757567759100773 
-0.00000000000000008843 -0.00333774851625478998 0.77404436575624790962 
-0.00000000000000002721 -0.00318848283796225327 0.78044940815097918474 
-0.00000000000000002041 -0.00304526371494116821 0.78705259108251945932 
0.00000000000000001361 -0.00290787806802607265 0.79382484055155588809 
0.00000000000000000000 -0.00277611859778798160 0.80073821803008649045 
-0.00000000000000002041 -0.00264978372358160670 0.80776600027188250053 
0.00000000000000003401 -0.00252867751710283625 0.81488273976238789764 
0.00000000000000002041 -0.00241260963092275243 0.82206420378351974243 
0.00000000000000000000 -0.00230139522244700951 0.82928682567991962582 
0.00000000000000006122 -0.00219485487372666956 0.83652661968617214594 
0.00000000000000001361 -0.00209281450753480425 0.84375789275229651221 
0.00000000000000003401 -0.00199510530009413666 0.85095202543182024701 
-0.00000000000000004082 -0.00190156359083515510 0.85807648557372884213 
-0.00000000000000004762 -0.00181203078953663275 0.86509415944056589076 
-0.00000000000000000680 -0.00172635328118587355 0.87196302911827250348 
0.00000000000000000680 -0.00164438232888301544 0.87863618725071290783 
0.00000000000000004082 -0.00156597397508858368 0.88506215587655701071 
-0.00000000000000003401 -0.00149127708075056341 0.89118546201560311371 
-0.00000000000000007823 -0.00142097295062873648 0.89694741592247784201 
-0.00000000000000001020 -0.00135374971263885267 0.90228703646775976210 
0.00000000000000001701 -0.00128948567947788015 0.90714207026936566347 
-0.00000000000000001020 -0.00122806321999011938 0.91145005571645010267 
0.00000000000000005442 -0.00116936866639480506 0.91514938897018571762 
-0.00000000000000000340 -0.00111329222108179967 0.91818037232905447276 
-0.00000000000000002041 -0.00105972786317660409 0.92048643422033560313 
-0.00000000000000004422 -0.00100857325506464933 0.92201583101772510709 
-0.00000000000000003061 -0.00095972964905413790 0.92272364690480024318 
0.00000000000000008163 -0.00091310179433987571 0.92257374702825989399 
-0.00000000000000006803 -0.00086859784442189095 0.92154045375795345940 
-0.00000000000000004082 -0.00082612926512185328 0.91960981634121985451 
0.00000000000000007143 -0.00078561074332315634 0.91678041678522992353 
0.00000000000000007823 -0.00074696009656044103 0.91306370563458294498 
0.00000000000000004082 -0.00071009818356152963 0.90848389545501240239 
-0.00000000000000001701 -0.00067494881584784640 0.90307746131281518842 
-0.00000000000000008843 -0.00064058404169755733 0.89689230955935073109 
0.00000000000000001020 -0.00060728180692916800 0.88998668132664349173 
0.00000000000000003401 -0.00057555621410646050 0.88242785730351602780 
-0.00000000000000008163 -0.00054533794929893244 0.87429072713862610033 
0.00000000000000006462 -0.00051656043800778597 0.86565628139617278869 
0.00000000000000005442 -0.00048915975449013798 0.85661007727337767914 
-0.00000000000000004592 -0.00046307453306944086 0.84724072194809763037 
0.00000000000000000680 -0.00043824588145127062 0.83763840995003346901 
-0.00000000000000003741 -0.00041461729605771951 0.82789354368672551931 
-0.00000000000000007143 -0.00039213457939344092 0.81809545944108652549 
-0.00000000000000001701 -0.00037074575944327803 0.80833127493980894140 
-0.00000000000000005442 -0.00035040101110711595 0.79868486905550206689 
0.00000000000000005612 -0.00033105257966429066 0.78923599938492228212 
-0.00000000000000001361 -0.00031265470626282014 0.78005955934060644541 
0.00000000000000002891 -0.00029516355542168963 0.77122497297773784375 
0.00000000000000000510 -0.00027853714453292538 0.76279572300931730577 
-0.00000000000000000340 -0.00026273527534683935 0.75482900528676821761 
-0.00000000000000006122 -0.00024771946741976400 0.74737550138036978886 
0.00000000000000007483 -0.00023345289350478219 0.74047925972205452805 
-0.00000000000000003741 -0.00021990031685847219 0.73417767501031661048 
0.00000000000000006803 -0.00020702803044062208 0.72850155516344650142 
0.00000000000000001361 -0.00019480379797779759 0.72347526498673875306 
-0.00000000000000005442 -0.00018319679685846544 0.71911693583972036148 
-0.00000000000000009013 -0.00017217756283553699 0.71543873090355492028 
0.00000000000000006803 -0.00016171793649665919 0.71244715611434328295 
0.00000000000000002381 -0.00015179101147501614 0.71014340740777159855 
-0.00000000000000008843 -0.00014237108436236976 0.70852374558198960575 
0.00000000000000001361 -0.00013343360629149709 0.70757989080088801170 
0.00000000000000001446 -0.00012495513615167137 0.70729942950548607694 
0.00000000000000009694 -0.00011691329540184124 0.70766622725728589582 
0.00000000000000000170 -0.00010928672444261061 0.70866084178807775551 
-0.00000000000000005017 -0.00010205504051319757 0.71026093126288725177 
0.00000000000000001616 -0.00009519879707371319 0.71244165346637189362 
0.00000000000000001361 -0.00008869944463650276 0.71517605229037928272 
-0.00000000000000000680 -0.00008253929300929896 0.71843542852595976278 
0.00000000000000005867 -0.00007670147491224214 0.72218969254317921802 
-0.00000000000000005782 -0.00007116991093259212 0.72640769697435969565 
0.00000000000000001531 -0.00006592927577910510 0.73105754799991962134 
-0.00000000000000000850 -0.00006096496580049854 0.73610689427090469916 
-0.00000000000000003826 -0.00005626306772984175 0.74152319288947843301 
-0.00000000000000007568 -0.00005181032862102280 0.74727395220968928502 
0.00000000000000006888 -0.00004759412694027236 0.75332695151781081666 
-0.00000000000000003231 -0.00004360244477786774 0.75965043790689712466 
0.00000000000000000638 -0.00003982384114458979 0.76621330087666428277 
0.00000000000000005612 -0.00003624742632108971 0.77298522537020131207 
-0.00000000000000003061 -0.00003286283722337101 0.77993682410633169422 
0.00000000000000002764 -0.00002966021375491124 0.78703975018362315463 
0.00000000000000004932 -0.00002663017610840403 0.79426679102201558358 
-0.00000000000000008546 -0.00002376380299158477 0.80159194477300088622 
0.00000000000000001531 -0.00002105261073980753 0.80899047316498462479 
0.00000000000000004337 -0.00001848853328878225 0.81643877529938047033 
-0.00000000000000003444 -0.00001606390297654436 0.82391371498651899685 
0.00000000000000001105 -0.00001377143214610326 0.83139146759324644709 
-0.00000000000000006803 -0.00001160419551930775 0.83884622826370391913 
-0.00000000000000006930 -0.00000955561331488176 0.84624902966366888357 
-0.00000000000000010289 -0.00000761943508389615 0.85356681498453579326 
0.00000000000000002593 -0.00000578972423669450 0.86076183799230365778 
-0.00000000000000000425 -0.00000406084323458307 0.86779141013277960592 
-0.00000000000000002508 -0.00000242743942176171 0.87460797990426408788 
-0.00000000000000002997 -0.00000088443147413260 0.88115950773002438279 
0.00000000000000001764 0.00000000000000012755 0.88739008711027056453 
0.00000000000000009481 0.00000000000000013265 0.89324075731265561995 
0.00000000000000002764 0.00000000000000005442 0.89865045224556572290 
-0.00000000000000005697 0.00000000000000010204 0.90355703288335398327 
-0.00000000000000004230 0.00000000000000021768 0.90789835548060149328 
0.00000000000000005059 0.00000000000000007483 0.91161333392257204444 
-0.00000000000000004996 -0.00000000000000001361 0.91464296124533661647 
-0.00000000000000002615 0.00000000000000009864 0.91693126214104414551 
0.00000000000000005740 0.00000000000000000000 0.91842615480584832710 
0.00000000000000005251 0.00000000000000023809 0.91908020656667732684 
-0.00000000000000002211 0.00000000000000011224 0.91885127320066173340 
0.00000000000000003359 0.00000000000000005782 0.91770301666456133294 
0.00000000000000001637 0.00000000000000005782 0.91560530005556950428 
0.00000000000000000510 0.00000000000000005442 0.91253446203837562667 
0.00000000000000009970 -0.00000000000000000680 0.90847347572914471936 
-0.00000000000000000861 -0.00000000000000002381 0.90341199917366810102 
0.00000000000000005825 0.00000000000000007483 0.89734632615231801900 
0.00000000000000008439 0.00000000000000010204 0.89027924715138972989 
0.00000000000000002296 0.00000000000000008163 0.88221983102290424394 
-0.00000000000000006367 0.00000000000000004762 0.87318313817576675984 
0.00000000000000000553 0.00000000000000009524 0.86318987615995612650 
0.00000000000000003901 0.00000000000000013265 0.85226600827775456093 
0.00000000000000000085 0.00000000000000006462 0.84044232543242902711 
0.00000000000000004294 0.00000000000000015646 0.82775399085065481941 
0.00000000000000004953 0.00000000000000015306 0.81424006663025649821 
0.00000000000000008195 0.00000000000000015306 0.79994303030429259049 
0.00000000000000000553 0.00000000000000012925 0.78490828880581309246 
0.00000000000000004252 0.00000000000000003061 0.76918369638974826152 
0.00000000000000006415 0.00000000000000013265 0.75281908224003235564 
0.00000000000000003683 0.00000000000000003401 0.73586579267794616221 
-0.00000000000000000106 0.00000000000000002721 0.71837625210501754314 
-0.00000000000000002142 0.00000000000000012245 0.70040354607081944938 
0.00000000000000008121 0.00000000000000010544 0.68200102916006999365 
0.00000000000000002732 0.00000000000000013265 0.66322195974976749788 
-0.00000000000000001897 0.00000000000000010204 0.64411916309880901110 
0.00000000017196889176 -0.00000000000000001020 0.62474472370123801390 
0.00000003528450844890 0.00000000000000010544 0.60514970736008666385 
0.00000052528313815941 0.00000000000000019047 0.58538391302083558898 
0.00000320431630379647 0.00000000000000007823 0.56549565404002211100 
0.00001238046057457878 0.00000000000000013265 0.54553156825303306121 
0.00003620937583829444 0.00000000000000002721 0.52553645594270737007 
0.00008777964825653622 0.00000000000000008503 0.50555314459371791802 
0.00018589781291134281 0.00000000000000014625 0.48562237914333789002 
0.00035552538187133586 0.00000000000000013605 0.46578273630346311851 
0.00062786457631136300 0.00000000000000014625 0.44607056142803042098 
0.00104011863213361090 0.00000000000000004762 0.42651992633060420435 
0.00163497030717202644 0.00000000000000008163 0.40716260641538953857 
0.00245983156263169080 0.00000000000000002891 0.38802948377136675662 
0.00356592067538045966 0.00000000000000002891 0.36914625469970346883 
0.00500722209195014149 0.00000000000000015476 0.35053784074141258742 
0.00683938056881390824 0.00000000000000009524 0.33222693556419324867 
0.00911857562741863817 0.00000000000000001701 0.31423405420526723253 
0.01190041588730039561 0.00000000000000014625 0.29657759209127404487 
0.01523888601308645910 0.00000000000000009013 0.27927389242715644491 
0.01918537223979303874 0.00000000000000003571 0.26233732062170889154 
0.02378778601295520462 0.00000000000000004932 0.24578034449782618087 
0.02908979938221422853 -0.00000000000000007823 0.22961361911891145504 
0.03513020052868561643 -0.00000000000000002041 0.21384607514807146833 
0.04194237324000225225 0.00000000000000006292 0.19848500974242933026 
0.04955390028260964891 0.00000000000000000170 0.18353617907015212785 
0.05798628743908452315 0.00000000000000006462 0.16900389162174220270 
0.06725480243896572730 0.00000000000000011224 0.15489110156906168991 
0.07736842106181802958 -0.00000000000000002041 0.14119950150487317608 
0.08832987127052942256 0.00000000000000023129 0.12792961397189098194 
0.10013576527748883904 0.00000000000000013605 0.11508088126307255972 
0.11277680889244788565 0.00000000000000009524 0.10265175304387957889 
0.12623807728674649176 0.00000000000000008163 0.09063977141224480172 
0.14049934637591912634 0.00000000000000019047 0.07904165307293614662 
0.15553546931779374529 0.00000000000000007823 0.06785336835976132908 
0.17131678809740152891 -0.00000000000000002721 0.05707021689165289041 
0.18780957078002058491 -0.00000000000000000340 0.04668689969709696741 
0.20497646572149966215 0.00000000000000011564 0.03669758768571296931 
0.22277696479785547012 0.00000000000000012925 0.02709598638612715354 
0.24116786852611951653 -0.00000000000000004422 0.01787539690576537416 
0.26010374677219855188 0.00000000000000005102 0.00902877310092690261 
0.27953738955995688364 0.00000000000000013605 0.00054877497468878089 
0.29942024329342609157 0.00000000000000007483 -0.00757218165402604587 
0.31970282846895076156 -0.00000000000000002381 -0.01534187914430314506 
0.34033513567704087865 0.00000000000000004762 -0.02276825560454132785 
0.36126699736816220154 0.00000000000000006803 -0.02985936593901158606 
0.38244843347822521373 0.00000000000000008843 -0.03662334625338043576 
0.40382996957555833406 -0.00000000000000009183 -0.04306838149126159671 
0.42536292670064212995 0.00000000000000016666 -0.04920267616447976389 
0.44699968252302235694 0.00000000000000008163 -0.05503442803240195941 
0.46869390383783904319 0.00000000000000002721 -0.06057180458028520870 
0.49040075076929745546 0.00000000000000003061 -0.06582292214287001342 
0.51207705334277420217 0.00000000000000005102 -0.07079582751731594570 
0.53368146133412341925 0.00000000000000001361 -0.07549848190880179000 
0.55517456850746249586 0.00000000000000011564 -0.07993874705262081493 
0.57651901251480786037 -0.00000000000000002041 -0.08412437335816703998 
0.59767955185596310930 0.00000000000000010204 -0.08806298992278153992 
0.61862312138868758016 -0.00000000000000006122 -0.09176209626679883435 
0.63931886794089320958 0.00000000000000000680 -0.09522905564525831201 
0.65973816761191095281 -0.00000000000000002721 -0.09847108979645505245 
0.67985462636199023301 0.00000000000000004082 -0.10149527499273841569 
0.69964406546034019208 0.00000000000000004082 -0.10430853926460173509 
0.71908447664810226652 0.00000000000000010884 -0.10691766067507980920 
0.73815572975252896626 -0.00000000000000004082 -0.10932926652767767373 
0.75683870110972284451 0.00000000000000005442 -0.11154983339745397353 
0.77511399125685909173 0.00000000000000006803 -0.11358568788137232697 
0.79296056686713922712 0.00000000000000006803 -0.11544300797059461883 
0.81035455219460605925 0.00000000000000001361 -0.11712782495393185556 
0.82726829899083997866 0.00000000000000004082 -0.11864602576817626090 
0.84366979477755477124 0.00000000000000006803 -0.12000335571744320806 
0.85952242132664513630 0.00000000000000003401 -0.12120542148994351006 
0.87478504323657657604 0.00000000000000000000 -0.12225769440672663857 
0.88941238663358912486 0.00000000000000021768 -0.12316551384288505766 
0.90335565712504073410 0.00000000000000007483 -0.12393522381782758057 
0.91656334171907694053 -0.00000000000000000680 -0.12457098967345160700 
0.92898213957355069148 0.00000000000000004762 -0.12507748922691214188 
0.94055796966182236840 -0.00000000000000010204 -0.12545957399640836338 
0.95123700861153592800 0.00000000000000008163 -0.12572198134473136499 
0.96096671825604618178 0.00000000000000011224 -0.12586933800018385021 
0.96969684585846194214 0.00000000000000004762 -0.12590616347994504354 
0.97738058880032929743 -0.00000000000000001701 -0.12583687339530225113 
0.98397623631495800822 -0.00000000000000000680 -0.12566578262182689918 
0.98944910664574658998 0.00000000000000002551 -0.12539710832097122895 
0.99377343677503660047 0.00000000000000004422 -0.12503497280268305314 
0.99693399616560141041 0.00000000000000005782 -0.12458340622150845811 
0.99892729614935416027 0.00000000000000017176 -0.12404634910125257596 
0.99976233887595133965 0.00000000000000000595 -0.12342765468564266540 
0.99946090031691370292 0.00000000000000000553 -0.12273109111455310360 
0.99805737573629493831 0.00000000000000009502 -0.12196034342725779742 
0.99559823731441055017 0.00000000000000003082 -0.12111901539584314647 
0.99214116545371155986 0.00000000000000000935 -0.12021005818983156177 
0.98775392024120134415 0.00000000000000001446 -0.11923668746016045927 
0.98251301957878656168 0.00000000000000008928 -0.11820315264464495431 
0.97650228716676157337 0.00000000000000008843 -0.11711274345062387681 
0.96981132802334413245 0.00000000000000000340 -0.11596867535162896923 
0.96253398244410692808 0.00000000000000003231 -0.11477409052635721698 
0.95476680191912277618 0.00000000000000013605 -0.11353205868106321097 
0.94660758302035197254 0.00000000000000010544 -0.11224557776532097242 
0.93815398799197446955 -0.00000000000000001361 -0.11091757459131385000 
0.92950227395515905293 0.00000000000000005782 -0.10955090536689712777 
0.92074614642357510697 0.00000000000000006462 -0.10814835615266843449 
0.91197574729896802026 0.00000000000000012245 -0.10671264325318709221 
0.90327678271091149664 -0.00000000000000001020 -0.10524641355230461570 
0.89472979197951318930 0.00000000000000007143 -0.10375224480231989843 
0.88640955558737244413 0.00000000000000009183 -0.10223264587636529677 
0.87838463730354165993 0.00000000000000001701 -0.10069005699306812773 
0.87071705345295768996 0.00000000000000003061 -0.09912684992212283941 
0.86346206070933484433 0.00000000000000005442 -0.09754532817896474639 
0.85666805264501233452 0.00000000000000004762 -0.09594772721625989542 
0.85037655453535743177 0.00000000000000001020 -0.09433621461942399977 
0.84462230552788042370 0.00000000000000002721 -0.09271289031286474025 
0.83943341719059638706 0.00000000000000002041 -0.09107978678311090537 
0.83483159759816238932 0.00000000000000006462 -0.08943886932444863880 
0.83083243045050070297 0.00000000000000006122 -0.08779203631214613224 
0.82744569920462396340 -0.00000000000000004422 -0.08614111950780573013 
0.82467574679886312961 0.00000000000000002381 -0.08448788440084391282 
0.82252186222719603226 0.00000000000000009864 -0.08283403058957809761 
0.82097868595199163799 0.00000000000000020067 -0.08118119220487395038 
0.82003662690274525815 0.00000000000000000340 -0.07953093837881958228 
0.81968228457660063935 0.00000000000000006803 -0.07788477376039276701 
0.81989887051766785486 -0.00000000000000002041 -0.07624413907963673021 
0.82066662419345182133 0.00000000000000003401 -0.07461041176140542630 
0.82196321899811219946 0.00000000000000000000 -0.07298490658932102471 
0.82376415478617304178 -0.00000000000000002721 -0.07136887642018598099 
0.82604313397125006535 0.00000000000000014285 -0.06976351294871863118 
0.82877241880870733404 0.00000000000000006803 -0.06816994752212543474 
0.83192316801676990945 0.00000000000000003401 -0.06658925200370353903 
0.83546575137664902400 -0.00000000000000011564 -0.06502243968436803578 
0.83937004138884130366 0.00000000000000001361 -0.06347046624071293885 
0.84360568145098180359 0.00000000000000002041 -0.06193423073798230705 
0.84814233036407615796 0.00000000000000008163 -0.06041457667608986226 
0.85294988327082088553 -0.00000000000000002721 -0.05891229307663119197 
0.85799866938452518106 0.00000000000000002041 -0.05742811560866032533 
0.86325962708265657763 0.00000000000000000000 -0.05596272775084157325 
0.86870445711819022083 -0.00000000000000000680 -0.05451676198746793767 
0.87430575484772077299 0.00000000000000004422 -0.05309080103572023923 
0.88003712249074905749 0.00000000000000008843 -0.05168537910146094733 
0.88587326252261489046 0.00000000000000019387 -0.05030098316078672471 
0.89179005336648797808 0.00000000000000008163 -0.04893805426451427326 
0.89776460138339320149 0.00000000000000002381 -0.04759698886274607577 
0.90377511370600915885 0.00000000000000000000 -0.04627814014664891062 
0.90980022453327624721 0.00000000000000002041 -0.04498181940457651046 
0.91581784088345130623 0.00000000000000007143 -0.04370829738969172346 
0.92180384969065953804 -0.00000000000000003061 -0.04245780569626440848 
0.92773093441672138670 0.00000000000000006803 -0.04123053814187385008 
0.93356764693361860008 0.00000000000000002721 -0.04002665215278947836 
0.93927780647921244039 -0.00000000000000003741 -0.03884627014987719618 
0.94482024571268419244 -0.00000000000000007483 -0.03768948093244248176 
0.95014888909434547237 0.00000000000000006122 -0.03655634105751428414 
0.95521312683369408170 -0.00000000000000003061 -0.03544687621215125706 
0.95995843519529511223 -0.00000000000000003401 -0.03436137071570690565 
0.96432718842976294926 0.00000000000000007823 -0.03330060859787755539 
0.96825960698084700962 0.00000000000000003401 -0.03226334941799707118 
0.97169478934310493656 0.00000000000000014285 -0.03124951305159628934 
0.97457177981126275057 -0.00000000000000007143 -0.03025899496957114992 
0.97683063064319752833 -0.00000000000000007823 -0.02929166753410048993 
0.97841345775244104033 0.00000000000000006462 -0.02834738127316254602 
0.97926574364927232441 0.00000000000000002381 -0.02742596613212458165 
0.97933812827776456356 0.00000000000000004082 -0.02652723270101051828 
0.97858842443734395111 0.00000000000000004422 -0.02565097341615168308 
0.97698353093165990479 0.00000000000000004082 -0.02479696373505381121 
0.97450103591736958464 0.00000000000000004422 -0.02396496328342140672 
0.97113039726305894206 -0.00000000000000004762 -0.02315471697339796173 
0.96687365447532602758 0.00000000000000001361 -0.02236595609218428385 
0.96174567387729337220 0.00000000000000002721 -0.02159839936031414040 
0.95577396004184755895 -0.00000000000000004762 -0.02085175395896390546 
0.94899808583562472730 -0.00000000000000008503 -0.02012571652577926570 
0.94146880388101761294 -0.00000000000000007483 -0.01941940111524226298 
0.93324690620976424871 0.00000000000000000000 -0.01873225570552236943 
0.92440189825657159695 0.00000000000000000340 -0.01806483104674577386 
0.91501054959364236385 -0.00000000000000022788 -0.01741678679837485935 
0.90515537806316082037 -0.00000000000000005442 -0.01678777678385263983 
0.89492311707603067195 -0.00000000000000004762 -0.01617744978161808969 
0.88440320844353559337 0.00000000000000002381 -0.01558545028403741928 
0.87368635565254126885 -0.00000000000000014625 -0.01501141922440255190 
0.86286316530651996359 -0.00000000000000017346 -0.01445499467221001040 
0.85202289775017148177 -0.00000000000000000680 -0.01391581249699637077 
0.84125234180939190143 -0.00000000000000000850 -0.01339350700107256459 
0.83063482318368764279 -0.00000000000000006973 -0.01288771152154531696 
0.82024935135188159485 0.00000000000000000680 -0.01239805900207192717 
0.81016990588768367232 -0.00000000000000004592 -0.01192418253483828496 
0.80046485979961135016 0.00000000000000013775 -0.01146571587329150294 
0.79119653486425334243 -0.00000000000000003231 -0.01102229391620427115 
0.78242088185767888486 -0.00000000000000005272 -0.01059355316367163562 
0.77418727704639611620 -0.00000000000000001190 -0.01017913214568537915 
0.76653842521432169477 0.00000000000000000170 -0.00977867182394985372 
0.75951035881415251971 -0.00000000000000010034 -0.00939181596763010926 
0.75313252248115147847 -0.00000000000000007993 -0.00901821150374607777 
0.74742793207919167031 -0.00000000000000001361 -0.00865750884294467365 
0.74241339761183322565 -0.00000000000000001190 -0.00830936218139033574 
0.73809979967902472620 0.00000000000000004932 -0.00797342977953714206 
0.73449240965140749626 -0.00000000000000008163 -0.00764937421854614951 
0.73159124433289723921 -0.00000000000000003061 -0.00733686263512017215 
0.72939144655667476069 0.00000000000000005442 -0.00703556693553706192 
0.72788368388296842415 -0.00000000000000000340 -0.00674516398965726259 
0.72705455831629450802 0.00000000000000009353 -0.00646533580568636398 
0.72688702071618371825 -0.00000000000000001190 -0.00619576968646932437 
0.72736078432346640277 0.00000000000000013775 -0.00593615836808650439 
0.72845273255152742653 -0.00000000000000005782 -0.00568620014152195537 
0.73013731688900374017 -0.00000000000000004932 -0.00544559895815592034 
0.73238694141993498921 0.00000000000000003061 -0.00521406451983611342 
0.73517233108422985755 0.00000000000000006462 -0.00499131235426489381 
0.73846288137204429969 -0.00000000000000008503 -0.00477706387642594116 
0.74222698766835737416 -0.00000000000000004082 -0.00457104643676775960 
0.74643235293790977103 -0.00000000000000004847 -0.00437299335684243097 
0.75104627286602920755 0.00000000000000001531 -0.00418264395308025946 
0.75603589794877457120 -0.00000000000000002976 -0.00399974354937564398 
0.76136847235794857802 -0.00000000000000007398 -0.00382404347913023251 
0.76701154969505702663 -0.00000000000000007313 -0.00365530107739073977 
0.77293318599570592919 0.00000000000000003316 -0.00349327966369961714 
0.77910211055500822042 -0.00000000000000013265 -0.00333774851625477480 
0.78548787531815844609 -0.00000000000000009098 -0.00318848283796209714 
0.79206098372145483655 -0.00000000000000008418 -0.00304526371494115954 
0.79879299998056740861 0.00000000000000000255 -0.00290787806802608479 
0.80565663990779423642 -0.00000000000000004677 -0.00277611859778790831 
0.81262584438018958810 0.00000000000000004167 -0.00264978372358164313 
0.81967581993160942844 0.00000000000000007823 -0.00252867751710289697 
0.82678282888254717165 0.00000000000000011394 -0.00241260963092282746 
0.83392339709951845972 -0.00000000000000005357 -0.00230139522244710319 
0.84107310763191223124 0.00000000000000006037 -0.00219485487372677148 
0.84820531503500140591 0.00000000000000002976 -0.00209281450753496471 
0.85529000552603107188 -0.00000000000000002849 -0.00199510530009410587 
0.86229293185553235190 0.00000000000000004677 -0.00190156359083527003 
0.86917508273449251011 0.00000000000000001403 -0.00181203078953660890 
0.87589249865828266994 0.00000000000000001913 -0.00172635328118587506 
0.88239641403474899928 0.00000000000000010246 -0.00164438232888313601 
0.88863368568924661073 -0.00000000000000004167 -0.00156597397508859387 
0.89454745694080595175 -0.00000000000000000340 -0.00149127708075048361 
0.90007800205002475025 0.00000000000000004634 -0.00142097295062880804 
0.90516369600473234325 0.00000000000000003061 -0.00135374971263869785 
0.90974205784824613286 -0.00000000000000003444 -0.00128948567947791918 
0.91375082093513004811 -0.00000000000000011309 -0.00122806321999012957 
0.91712899243330536780 -0.00000000000000002508 -0.00116936866639479639 
0.91981797170273360553 0.00000000000000002976 -0.00111329222108179815 
0.92176306833732379875 -0.00000000000000010969 -0.00105972786317665851 
0.92291544934388036747 0.00000000000000008291 -0.00100857325506463393 
0.92323416880463260448 -0.00000000000000012202 -0.00095972964905428415 
0.92268800006259987789 0.00000000000000010161 -0.00091310179433989446 
0.92125690342049837422 0.00000000000000001573 -0.00086859784442189778 
0.91893304538412656779 -0.00000000000000007143 -0.00082612926512170529 
0.91572134446786390694 0.00000000000000000446 -0.00078561074332325165 
0.91163955898919957210 0.00000000000000009885 -0.00074696009656046141 
0.90671795850978686993 -0.00000000000000004570 -0.00071009818356149222 
0.90099863614543573842 0.00000000000000002168 -0.00067494881584777495 
0.89453452665403931920 0.00000000000000011756 -0.00064058404169772733 
0.88738819721367290239 0.00000000000000006632 -0.00060728180692909992 
0.87963047583638576121 0.00000000000000003593 -0.00057555621410651492 
0.87133897775022040033 0.00000000000000011564 -0.00054533794929909746 
0.86259658383254322889 0.00000000000000001573 -0.00051656043800773154 
0.85348991805042928593 0.00000000000000003508 -0.00048915975449017202 
0.84410786341736265825 -0.00000000000000004549 -0.00046307453306971381 
0.83454014861077630005 -0.00000000000000003678 -0.00043824588145133101 
0.82487603038946610834 0.00000000000000010416 -0.00041461729605781730 
0.81520309048547712205 0.00000000000000004400 -0.00039213457939352598 
0.80560615983039451926 -0.00000000000000000893 -0.00037074575944334519 
0.79616637786471422533 -0.00000000000000008578 -0.00035040101110718139 
0.78696039028414555005 0.00000000000000013488 -0.00033105257966438927 
0.77805968488211818546 -0.00000000000000001998 -0.00031265470626295789 
0.76953006211705088369 0.00000000000000003720 -0.00029516355542184695 
0.76143123461646866623 -0.00000000000000000085 -0.00027853714453294240 
0.75381654797038510907 -0.00000000000000001361 -0.00026273527534703494 
0.74673281380221956383 0.00000000000000005527 -0.00024771946741982098 
0.74022024517494633411 -0.00000000000000005442 -0.00023345289350482131 
0.73431248383253466816 0.00000000000000015986 -0.00021990031685841522 
0.72903670853445512456 0.00000000000000008971 -0.00020702803044073093 
0.72441381376041735773 0.00000000000000003369 -0.00019480379797784690 
0.72045864829447958666 0.00000000000000005123 -0.00018319679685869760 
0.71718030359806628216 0.00000000000000010618 -0.00017217756283538732 
0.71458244241100099536 0.00000000000000003167 -0.00016171793649667196 
0.71266365864407721364 0.00000000000000011490 -0.00015179101147509949 
0.71141786031630904752 -0.00000000000000005564 -0.00014237108436238296 
0.71083466801954586778 0.00000000000000007042 -0.00013343360629143543 
0.71089982214140912120 0.00000000000000010177 -0.00012495513615177426 
0.71159559282699602623 -0.00000000000000001121 -0.00011691329540179064 
0.71290118739631946898 0.00000000000000001398 -0.00010928672444272285 
0.71479315064675408298 0.00000000000000008535 -0.00010205504051323244 
0.71724575414919600203 0.00000000000000007961 -0.00009519879707382161 
0.72023137128680236874 0.00000000000000013015 -0.00008869944463650745 
0.72372083538157727656 -0.00000000000000012856 -0.00008253929300932957 
0.72768377880386980738 0.00000000000000009460 -0.00007670147491214987 
0.73208895146156072187 0.00000000000000007403 -0.00007116991093248582 
0.73690451751900865052 0.00000000000000009253 -0.00006592927577922628 
0.74209832960124011425 -0.00000000000000000165 -0.00006096496580057549 
0.74763818009774263285 -0.00000000000000000553 -0.00005626306772973844 
0.75349202949435079013 0.00000000000000007640 -0.00005181032862107467 
0.75962821193346496962 0.00000000000000004119 -0.00004759412694046793 
0.76601561843472210089 0.00000000000000006497 -0.00004360244477795703 
0.77262385840308067664 0.00000000000000000776 -0.00003982384114461913 
0.77942340021196476751 0.00000000000000010222 -0.00003624742632108992 
0.78638569177858008707 0.00000000000000003696 -0.00003286283722347751 
0.79348326214969377990 0.00000000000000009311 -0.00002966021375484746 
0.80068980519192833878 0.00000000000000000327 -0.00002663017610835132 
0.80798024573790250269 0.00000000000000000675 -0.00002376380299171444 
0.81533072710410203765 0.00000000000000001958 -0.00002105261073989171 
0.82271818576617672392 0.00000000000000001961 -0.00001848853328869636 
0.83011935067429976076 0.00000000000000002987 -0.00001606390297652778 
0.83750947101455064381 0.00000000000000010953 -0.00001377143214618148 
0.84486106835265606385 0.00000000000000010452 -0.00001160419551937705 
0.85214289608019311295 -0.00000000000000003174 -0.00000955561331492342 
0.85931920452862886606 0.00000000000000007576 -0.00000761943508380240 
0.86634935016279679409 0.00000000000000006541 -0.00000578972423683523 
0.87318774622900097171 -0.00000000000000000857 -0.00000406084323480267 
0.87978412556583496240 -0.00000000000000004768 -0.00000242743942192625 
0.88608407037065295420 0.00000000000000004463 -0.00000088443147416650 
0.89202975569407283452 0.00000000000000009112 0.00000000000000000861 
0.89756085106983718447 0.00000000000000008722 0.00000000000000005633 
0.90261552623940111140 0.00000000000000001961 -0.00000000000000004942 
0.90713151106501210830 -0.00000000000000002786 0.00000000000000006005 
0.91104716543056918354 0.00000000000000015035 0.00000000000000005453 
0.91430252145285806353 -0.00000000000000005377 -0.00000000000000005336 
0.91684026711743715765 -0.00000000000000002833 -0.00000000000000001339 
0.91860664712428496959 0.00000000000000007548 -0.00000000000000003880 
0.91955226301344061834 0.00000000000000006416 -0.00000000000000003104 
0.91963276037117891448 -0.00000000000000010130 0.00000000000000001329 
0.91880939599607169832 -0.00000000000000007020 -0.00000000000000016252 
0.91704948228893023998 -0.00000000000000003911 0.00000000000000005899 
0.91432670981773755958 0.00000000000000006380 -0.00000000000000002700 
0.91062135202262561862 -0.00000000000000000787 -0.00000000000000000787 
0.90592035840981854911 -0.00000000000000006001 -0.00000000000000003524 
0.90021734439211209544 0.00000000000000002296 -0.00000000000000003741 
0.89351248722820009185 -0.00000000000000001907 -0.00000000000000001217 
0.88581233835789874309 0.00000000000000001548 0.00000000000000004592 
0.87712956288848964448 0.00000000000000003839 -0.00000000000000000239 
0.86748261712015917180 -0.00000000000000006768 -0.00000000000000004193 
0.85689537486309519387 0.00000000000000002257 -0.00000000000000008333 
0.84539671294787199773 0.00000000000000003597 0.00000000000000000505 
0.83302006581175236377 0.00000000000000003145 -0.00000000000000000308 
0.81980295839861827556 0.00000000000000006004 0.00000000000000007276 
0.80578652587616517167 0.00000000000000015777 -0.00000000000000002152 
0.79101502788250210862 0.00000000000000001302 0.00000000000000001095 
0.77553536419215751696 0.00000000000000011159 -0.00000000000000005346 
0.75939659786108204553 0.00000000000000000344 0.00000000000000005022 
0.74264949108981803683 -0.00000000000000003577 -0.00000000000000008075 
0.72534605824815023833 -0.00000000000000002315 -0.00000000000000004408 
0.70753913974460935776 -0.00000000000000004702 -0.00000000000000001347 
0.68928199970866144142 -0.00000000000000001702 0.00000000000000003981 
0.67062794978829787240 0.00000000000000004775 0.00000000000000005843 
0.65163000075498578312 -0.00000000000000008664 0.00000000000000003189 
0.63234054305369502558 -0.00000000000000012711 0.00000000002093751188 
0.61281105693869164508 -0.00000000000000008532 0.00000001685637619792 
0.59309185239545902935 0.00000000000000006530 0.00000033634540471227 
0.57323183866405147402 0.00000000000000001531 0.00000233428472430976 
0.55327832284715339206 -0.00000000000000011365 0.00000969893327382466 
0.53327683680441151370 0.00000000000000005223 0.00002972148175435911 
0.51327099129999376181 0.00000000000000009749 0.00007443049110408806 
0.49330235617944057092 -0.00000000000000002060 0.00016144253056437426 
0.47341036520106433150 -0.00000000000000003739 0.00031447024276967531 
0.45363224403282026431 -0.00000000000000000398 0.00056347701317914826 
0.43400295984403541860 0.00000000000000002175 0.00094449930095447511 
0.41455519086909797810 -0.00000000000000001314 0.00149917746657544405 
0.39531931429373484699 0.00000000000000001676 0.00227404675184992699 
0.37632454386093006082 0.00000000000000003144 0.00331964440246162226 
0.35759576252569819088 0.00000000000000006028 0.00468948869844447273 
0.33915624298251290103 -0.00000000000000005367 0.00643898236037204318 
0.32102735014169792027 -0.00000000000000001302 0.00862428756110628775 
0.30322830492984975681 -0.00000000000000003302 0.01130121344454053552 
0.28577624846603549846 0.00000000000000007577 0.01452415025944747001 
0.26868631380018076493 0.00000000000000000014 0.01834507740721066926 
0.25197170392913753600 0.00000000000000000093 0.02281266618787181413 
0.23564377488828652796 0.00000000000000008808 0.02797149201411087277 
0.21971212280110730131 0.00000000000000001601 0.03386136547076883802 
0.20418467385477040432 0.00000000000000003127 0.04051678689075528805 
0.18906777625532378284 0.00000000000000003745 0.04796652511420649440 
0.17436629330061206855 0.00000000000000003786 0.05623331778211729942 
0.16008369679185899259 -0.00000000000000003443 0.06533368785179394234 
0.14622216008525945607 0.00000000000000001817 0.07527786895847873860 
0.13278265016240628493 -0.00000000000000001797 0.08606983072599846962 
0.11976501817255010007 -0.00000000000000001622 0.09770739408601468445 
0.10716808797019150568 0.00000000000000000584 0.11018242603633128518 
0.09498974223813359818 -0.00000000000000000261 0.12348110299144736401 
0.08322700584869793805 -0.00000000000000014588 0.13758423189403243270 
0.07187612617424767036 -0.00000000000000001518 0.15246761850960904860 
0.06093265011241447149 0.00000000000000009510 0.16810247276875037170 
0.05039149764151278771 -0.00000000000000008254 0.18445584160714378896 
0.04024703176758742673 -0.00000000000000006444 0.20149106044492778866 
0.03049312476647117812 0.00000000000000005908 0.21916821520892945663 
0.02112322066223389430 -0.00000000000000002920 0.23744460760599481186 
0.01213039391762401296 -0.00000000000000004241 0.25627521717828805059 
0.00350740434269314208 0.00000000000000000344 0.27561315449229811803 
-0.00475325174507932029 -0.00000000000000009144 0.29541010061620176508 
-0.01265929405200079232 0.00000000000000004012 0.31561672881251029432 
-0.02021861445281362621 -0.00000000000000000122 0.33618310510488630394 
-0.02743923665302647891 -0.00000000000000007182 0.35705906506258577870 
-0.03432927925805808606 -0.00000000000000002864 0.37819456477836560504 
-0.04089692212571074958 0.00000000000000001462 0.39954000459294564118 
-0.04715037586822523608 -0.00000000000000006832 0.42104652463993480493 
-0.05309785436203433295 -0.00000000000000008553 0.44266627174946832080 
-0.05874755011717446018 -0.00000000000000012560 0.46435263765772027966 
-0.06410761235393659663 -0.00000000000000000436 0.48606046882476405813 
-0.06918612763158225876 -0.00000000000000015919 0.50774624846751192919 
-0.07399110287265084351 -0.00000000000000007185 0.52936825167055456820 
-0.07853045062638487617 0.00000000000000003119 0.55088667464901375226 
-0.08281197641596731163 -0.00000000000000007828 0.57226373940743180402 
-0.08684336801642797421 -0.00000000000000009779 0.59346377517088755305 
-0.09063218651315756158 0.00000000000000000947 0.61445327806254046443 
-0.09418585899478353063 -0.00000000000000006979 0.63520095056923564503 
-0.09751167273865954388 0.00000000000000001206 0.65567772237710242322 
-0.10061677075224249867 -0.00000000000000012379 0.67585675417558976896 
-0.10350814853911788349 -0.00000000000000014251 0.69571342602358055007 
-0.10619265196427733755 -0.00000000000000000838 0.71522530464108124981 
-0.10867697609937136682 -0.00000000000000001658 0.73437193447715720662 
-0.11096766493498640138 -0.00000000000000006235 0.75313408542068693841 
-0.11307111185345614102 -0.00000000000000009340 0.77149252334989071311 
-0.11499356076225238088 -0.00000000000000005920 0.78942664555694985751 
-0.11674110779455088016 0.00000000000000001319 0.80691322932775888521 
-0.11831970349009729437 -0.00000000000000013732 0.82392543950143526388 
-0.11973515537594173197 -0.00000000000000018941 0.84043216684624832968 
-0.12099313087295190949 0.00000000000000004250 0.85639771728100821946 
-0.12209916046020666269 0.00000000000000000045 0.87178183714112800207 
-0.12305864103538741161 -0.00000000000000005325 0.88654003768315814416 
-0.12387683941510779784 -0.00000000000000015412 0.90062416954581347994 
-0.12455975055350385072 -0.00000000000000007276 0.91398319234465719152 
-0.12511204342961360081 0.00000000000000001405 0.92656408394559330866 
-0.12553803434203772427 -0.00000000000000007971 0.93831283667259879344 
-0.12584251000669977039 -0.00000000000000002233 0.94917549256094135846 
-0.12603014486560959462 -0.00000000000000003601 0.95909917588833515367 
-0.12610550455624860988 -0.00000000000000010135 0.96803310458395719351 
-0.12607304927086385171 -0.00000000000000007122 0.97592977097210908966 
-0.12593713698730119033 -0.00000000000000007122 0.98274660317283679678 
-0.12570202655650364321 -0.00000000000000008125 0.98844792439341999657 
-0.12537188063503759694 -0.00000000000000001003 0.99300686624027012517 
-0.12495076845397412590 -0.00000000000000006009 0.99640700661624903578 
-0.12444266841817011593 -0.00000000000000005119 0.99864360310041644375 
-0.12385147053244825732 0.00000000000000008335 0.99972436511989393182 
-0.12318097865340207897 0.00000000000000002364 0.99966975893243759099 
-0.12243491256753315233 -0.00000000000000002721 0.99851287346865114092 
-0.12161690989819512465 -0.00000000000000005442 0.99629889646096148059 
-0.12073052784537115223 0.00000000000000001484 0.99308426221893597585 
-0.11977839013487275033 0.00000000000000003250 0.98893553743305262493 
-0.11876424618786958487 -0.00000000000000002281 0.98392811149101511159 
-0.11769200273978806803 -0.00000000000000009283 0.97814475451806714990 
-0.11656490548596273871 0.00000000000000000083 0.97167410089350680913 
-0.11538612632456909934 0.00000000000000009613 0.96460910925007703476 
-0.11415876423049255151 -0.00000000000000010932 0.95704554260201935012 
-0.11288584601852739986 -0.00000000000000006239 0.94908050476007588259 
-0.11157032700597870056 0.00000000000000001484 0.94081106192335950400 
-0.11021509158488083935 0.00000000000000012932 0.93233297152291427778 
-0.10882295371406798534 -0.00000000000000010053 0.92373953417824472556 
-0.10739665734128095442 -0.00000000000000002673 0.91512057909912003506 
-0.10593887676533682296 0.00000000000000006734 0.90656158845484591247 
-0.10445221694817852232 0.00000000000000008294 0.89814296214069799795 
-0.10293921378632871211 -0.00000000000000011255 0.88993942096988121193 
-0.10140233435093982950 -0.00000000000000001793 0.88201954356577083605 
-0.09984397710523378044 -0.00000000000000004920 0.87444543006908836968 
-0.09826647210769845486 0.00000000000000007325 0.86727248414790791831 
-0.09667208120894831003 -0.00000000000000011496 0.86054930364250636909 
-0.09506299824965494527 0.00000000000000004934 0.85431766942988029978 
-0.09344134926645127071 0.00000000000000005855 0.84861262169430329294 
-0.09180919271218165867 0.00000000000000006768 0.84346261268411726331 
-0.09016851969633214725 -0.00000000000000000151 0.83888972516894300124 
-0.08852125425093905486 0.00000000000000001642 0.83490994613828828363 
-0.08686925362672499873 -0.00000000000000000364 0.83153348575986851809 
-0.08521430862368019332 -0.00000000000000006652 0.82876513220645331437 
-0.08355814395977229081 -0.00000000000000006569 0.82660463363131153613 
-0.08190241868094809419 0.00000000000000002604 0.82504709929643860189 
-0.08024872661508479499 0.00000000000000011248 0.82408341261119300025 
-0.07859859687205764112 0.00000000000000003965 0.82370064960208622118 
-0.07695349439161661143 0.00000000000000001045 0.82388249709121219588 
-0.07531482054031395090 0.00000000000000003965 0.82460966559827364453 
-0.07368391375829198842 -0.00000000000000000797 0.82586029268929905811 
-0.07206205025633205530 0.00000000000000014251 0.82761033316630827628 
-0.07045044476318094995 -0.00000000000000007016 0.82983393312090836247 
-0.06885025132281355487 -0.00000000000000004927 0.83250378545732584001 
-0.06726256414094702873 -0.00000000000000001842 0.83559146502464132222 
-0.06568841847982540005 0.00000000000000003484 0.83906774198295808187 
-0.06412879159999394785 -0.00000000000000012657 0.84290287246416129019 
-0.06258460374753552213 -0.00000000000000003800 0.84706686597569469388 
-0.06105671918500045481 -0.00000000000000004645 0.85152972933706394532 
-0.05954594726405443988 -0.00000000000000003649 0.85626168723568418795 
-0.05805304353768404174 -0.00000000000000006171 0.86123337974369895687 
-0.05657871090963496191 -0.00000000000000012094 0.86641603735328931446 
-0.05512360081862685557 0.00000000000000004844 0.87178163426762467214 
-0.05368831445476365816 0.00000000000000009256 0.87730302083099087618 
-0.05227340400546515164 -0.00000000000000008012 0.88295403609775591214 
-0.05087937392817975385 -0.00000000000000014416 0.88870960162862788767 
-0.04950668224706559345 -0.00000000000000009895 0.89454579766639263916 
-0.04815574187080705337 0.00000000000000006494 0.90043991567768877360 
-0.04682692192870097775 -0.00000000000000003896 0.90637033179497616953 
-0.04552054912215252463 0.00000000000000002927 0.91231583376498759375 
-0.04423690908872014022 -0.00000000000000001079 0.91825446739140026420 
-0.04297624777588853612 -0.00000000000000001684 0.92416224434768357021 
-0.04173877282177254622 -0.00000000000000014416 0.93001195952363135966 
-0.04052465494001489948 -0.00000000000000002206 0.93577226365344656767 
-0.03933402930619284837 -0.00000000000000006088 0.94140706302125676253 
-0.03816699694312837565 -0.00000000000000000564 0.94687526626451212763 
-0.03702362610256344777 -0.00000000000000005216 0.95213086349459297164 
-0.03590395364076075929 0.00000000000000001285 0.95712330097383058192 
-0.03480798638567327713 -0.00000000000000002721 0.96179810213446403910 
-0.03373627549699188127 0.00000000000000002048 0.96609768020333153249 
-0.03268900223464712984 -0.00000000000000016921 0.96996228708035969746 
-0.03166521133856606274 -0.00000000000000003405 0.97333104584289165118 
-0.03066480706991216165 -0.00000000000000004549 0.97614301911497569630 
-0.02968767008377755715 0.00000000000000000199 0.97833827431195674595 
-0.02873365871254352638 0.00000000000000000014 0.97985901402897213064 
-0.02780261022687077407 -0.00000000000000015419 0.98065111102289115319 
-0.02689434207287129397 0.00000000000000002223 0.98066607600171706860 
-0.02600865308413278718 0.00000000000000007871 0.97986311041918472409 
-0.02514532466737739655 -0.00000000000000022116 0.97821096329528289814 
-0.02430412196065871028 -0.00000000000000003242 0.97568942417357118480 
-0.02348479496310672265 -0.00000000000000009519 0.97229036750578035075 
-0.02268707963534895289 0.00000000000000002101 0.96801832287533040589 
-0.02191069896983742146 -0.00000000000000009703 0.96289058600652455144 
-0.02115536403042644203 -0.00000000000000012461 0.95693691185163198831 
-0.02042077496064004585 0.00000000000000006064 0.95019884671559828870 
-0.01970662196017760118 0.00000000000000006480 0.94272876415457385058 
-0.01901145317890440625 -0.00000000000000012812 0.93458867146486557242 
-0.01833586256097388331 -0.00000000000000005896 0.92584885167719999099 
-0.01767980320919321224 -0.00000000000000014112 0.91658640141174596572 
-0.01704293063314689036 0.00000000000000002527 0.90688371874294904096 
-0.01642489500307837275 -0.00000000000000001972 0.89682698812948802303 
-0.01582534192124628036 -0.00000000000000005455 0.88650470204335662938 
-0.01524391316127294421 0.00000000000000005848 0.87600625158519473956 
-0.01468024737567722067 -0.00000000000000000517 0.86542061137903958379 
-0.01413398077184543737 -0.00000000000000008972 0.85483513758142370964 
-0.01360474775675402440 -0.00000000000000006970 0.84433449202681931656 
-0.01309218155081968461 -0.00000000000000005698 0.83399970041828808132 
-0.01259591477129769210 -0.00000000000000005725 0.82390734807256404970 
-0.01211557998570331370 -0.00000000000000016358 0.81412891302718159992 
-0.01165081023577340530 -0.00000000000000003337 0.80473023327779857894 
-0.01120123953252605796 0.00000000000000001309 0.79577110248747373600 
-0.01076650332301274868 0.00000000000000004360 0.78730498663926407055 
-0.01034623892938846788 -0.00000000000000015994 0.77937885272824691807 
-0.00994008596096179232 0.00000000000000003987 0.77203309964720423508 
-0.00954768669989916781 -0.00000000000000011687 0.76530158085143173974 
-0.00916868646129633501 0.00000000000000000640 0.75921170813495786334 
-0.00880273392833557169 -0.00000000000000011819 0.75378462585942807017 
-0.00844948146327063020 -0.00000000000000010782 0.74903544519900799870 
-0.00810858539499337283 0.00000000000000007864 0.74497352835580610275 
-0.00777970628394446945 -0.00000000000000001284 0.74160281322131793580 
-0.00746250916513887912 -0.00000000000000010543 0.73892216957598044758 
-0.00715666377008507965 -0.00000000000000000752 0.73692577860140329182 
-0.00686184472837270132 -0.00000000000000004880 0.73560352820300600740 
-0.00657773174971338151 0.00000000000000002052 0.73494141738336471459 
-0.00630400978720729345 -0.00000000000000010433 0.73492196365106055023 
-0.00604036918261316273 -0.00000000000000012452 0.73552460818198939219 
-0.00578650579438923576 0.00000000000000003614 0.73672611415865396634 
-0.00554212110926815237 0.00000000000000004719 0.73850095438923357705 
-0.00530692233811508839 -0.00000000000000014191 0.74082168494574640594 
-0.00508062249681797036 0.00000000000000006986 0.74365930215487585642 
-0.00486294047293418016 -0.00000000000000012842 0.74698358082311033801 
-0.00465360107881949894 0.00000000000000001231 0.75076339207827347266 
-0.00445233509193863897 -0.00000000000000010502 0.75496699966183111741 
-0.00425887928305090490 -0.00000000000000004648 0.75956233391117422560 
-0.00407297643294575115 0.00000000000000011385 0.76451724302955548218 
-0.00389437533838603821 -0.00000000000000007170 0.76979972155540943302 
-0.00372283080790004753 -0.00000000000000014198 0.77537811621459062916 
-0.00355810364804968722 -0.00000000000000016148 0.78122130957124058526 
-0.00339996064077589073 -0.00000000000000014204 0.78729888208822818019 
-0.00324817451241585318 -0.00000000000000010678 0.79358125336934692839 
-0.00310252389495379666 -0.00000000000000006590 0.80003980348554593061 
-0.00296279328006450243 -0.00000000000000012716 0.80664697538936347421 
-0.00282877296647120104 -0.00000000000000001853 0.81337635949826792015 
-0.00270025900113959492 -0.00000000000000000971 0.82020276078569975819 
-0.00257705311479348434 -0.00000000000000004769 0.82710218728400353161 
-0.00245896265223134215 -0.00000000000000006377 0.83405142577411028881 
-0.00234580049789584813 -0.00000000000000007246 0.84102704213460832694 
-0.00223738499713253217 0.00000000000000003017 0.84800411014705656676 
-0.00213353987355641627 -0.00000000000000007849 0.85495496468555687297 
-0.00203409414292421691 -0.00000000000000006397 0.86184816220323068325 
-0.00193888202389120223 -0.00000000000000000832 0.86864774687428125688 
-0.00184774284601878095 -0.00000000000000000237 0.87531286079731707161 
-0.00176052095537285679 -0.00000000000000012621 0.88179769562992893484 
-0.00167706561804419887 -0.00000000000000008516 0.88805175635809729950 
-0.00159723092189894785 -0.00000000000000004409 0.89402039198950777887 
-0.00152087567685394386 -0.00000000000000009399 0.89964553993990836744 
-0.00144871794273662875 -0.00000000000000004091 0.90486662851715327083 
-0.00138027718061806549 -0.00000000000000010065 0.90962158346016375177 
-0.00131484380633636010 0.00000000000000003243 0.91384788862490495820 
-0.00125229857737798201 0.00000000000000006171 0.91748365663640751855 
-0.00119252625177690484 -0.00000000000000010194 0.92046868853843988312 
-0.00113541549505903052 -0.00000000000000002907 0.92274571034516295054 
-0.00108085878687385869 -0.00000000000000007688 0.92426209539775094903 
-0.00102875232751538761 -0.00000000000000002393 0.92497188754980508296 
-0.00097899594450725699 -0.00000000000000006647 0.92483777935493793887 
-0.00093149299942791480 0.00000000000000001964 0.92383281414067031090 
-0.00088615029513032528 -0.00000000000000002037 0.92194168146421229260 
-0.00084287798350169308 -0.00000000000000003351 0.91916154812978823063 
-0.00080158947390028470 -0.00000000000000004484 0.91550241791115605228 
-0.00076220134239066400 -0.00000000000000006976 0.91098704738674740611 
-0.00072463324189257880 -0.00000000000000014542 0.90565046688179495771 
-0.00068880781334728345 -0.00000000000000015824 0.89953916762702490484 
-0.00065436245874706640 -0.00000000000000009874 0.89271002142275490687 
-0.00062040952807326474 -0.00000000000000000435 0.88522899933072818346 
-0.00058806175264379166 0.00000000000000002285 0.87716975275118758137 
-0.00055724869692610351 -0.00000000000000002749 0.86861211486936062975 
-0.00052790270163966945 -0.00000000000000013300 0.85964057377618119382 
-0.00049995879229412690 0.00000000000000001190 0.85034276125575103400 
-0.00047335458970101197 -0.00000000000000011438 0.84080799377775872205 
-0.00044803022248658041 -0.00000000000000004703 0.83112589498465183624 
-0.00042392824161573741 -0.00000000000000005374 0.82138512215698222807 
-0.00040099353694694837 -0.00000000000000006694 0.81167221292617308670 
-0.00037917325581399988 0.00000000000000001766 0.80207056296672651907 
-0.00035841672364922899 -0.00000000000000004570 0.79265954057543142053 
-0.00033867536663439936 -0.00000000000000018585 0.78351373993358330861 
-0.00031990263638242603 -0.00000000000000014980 0.77470237142434428268 
-0.00030205393663487940 -0.00000000000000011851 0.76628878459876448304 
-0.00028508655196751666 -0.00000000000000006389 0.75833011719731913125 
-0.00026895957848267342 -0.00000000000000001903 0.75087706197969605881 
-0.00025363385647590714 -0.00000000000000006761 0.74397374193215382032 
-0.00023907190505119682 0.00000000000000006868 0.73765768364739237040 
-0.00022523785866558391 0.00000000000000011004 0.73195987824697905655 
-0.00021209740557348136 -0.00000000000000011790 0.72690491908484999861 
-0.00019961772814923708 -0.00000000000000007882 0.72251120558033299357 
-0.00018776744505246334 -0.00000000000000008858 0.71879120283340558473 
-0.00017651655521254650 -0.00000000000000000668 0.71575174713128819626 
-0.00016583638359448784 -0.00000000000000005612 0.71339438802672594520 
-0.00015569952871837900 -0.00000000000000004693 0.71171575832202671474 
-0.00014607981189511494 0.00000000000000005493 0.71070796400119728986 
-0.00013695222814599079 0.00000000000000004283 0.71035898689179555188 
-0.00012829289876883405 -0.00000000000000003792 0.71065309358869810374 
-0.00012007902551633641 0.00000000000000002657 0.71157124491771717167 
-0.00011228884634935625 -0.00000000000000012756 0.71309150094495865613 
-0.00010490159272845169 -0.00000000000000005537 0.71518941723779649866 
-0.00009789744840558419 -0.00000000000000010616 0.71783842874764203223 
-0.00009125750968159829 -0.00000000000000002505 0.72101021830771672150 
-0.00008496374708770890 -0.00000000000000002589 0.72467506731699282696 
-0.00007899896845900377 -0.00000000000000007596 0.72880218671207741554 
-0.00007334678335715722 -0.00000000000000010235 0.73336002681109513368 
-0.00006799156881010775 0.00000000000000000646 0.73831656504759990423 
-0.00006291843632900791 -0.00000000000000004061 0.74363957099910815707 
-0.00005811320016685159 -0.00000000000000002408 0.74929684845553334860 
-0.00005356234678199336 -0.00000000000000006370 0.75525645456964596303 
-0.00004925300547273211 -0.00000000000000008479 0.76148689638713507044 
-0.00004517292014322281 -0.00000000000000012526 0.76795730527052263881 
-0.00004131042217332466 0.00000000000000000333 0.77463758991200426518 
-0.00003765440434732701 -0.00000000000000024736 0.78149856877809742439 
-0.00003419429581972939 -0.00000000000000003393 0.78851208294676056187 
-0.00003092003807496519 -0.00000000000000017922 0.79565109038830916788 
-0.00002782206185436532 -0.00000000000000008649 0.80288974280715674769 
-0.00002489126501493883 -0.00000000000000011616 0.81020343899787627961 
-0.00002211899129160737 -0.00000000000000015820 0.81756869921882246999 
-0.00001949700992968470 -0.00000000000000003403 0.82496249316089875769 
-0.00001701749615809788 0.00000000000000002204 0.83236108747268289232 
-0.00001467301247560444 -0.00000000000000017661 0.83973875469356240586 
-0.00001245649071926645 -0.00000000000000004528 0.84706659173623910508 
-0.00001036121488826814 -0.00000000000000021938 0.85431159364645048448 
-0.00000838080469602357 -0.00000000000000004873 0.86143605441781478937 
-0.00000650919982275961 0.00000000000000006447 0.86839731486630578061 
-0.00000474064484485513 -0.00000000000000008723 0.87514784276961699039 
-0.00000306967481312818 0.00000000000000000862 0.88163560849840538758 
-0.00000149110145891556 -0.00000000000000000699 0.88780470691445778630 
0.00000000000000002955 -0.00000000000000015969 0.89359617079073094814 
0.00000000000000009355 -0.00000000000000011857 0.89894892039403972994 
0.00000000000000015876 -0.00000000000000018099 0.90380079659657919233 
0.00000000000000013626 -0.00000000000000013317 0.90808962975089968506 
0.00000000000000009921 -0.00000000000000017216 0.91175430267348900326 
0.00000000000000008837 -0.00000000000000007026 0.91473577276884920906 
0.00000000000000007903 -0.00000000000000010025 0.91697802510834180989 
0.00000000000000004669 0.00000000000000004934 0.91842893482046228382 
0.00000000000000009663 -0.00000000000000020704 0.91904102322819114512 
0.00000000000000005317 -0.00000000000000008950 0.91877209764700340511 
0.00000000000000010068 -0.00000000000000010788 0.91758576956087833931 
0.00000000000000003120 0.00000000000000000550 0.91545184999793483005 
0.00000000000000006530 -0.00000000000000009943 0.91234662434101188033 
-0.00000000000000002768 -0.00000000000000004281 0.90825301156447424411 
0.00000000000000014168 -0.00000000000000003202 0.90316061503526257059 
0.00000000000000004456 -0.00000000000000005579 0.89706567361172939723 
0.00000000000000005146 -0.00000000000000019597 0.88997092288084189704 
0.00000000000000003243 -0.00000000000000007328 0.88188537705694303170 
0.00000000000000005705 -0.00000000000000011530 0.87282404238611766001 
0.00000000000000010841 -0.00000000000000003601 0.86280757291909027096 
0.00000000000000011512 -0.00000000000000003601 0.85186187928791712309 
-0.00000000000000001778 -0.00000000000000003435 0.84001770069819814424 
0.00000000000000008348 -0.00000000000000011894 0.82731014977440542335 
0.00000000000000002416 0.00000000000000000158 0.81377823921123293438 
0.00000000000000004398 -0.00000000000000007242 0.79946439842330552228 
0.00000000000000005112 -0.00000000000000002515 0.78441398757888647353 
0.00000000000000007985 -0.00000000000000012245 0.76867481557531702752 
0.00000000000000001739 0.00000000000000002323 0.75229666768555913947 
0.00000000000000003139 -0.00000000000000011297 0.73533084779303892198 
0.00000000000000001809 0.00000000000000000041 0.71782973934931781912 
0.00000000000000004931 0.00000000000000007689 0.69984638844607471864 
-0.00000000000000002807 0.00000000000000002962 0.68143411169690093487 
0.00000000000000011636 -0.00000000000000008294 0.66264613098068214647 
-0.00000000000000000424 0.00000000000000004247 0.64353523651002708661 
0.00000000000000007881 -0.00000000000000015811 0.62415347915681818058 
0.00000000000000003227 0.00000000079581128295 0.60455189249275287366 
0.00000000000000016269 0.00000006783503703480 0.58478024458473398806 
0.00000000000000003009 0.00000079354332806408 0.56488681922141881220 
0.00000000000000013968 0.00000432183450717831 0.54491822593570438116 
-0.00000000000000010337 0.00001563218221833429 0.52491923792543704330 
0.00000000000000014844 0.00004378847683635195 0.50493265675795451219 
-0.00000000000000000290 0.00010297087485807715 0.48499920256962636422 
0.00000000000000008087 0.00021319336253661521 0.46515742833579715176 
0.00000000000000001783 0.00040066966310982945 0.44544365668574070760 
0.00000000000000005730 0.00069783110257249639 0.42589193766782856843 
0.00000000000000004508 0.00114302666181772660 0.40653402582855319158 
-0.00000000000000005940 0.00177995130151248826 0.38739937495196541395 
-0.00000000000000003830 0.00265685660858701453 0.36851600343902790602 
0.00000000000000010715 0.00382560011958900815 0.34990846169562989099 
-0.00000000000000001830 0.00534058806548248863 0.33159883971867309960 
0.00000000000000007842 0.00725766209009625143 0.31360763577273992331 
-0.00000000000000005806 0.00963297473206570741 0.29595322911845106661 
0.00000000000000004838 0.01252189188151480760 0.27865194736036863477 
0.00000000000000004290 0.01597795357764910523 0.26171814083365863013 
0.00000000000000002085 0.02005191779135369334 0.24516426277761688146 
-0.00000000000000003143 0.02479090550287834857 0.22900095412757556779 
-0.00000000000000000550 0.03023765960801395869 0.21323713184183731850 
0.00000000000000000737 0.03642992506360391569 0.19788007976598129267 
0.00000000000000001826 0.04339995325751120486 0.18293554112212617735 
0.00000000000000005067 0.05117412986270203357 0.16840781179467259610 
0.00000000000000005821 0.05977272238549970890 0.15429983366595681482 
0.00000000000000006350 0.06920974120124913365 0.14061328733454464546 
0.00000000000000014146 0.07949290603165096170 0.12734868362509360606 
0.00000000000000007929 0.09062370849552808805 0.11450545337144953095 
0.00000000000000009472 0.10259756049479865081 0.10208203502361226644 
-0.00000000000000004499 0.11540401771638073014 0.09007595969423330684 
0.00000000000000015477 0.12902706737744398802 0.07848393332123461408 
0.00000000000000005863 0.14344546945846092800 0.06730191567989972368 
0.00000000000000012449 0.15863314100314127031 0.05652519603037491763 
0.00000000000000003919 0.17455957356899812205 0.04614846523494387648 
0.00000000000000012625 0.19119027454473030980 0.03616588422377769313 
-0.00000000000000001884 0.20848722377389605764 0.02657114872820279250 
0.00000000000000001212 0.22640933770670595981 0.01735755023700531058 
-0.00000000000000000915 0.24491293411623799026 0.00851803316403565089 
0.00000000000000004119 0.26395219123949209550 0.00004524824456139456 
-0.00000000000000009684 0.28347959601913252925 -0.00806839779639694464 
0.00000000000000004227 0.30344637691375203614 -0.01583069623792647887 
-0.00000000000000007312 0.32380291750166206866 -0.02324959393390109430 
0.00000000000000001933 0.34449914781692192456 -0.03033315435836796831 
-0.00000000000000005030 0.36548491102048519252 -0.03708952200943819999 
-0.00000000000000002612 0.38671030361992231317 -0.04352689004382690602 
-0.00000000000000003889 0.40812598800593846704 -0.04965347100479790277 
-0.00000000000000002663 0.42968347657206840129 -0.05547747049894734273 
-0.00000000000000000736 0.45133538712593279651 -0.06100706367183457435 
0.00000000000000005245 0.47303566968763888223 -0.06625037432875942323 
0.00000000000000001509 0.49473980510548093426 -0.07121545654483243948 
0.00000000000000013072 0.51640497620370007237 -0.07591027860772379954 
-0.00000000000000011559 0.53799021241483457878 -0.08034270913696017757 
0.00000000000000007977 0.55945650904349419896 -0.08452050522521850628 
-0.00000000000000003908 0.58076692246278360798 -0.08845130244961815769 
0.00000000000000001318 0.60188664266266200809 -0.09214260660439596573 
0.00000000000000005206 0.62278304465488698582 -0.09560178701045050909 
0.00000000000000004007 0.64342572029536282407 -0.09883607126196611303 
-0.00000000000000010038 0.66378649211510354355 -0.10185254127554575765 
0.00000000000000001143 0.68383941075889953520 -0.10465813051291381064 
-0.00000000000000005777 0.70356073744724167973 -0.10725962225422472351 
-0.00000000000000001164 0.72292887894014956629 -0.10966364880521453640 
-0.00000000000000004036 0.74192399461731750598 -0.11187669152782502013 
0.00000000000000002948 0.76052701484829265954 -0.11390508159042604663 
-0.00000000000000000124 0.77871831980031602782 -0.11575500134030868027 
0.00000000000000003466 0.79647639678413262310 -0.11743248620767079982 
0.00000000000000005313 0.81377667963578026455 -0.11894342705681562600 
0.00000000000000008062 0.83059068331900109960 -0.12029357290669068226 
-0.00000000000000010090 0.84688548251756723406 -0.12148853394917974446 
0.00000000000000005071 0.86262353853116191527 -0.12253378479968549120 
-0.00000000000000009287 0.87776284953484839946 -0.12343466792048009284 
-0.00000000000000009393 0.89225738142150090582 -0.12419639716304141375 
-0.00000000000000004382 0.90605772702162268306 -0.12482463438464529160 
-0.00000000000000000613 0.91911193813281910625 -0.12532457751394210366 
-0.00000000000000006302 0.93136647566155206235 -0.12570019623234882089 
0.00000000000000009591 0.94276722687384240107 -0.12595623029017205541 
-0.00000000000000012194 0.95326054419892880532 -0.12609730860048329326 
-0.00000000000000004738 0.96279426722583971721 -0.12612795266710596920 
-0.00000000000000008042 0.97131875776779330600 -0.12605257989464388468 
0.00000000000000005070 0.97878825772936006722 -0.12587550676361511370 
-0.00000000000000003985 0.98516271418961898210 -0.12560095185715333677 
-0.00000000000000002165 0.99040975562746491612 -0.12523303872885549470 
-0.00000000000000007938 0.99450651627458208637 -0.12477579860423236580 
0.00000000000000002765 0.99744112309037102904 -0.12423317291081546754 
-0.00000000000000004631 0.99921374819468100625 -0.12360901563434946449 
0.00000000000000007124 0.99983719264993065057 -0.12290709550061607036 
-0.00000000000000004103 0.99933701097901206367 -0.12213109798433577358 
0.00000000000000007653 0.99775121434123359432 -0.12128462714827213664 
-0.00000000000000001369 0.99512960754432544519 -0.12037120731712794286 
0.00000000000000002956 0.99153282396782882469 -0.11939342996331528401 
0.00000000000000003790 0.98703112531573733435 -0.11835501281592246403 
0.00000000000000002363 0.98170303170465433862 -0.11725983142226195644 
-0.00000000000000000963 0.97563384332142466526 -0.11611110073966468548 
0.00000000000000006762 0.96891410881643103004 -0.11491196232827377566 
-0.00000000000000010134 0.96163808853772647645 -0.11366548517865801560 
0.00000000000000007004 0.95390225324978195065 -0.11237466643275280387 
-0.00000000000000001440 0.94580385154618928922 -0.11104243200827317029 
0.00000000000000006464 0.93743957205581551761 -0.10967163713683410198 
-0.00000000000000001687 0.92890431995371891549 -0.10826506682600871290 
0.00000000000000000118 0.92029012134150434132 -0.10682543625545173893 
-0.00000000000000004493 0.91168516381852038322 -0.10535539111704553261 
-0.00000000000000001287 0.90317297704398458169 -0.10385750790877486260 
-0.00000000000000002495 0.89483175327838926361 -0.10233429419173160901 
0.00000000000000000060 0.88673380475623497787 -0.10078818881928572337 
-0.00000000000000005105 0.87894515223286506789 -0.09922156214705397936 
-0.00000000000000001116 0.87152523710882778829 -0.09763671623185299353 
-0.00000000000000011420 0.86452674810431795471 -0.09603588502734677901 
-0.00000000000000004464 0.85799555247121428447 -0.09442123458359855115 
-0.00000000000000003802 0.85197072112955829493 -0.09279486325721827966 
-0.00000000000000002776 0.84648463684032593246 -0.09115880193826592093 
-0.00000000000000016422 0.84156317452222617614 -0.08951501429953076516 
-0.00000000000000003287 0.83722594303676733940 -0.08786539707326528059 
-0.00000000000000006048 0.83348657815765148094 -0.08621178035991192146 
-0.00000000000000003351 0.83035307696734206306 -0.08455592797282288076 
-0.00000000000000005100 0.82782816455010610479 -0.08289953782245058911 
-0.00000000000000012282 0.82590968454630353524 -0.08124424234296652447 
-0.00000000000000007535 0.82459100587115663483 -0.07959160896376815675 
-0.00000000000000010871 0.82386143866068684005 -0.07794314062784957198 
-0.00000000000000003623 0.82370665326981118426 -0.07630027635854569334 
-0.00000000000000004736 0.82410909689800970757 -0.07466439187571687064 
-0.00000000000000013342 0.82504840314477523311 -0.07303680026201557485 
-0.00000000000000002231 0.82650179049119210095 -0.07141875267948082084 
-0.00000000000000010832 0.82844444635873193405 -0.06981143913633129638 
0.00000000000000003114 0.83084989400694442274 -0.06821598930347338996 
-0.00000000000000004372 0.83369034009513842687 -0.06663347337991940011 
0.00000000000000000332 0.83693700124771519544 -0.06506490300601160126 
-0.00000000000000003668 0.84056040842811763358 -0.06351123222306885585 
0.00000000000000002701 0.84453068834285072164 -0.06197335847782995538 
-0.00000000000000009008 0.84881782146599149552 -0.06045212366983779978 
0.00000000000000000908 0.85339187659784276896 -0.05894831523971241771 
-0.00000000000000004734 0.85822322215123902911 -0.05746266729608488083 
0.00000000000000002307 0.86328271459801997345 -0.05599586177881032273 
-0.00000000000000009692 0.86854186470922856156 -0.05454852965595034103 
-0.00000000000000004094 0.87397298238855725128 -0.05312125215190686284 
-0.00000000000000004116 0.87954930103250239526 -0.05171456200400161712 
-0.00000000000000004215 0.88524508245550714847 -0.05032894474473031260 
-0.00000000000000008435 0.89103570349708427489 -0.04896484000686792543 
0.00000000000000009341 0.89689772531130151911 -0.04762264284857781194 
-0.00000000000000005564 0.90280891246501571157 -0.04630270509565776599 
-0.00000000000000003221 0.90874792116573999134 -0.04500533669806169867 
-0.00000000000000014259 0.91469339555391426799 -0.04373080709784994691 
-0.00000000000000008398 0.92062272101861675200 -0.04247934660575487797 
0.00000000000000000206 0.92651075249469705408 -0.04125114778358712764 
0.00000000000000000191 0.93232872113916964718 -0.04004636682976436129 
-0.00000000000000015521 0.93804343250961963463 -0.03886512496530992317 
0.00000000000000002813 0.94361680498642219739 -0.03770750981773796084 
-0.00000000000000000479 0.94900575275575238532 -0.03657357680032883446 
0.00000000000000001644 0.95416238844401313202 -0.03546335048438509219 
-0.00000000000000007830 0.95903450267769785320 -0.03437682596215207997 
-0.00000000000000000459 0.96356626843859793929 -0.03331454320175372685 
-0.00000000000000002791 0.96769911474010805730 -0.03227667280976389413 
0.00000000000000000714 0.97137271503593858313 -0.03126224940425135351 
-0.00000000000000009150 0.97452603947930893646 -0.03027116764857967421 
-0.00000000000000002996 0.97709842560900628250 -0.02930329911597255241 
0.00000000000000010187 0.97903063565535164425 -0.02835849356410646144 
0.00000000000000001495 0.98026602490776504339 -0.02743658018674225221 
-0.00000000000000004431 0.98075216423920863473 -0.02653736884098953017 
0.00000000000000000475 0.98044283287170364005 -0.02566065124892509888 
-0.00000000000000008242 0.97930002740967025954 -0.02480620217239247471 
0.00000000000000005468 0.97729573206396314067 -0.02397378055993013360 
-0.00000000000000002990 0.97441330189126384997 -0.02316313066488612238 
0.00000000000000003656 0.97064838860548618982 -0.02237398313388623203 
-0.00000000000000001316 0.96600939338822700009 -0.02160605606493651298 
0.00000000000000007836 0.96051746837754825581 -0.02085905603453642315 
-0.00000000000000006786 0.95420611235595054200 -0.02013267909329154517 
-0.00000000000000005212 0.94712041994520168586 -0.01942632359035997847 
-0.00000000000000001340 0.93931605000676066108 -0.01873885137836512824 
0.00000000000000003465 0.93085798003231390307 -0.01807111423097650105 
-0.00000000000000010092 0.92181911071806799107 -0.01742277124499490640 
-0.00000000000000005635 0.91227877990421557541 -0.01679347569965095044 
-0.00000000000000014475 0.90232123858235779856 -0.01618287584722803013 
-0.00000000000000001872 0.89203413444342982697 -0.01559061567159441240 
-0.00000000000000010451 0.88150704098092891314 -0.01501633561480156948 
-0.00000000000000001592 0.87083006285265462942 -0.01445967327195601254 
-0.00000000000000012739 0.86009254129507639597 -0.01392026405465117238 
-0.00000000000000006875 0.84938187704337708706 -0.01339774182329319871 
-0.00000000000000005342 0.83878248253355358610 -0.01289173948871608771 
-0.00000000000000004485 0.82837487019516808928 -0.01240188958353017311 
0.00000000000000001959 0.81823487939078054509 -0.01192782480369550951 
0.00000000000000002303 0.80843304099986235123 -0.01146917852085323035 
-0.00000000000000012563 0.79903407574158469284 -0.01102558526598892974 
-0.00000000000000002726 0.79009652003071118020 -0.01059668118503542811 
-0.00000000000000003813 0.78167247140539264372 -0.01018210446705404559 
-0.00000000000000005450 0.77380744429335635015 -0.00978149574566329269 
0.00000000000000002511 0.76654032603195476625 -0.00939449847440460006 
-0.00000000000000008639 0.75990342256764087381 -0.00902075927675928362 
-0.00000000000000003113 0.75392258307484405488 -0.00865992827154892300 
0.00000000000000002038 0.74861739280006178721 -0.00831165937446052931 
-0.00000000000000006692 0.74400142370622468491 -0.00797561057645869778 
-0.00000000000000006146 0.74008253292176429117 -0.00765144419985041169 
-0.00000000000000006216 0.73686319955012880012 -0.00733882713277367836 
0.00000000000000003011 0.73434089103535149512 -0.00703743104289108329 
0.00000000000000005096 0.73250845097893457769 -0.00674693257106517060 
0.00000000000000000301 0.73135450103832366775 -0.00646701350579535674 
0.00000000000000003846 0.73086385028722955504 -0.00619736093919521103 
-0.00000000000000002780 0.73101790616612405405 -0.00593766740527768705 
-0.00000000000000003385 0.73179508188387465406 -0.00568763100131845518 
-0.00000000000000008682 0.73317119583796919180 -0.00544695549305485201 
-0.00000000000000003271 0.73511985929294321185 -0.00521535040446835605 
-0.00000000000000008915 0.73761284918845715364 -0.00499253109288993243 
-0.00000000000000003896 0.74062046353584642944 -0.00477821881015467152 
-0.00000000000000002762 0.74411185740234953023 -0.00457214075051827137 
0.00000000000000001467 0.74805535797434219436 -0.00437403008603752790 
-0.00000000000000000755 0.75241875763465160265 -0.00418362599009457301 
-0.00000000000000010889 0.75716958438510562068 -0.00400067364973772342 
0.00000000000000000946 0.76227534929530782470 -0.00382492426748788812 
0.00000000000000003465 0.76770377096418729312 -0.00365613505324780290 
0.00000000000000003337 0.77342297724448483276 -0.00349406920692892737 
-0.00000000000000006229 0.77940168470466741901 -0.00333849589239600076 
-0.00000000000000004145 0.78560935649058816210 -0.00318919020331050965 
0.00000000000000000149 0.79201633940347726526 -0.00304593312143413945 
0.00000000000000002041 0.79859398113446544709 -0.00290851146793429625 
-0.00000000000000001531 0.80531472869176523588 -0.00277671784821683460 
-0.00000000000000006037 0.81215220912766905581 -0.00265035059079016342 
-0.00000000000000002976 0.81908129105952942606 -0.00252921368064624053 
0.00000000000000002381 0.82607802493562265678 -0.00241311668762360420 
0.00000000000000001786 0.83311909560957841947 -0.00230187469020197042 
0.00000000000000002508 0.84018073856167174718 -0.00219530819515536147 
0.00000000000000006462 0.84723745318475396360 -0.00209324305347345771 
-0.00000000000000007143 0.85426078518121750793 -0.00199551037294346282 
-0.00000000000000012075 0.86121834179599165982 -0.00190194642776467856 
-0.00000000000000008843 0.86807312449308848823 -0.00181239256555189971 
-0.00000000000000001701 0.87478320792804131756 -0.00172669511206448040 
-0.00000000000000000850 0.88130175623734707813 -0.00164470527398258228 
-0.00000000000000007058 0.88757734341213523344 -0.00156627904003245463 
0.00000000000000004337 0.89355453039396415260 -0.00149127708075057035 
-0.00000000000000002976 0.89917464480274134075 -0.00142097295062882322 
-0.00000000000000005867 0.90437670774998613066 -0.00135374971263876160 
-0.00000000000000004507 0.90909845435453118245 -0.00128948567947801285 
-0.00000000000000002211 0.91327739909814287245 -0.00122806321999022476 
0.00000000000000003486 0.91685190310157993476 -0.00116936866639479574 
0.00000000000000004677 0.91976222370569771236 -0.00111329222108184737 
-0.00000000000000009524 0.92195173561704524268 -0.00105972786317669516 
0.00000000000000004507 0.92336863381632328096 -0.00100857325506475558 
-0.00000000000000002296 0.92396793444851255117 -0.00095972964905430031 
-0.00000000000000000765 0.92371342893823193965 -0.00091310179433993013 
0.00000000000000005272 0.92257936114750338508 -0.00086859784442208144 
-0.00000000000000001275 0.92055169786403567844 -0.00082612926512177836 
-0.00000000000000005697 0.91762893545472734580 -0.00078561074332328818 
0.00000000000000000510 0.91382243635296200868 -0.00074696009656046141 
-0.00000000000000002466 0.90915632319220585078 -0.00071009818356153049 
0.00000000000000006632 0.90366697987738942022 -0.00067494881584784130 
0.00000000000000006547 0.89740222090553378731 -0.00064058404169766781 
-0.00000000000000003146 0.89042019534391392277 -0.00060728180692914166 
-0.00000000000000016156 0.88278809203759789348 -0.00057555621410661445 
-0.00000000000000013945 0.87458070939525178744 -0.00054533794929912294 
-0.00000000000000009013 0.86587894768155770908 -0.00051656043800783356 
