0.000000 0.000000 0.000000 0.000000 0.000000 0.000000 0.000000 0.000000 0.000000 -0.000000 0.000000 0.000000 -0.000000 0.000000 -0.000000 0.000000 0.000000 0.000000 0.000000 -0.000000 0.000000 0.000000 0.000000 0.000000 0.000000 0.000000 0.000000 0.000000 0.000000 0.000000 0.000000 -0.000000 0.000000 0.000000 -0.000000 0.000000 -0.000000 0.000000 0.000000 0.000000 -0.000000 0.000000 0.000000 0.000000 -0.000000 0.000000 -0.000000 0.000000 0.000000 0.000000 0.000000 0.000000 0.000000 0.000000 0.000000 0.000000 -0.000000 0.000000 0.000000 0.000000 0.000000 0.000000 0.000000 0.000000 0.000000 0.000000 0.000000 0.000000 0.000000 0.000000 0.000000 -0.000000 -0.000000 0.000000 0.000000 0.000000 -0.000000 0.000000 -0.000000 0.000000 0.000000 0.000000 0.000000 -0.000000 -0.000000 0.000000 -0.000000 0.000000 -0.000000 0.000000 -0.000000 -0.000000 -0.000000 0.000000 -0.000000 -0.000000 -0.000000 0.000000 -0.000000 -0.000000 -0.000000 0.000000 -0.000000 -0.000000 -0.000000 -0.000000 0.000000 -0.000000 -0.000000 -0.000000 0.000000 0.000000 0.000001 0.000007 0.000026 0.000073 0.000172 0.000355 0.000668 0.001163 0.001905 0.002967 0.004429 0.006377 0.008902 0.012098 0.016057 0.020872 0.026633 0.033424 0.041323 0.050402 0.060724 0.072342 0.085300 0.099633 0.115363 0.132504 0.151057 0.171016 0.192362 0.215070 0.239104 0.264419 0.290967 0.318688 0.347519 0.377393 0.408236 0.439972 0.472521 0.505803 0.539734 0.574232 0.609213 0.644592 0.680289 0.716223 0.752313 0.788485 0.824663 0.860775 0.896755 0.932536 0.968058 1.003261 1.038093 1.072501 1.106440 1.139865 1.172738 1.205022 1.236684 1.267693 1.298015 1.327616 1.356453 1.384479 1.411640 1.437874 1.463109 1.487269 1.510272 1.532032 1.552459 1.571462 1.588953 1.604844 1.619053 1.631503 1.642126 1.650866 1.657681 1.662548 1.665464 1.666446 1.665532 1.662782 1.658275 1.652109 1.644400 1.635277 1.624882 1.613364 1.600882 1.587599 1.573679 1.559284 1.544577 1.529714 1.514847 1.500117 1.485661 1.471601 1.458054 1.445121 1.432895 1.421456 1.410873 1.401202 1.392492 1.384776 1.378081 1.372422 1.367805 1.364228 1.361682 1.360150 1.359609 1.360030 1.361379 1.363619 1.366707 1.370600 1.375249 1.380608 1.386624 1.393248 1.400429 1.408114 1.416254 1.424799 1.433699 1.442907 1.452377 1.462064 1.471927 1.481924 1.492016 1.502168 1.512344 1.522506 1.532614 1.542622 1.552478 1.562121 1.571483 1.580487 1.589047 1.597074 1.604471 1.611139 1.616975 1.621878 1.625749 1.628490 1.630012 1.630231 1.629077 1.626496 1.622449 1.616920 1.609911 1.601448 1.591576 1.580362 1.567889 1.554260 1.539590 1.524008 1.507650 1.490662 1.473192 1.455393 1.437414 1.419404 1.401510 1.383868 1.366612 1.349863 1.333738 1.318338 1.303759 1.290081 1.277376 1.265704 1.255115 1.245647 1.237327 1.230174 1.224197 1.219396 1.215763 1.213282 1.211930 1.211680 1.212498 1.214345 1.217179 1.220953 1.225619 1.231126 1.237422 1.244451 1.252161 1.260496 1.269401 1.278823 1.288709 1.299005 1.309662 1.320631 1.331863 1.343314 1.354940 1.366700 1.378554 1.390463 1.402387 1.414281 1.426095 1.437772 1.449247 1.460447 1.471290 1.481688 1.491547 1.500766 1.509243 1.516874 1.523555 1.529185 1.533665 1.536904 1.538821 1.539345 1.538423 1.536020 1.532120 1.526731 1.519878 1.511612 1.502000 1.491130 1.479104 1.466041 1.452069 1.437327 1.421959 1.406115 1.389945 1.373599 1.357225 1.340967 1.324960 1.309336 1.294215 1.279709 1.265920 1.252939 1.240845 1.229708 1.219586 1.210525 1.202562 1.195723 1.190024 1.185473 1.182069 1.179801 1.178653 1.178602 1.179619 1.181669 1.184714 1.188709 1.193610 1.199367 1.205929 1.213244 1.221259 1.229918 1.239168 1.248955 1.259225 1.269926 1.281007 1.292417 1.304108 1.316033 1.328148 1.340411 1.352781 1.365219 1.377686 1.390142 1.402541 1.414834 1.426960 1.438856 1.450445 1.461645 1.472368 1.482517 1.491993 1.500693 1.508513 1.515350 1.521104 1.525677 1.528980 1.530927 1.531444 1.530464 1.527930 1.523797 1.518029 1.510603 1.501506 1.490735 1.478300 1.464219 1.448523 1.431248 1.412442 1.392159 1.370460 1.347412 1.323089 1.297567 1.270928 1.243257 1.214639 1.185163 1.154916 1.123989 1.092469 1.060445 1.028001 0.995224 0.962194 0.928992 0.895693 0.862372 0.829097 0.795937 0.762952 0.730204 0.697746 0.665630 0.633906 0.602616 0.571799 0.541493 0.511729 0.482536 0.453942 0.425968 0.398634 0.371957 0.345951 0.320625 0.295990 0.272052 0.248814 0.226278 0.204445 0.183313 0.162879 0.143138 0.124086 0.105717 0.088029 0.071022 0.054699 0.039069 0.024144 0.009941 -0.003518 -0.016208 -0.028100 -0.039163 -0.049366 -0.058673 -0.067053 -0.074474 -0.080904 -0.086317 -0.090687 -0.093995 -0.096223 -0.097360 -0.097398 -0.096335 -0.094174 -0.090923 -0.086595 -0.081206 -0.074780 -0.067342 -0.058923 -0.049556 -0.039280 -0.028134 -0.016161 -0.003407 0.010083 0.024260 0.039074 0.054476 0.070414 0.086840 0.103702 0.120952 0.138542 0.156422 0.174547 0.192872 0.211352 0.229945 0.248612 0.267313 0.286012 0.304673 0.323265 0.341757 0.360119 0.378327 0.396355 0.414179 0.431778 0.449129 0.466212 0.483002 0.499473 0.515594 0.531331 0.546648 0.561503 0.575851 0.589648 0.602844 0.615390 0.627238 0.638338 0.648646 0.658116 0.666709 0.674391 0.681135 0.686924 0.691750 0.695615 0.698532 0.700525 0.701629 0.701886 0.701350 0.700079 0.698141 0.695606 0.692550 0.689049 0.685183 0.681030 0.676669 0.672175 0.667623 0.663082 0.658618 0.654292 0.650160 0.646274 0.642680 0.639416 0.636518 0.634014 0.631928 0.630278 0.629078 0.628335 0.628055 0.628236 0.628876 0.629966 0.631496 0.633454 0.635822 0.638582 0.641716 0.645203 0.649020 0.653146 0.657554 0.662222 0.667126 0.672239 0.677540 0.683002 0.688604 0.694322 0.700135 0.706021 0.711960 0.717934 0.723925 0.729913 0.735882 0.741815 0.747691 0.753489 0.759184 0.764745 0.770140 0.775330 0.780274 0.784927 0.789241 0.793168 0.796657 0.799657 0.802119 0.803996 0.805243 0.805818 0.805687 0.804824 0.803209 0.800835 0.797703 0.793827 0.789231 0.783947 0.778020 0.771499 0.764443 0.756918 0.748992 0.740739 0.732233 0.723551 0.714769 0.705962 0.697203 0.688561 0.680104 0.671894 0.663987 0.656436 0.649289 0.642587 0.636366 0.630656 0.625482 0.620865 0.616817 0.613349 0.610465 0.608166 0.606447 0.605301 0.604717 0.604682 0.605177 0.606184 0.607681 0.609646 0.612055 0.614882 0.618102 0.621688 0.625612 0.629847 0.634366 0.639142 0.644148 0.649358 0.654748 0.660291 0.665966 0.671749 0.677620 0.683557 0.689540 0.695549 0.701564 0.707563 0.713521 0.719409 0.725195 0.730842 0.736310 0.741554 0.746526 0.751177 0.755455 0.759309 0.762685 0.765534 0.767806 0.769456 0.770444 0.770735 0.770306 0.769139 0.767230 0.764584 0.761216 0.757153 0.752431 0.747095 0.741197 0.734797 0.727960 0.720755 0.713254 0.705532 0.697662 0.689718 0.681773 0.673896 0.666156 0.658613 0.651329 0.644355 0.637742 0.631532 0.625764 0.620471 0.615679 0.611411 0.607684 0.604508 0.601892 0.599837 0.598342 0.597402 0.597007 0.597146 0.597803 0.598961 0.600599 0.602696 0.605230 0.608177 0.611512 0.615208 0.619240 0.623581 0.628203 0.633082 0.638190 0.643502 0.648992 0.654638 0.660414 0.666299 0.672271 0.678309 0.684394 0.690507 0.696628 0.702735 0.708807 0.714816 0.720730 0.726517 0.732136 0.737546 0.742699 0.747548 0.752041 0.756127 0.759754 0.762870 0.765426 0.767374 0.768671 0.769275 0.769150 0.768266 0.766595 0.764118 0.760817 0.756685 0.751715 0.745911 0.739277 0.731826 0.723574 0.714542 0.704755 0.694240 0.683031 0.671163 0.658672 0.645598 0.631982 0.617868 0.603298 0.588318 0.572971 0.557301 0.541354 0.525173 0.508801 0.492279 0.475648 0.458947 0.442214 0.425485 0.408795 0.392176 0.375658 0.359271 0.343042 0.326995 0.311154 0.295541 0.280173 0.265069 0.250244 0.235713 0.221486 0.207576 0.193991 0.180739 0.167827 0.155258 0.143039 0.131170 0.119653 0.108490 0.097679 0.087220 0.077111 0.067349 0.057933 0.048862 0.040142 0.031779 0.023789 0.016191 0.009014 0.002291 -0.003939 -0.009630 -0.014733 -0.019196 -0.022965 -0.025984 -0.028198 -0.029555 -0.030003 -0.029496 -0.027992 -0.025452 -0.021845 -0.017147 -0.011338 -0.004407 0.003652 0.012837 0.023139 0.034544 0.047031 0.060574 0.075138 0.090689 0.107184 0.124577 0.142820 0.161860 0.181643 0.202112 0.223211 0.244879 0.267057 0.289685 0.312705 0.336057 0.359685 0.383530 0.407538 0.431656 0.455831 0.480015 0.504159 0.528220 0.552153 0.575920 0.599482 0.622804 0.645853 0.668601 0.691019 0.713081 0.734764 0.756043 0.776894 0.797288 0.817193 0.836571 0.855383 0.873579 0.891111 0.907921 0.923951 0.939142 0.953430 0.966755 0.979056 0.990276 1.000360 1.009261 1.016938 1.023364 1.028519 1.032401 1.035019 1.036397 1.036573 1.035598 1.033535 1.030457 1.026448 1.021599 1.016006 1.009771 1.002998 0.995792 0.988258 0.980498 0.972613 0.964699 0.956847 0.949142 0.941664 0.934486 0.927672 0.921281 0.915363 0.909963 0.905116 0.900851 0.897190 0.894150 0.891740 0.889963 0.888819 0.888301 0.888397 0.889094 0.890373 0.892213 0.894587 0.897472 0.900839 0.904658 0.908899 0.913530 0.918518 0.923833 0.929441 0.935311 0.941412 0.947712 0.954183 0.960795 0.967521 0.974334 0.981211 0.988125 0.995055 1.001978 1.008868 1.015698 1.022439 1.029052 1.035497 1.041727 1.047689 1.053325 1.058576 1.063375 1.067658 1.071356 1.074404 1.076735 1.078289 1.079006 1.078836 1.077736 1.075674 1.072631 1.068600 1.063591 1.057625 1.050738 1.042979 1.034410 1.025101 1.015133 1.004594 0.993577 0.982179 0.970500 0.958641 0.946702 0.934780 0.922969 0.911361 0.900041 0.889087 0.878574 0.868567 0.859125 0.850300 0.842137 0.834672 0.827935 0.821950 0.816731 0.812288 0.808626 0.805741 0.803627 0.802272 0.801659 0.801768 0.802575 0.804053 0.806174 0.808905 0.812216 0.816070 0.820433 0.825270 0.830544 0.836218 0.842257 0.848625 0.855287 0.862209 0.869358 0.876702 0.884209 0.891850 0.899598 0.907425 0.915306 0.923213 0.931118 0.938993 0.946800 0.954501 0.962050 0.969397 0.976485 0.983254 0.989639 0.995575 1.000992 1.005821 1.009994 1.013444 1.016108 1.017928 1.018852 1.018837 1.017854 1.015883 1.012922 1.008978 1.004076 0.998254 0.991563 0.984063 0.975828 0.966939 0.957484 0.947556 0.937253 0.926674 0.915919 0.905087 0.894275 0.883576 0.873079 0.862868 0.853021 0.843610 0.834699 0.826344 0.818598 0.811501 0.805090 0.799393 0.794431 0.790219 0.786766 0.784073 0.782137 0.780951 0.780502 0.780772 0.781741 0.783384 0.785673 0.788581 0.792076 0.796125 0.800693 0.805746 0.811248 0.817163 0.823455 0.830088 0.837027 0.844237 0.851686 0.859339 0.867166 0.875137 0.883221 0.891392 0.899623 0.907889 0.916163 0.924419 0.932623 0.940741 0.948733 0.956551 0.964146 0.971459 0.978430 0.984995 0.991087 0.996636 1.001574 1.005834 1.009349 1.012057 1.013900 1.014823 1.014780 1.013729 1.011634 1.008469 1.004214 0.998854 0.992385 0.984808 0.976133 0.966373 0.955552 0.943696 0.930839 0.917018 0.902276 0.886659 0.870217 0.853001 0.835067 0.816471 0.797271 0.777525 0.757292 0.736631 0.715601 0.694260 0.672663 0.650866 0.628924 0.606887 0.584806 0.562729 0.540701 0.518765 0.496962 0.475330 0.453904 0.432718 0.411804 0.391188 0.370896 0.350951 0.331373 0.312182 0.293393 0.275020 0.257077 0.239573 0.222516 0.205913 0.189769 0.174089 0.158873 0.144123 0.129838 0.116018 0.102659 0.089758 0.077312 0.065321 0.053784 0.042708 0.032100 0.021974 0.012348 0.003246 -0.005305 -0.013274 -0.020627 -0.027328 -0.033339 -0.038623 -0.043141 -0.046858 -0.049741 -0.051757 -0.052879 -0.053084 -0.052353 -0.050671 -0.048028 -0.044420 -0.039848 -0.034318 -0.027840 -0.020429 -0.012106 -0.002895 0.007176 0.018076 0.029768 0.042216 0.055378 0.069213 0.083675 0.098721 0.114302 0.130373 0.146884 0.163789 0.181041 0.198593 0.216399 0.234416 0.252599 0.270905 0.289295 0.307729 0.326170 0.344582 0.362931 0.381185 0.399316 0.417293 0.435093 0.452692 0.470067 0.487196 0.504062 0.520643 0.536918 0.552866 0.568458 0.583666 0.598455 0.612789 0.626626 0.639922 0.652633 0.664710 0.676107 0.686774 0.696667 0.705740 0.713953 0.721269 0.727659 0.733102 0.737586 0.741108 0.743678 0.745315 0.746049 0.745919 0.744975 0.743272 0.740875 0.737853 0.734279 0.730230 0.725783 0.721019 0.716015 0.710849 0.705595 0.700326 0.695108 0.690006 0.685077 0.680376 0.675951 0.671843 0.668091 0.664726 0.661773 0.659254 0.657185 0.655575 0.654432 0.653758 0.653549 0.653802 0.654507 0.655653 0.657224 0.659203 0.661573 0.664313 0.667403 0.670819 0.674538 0.678537 0.682791 0.687275 0.691967 0.696841 0.701875 0.707045 0.712329 0.717707 0.723156 0.728658 0.734195 0.739748 0.745300 0.750834 0.756330 0.761769 0.767125 0.772371 0.777475 0.782400 0.787106 0.791549 0.795683 0.799459 0.802827 0.805735 0.808135 0.809977 0.811214 0.811804 0.811707 0.810892 0.809334 0.807018 0.803937 0.800099 0.795518 0.790221 0.784246 0.777637 0.770449 0.762743 0.754586 0.746051 0.737210 0.728143 0.718926 0.709637 0.700353 0.691146 0.682087 0.673244 0.664678 0.656448 0.648605 0.641196 0.634262 0.627839 0.621957 0.616638 0.611903 0.607763 0.604228 0.601302 0.598982 0.597264 0.596139 0.595595 0.595617 0.596187 0.597282 0.598882 0.600964 0.603501 0.606467 0.609835 0.613576 0.617664 0.622069 0.626763 0.631718 0.636908 0.642305 0.647883 0.653618 0.659484 0.665460 0.671523 0.677651 0.683824 0.690023 0.696226 0.702410 0.708552 0.714621 0.720586 0.726409 0.732049 0.737462 0.742600 0.747414 0.751852 0.755861 0.759390 0.762388 0.764805 0.766596 0.767717 0.768130 0.767806 0.766719 0.764856 0.762214 0.758797 0.754625 0.749724 0.744133 0.737900 0.731080 0.723736 0.715937 0.707756 0.699270 0.690557 0.681697 0.672769 0.663850 0.655015 0.646338 0.637884 0.629719 0.621899 0.614479 0.607505 0.601019 0.595056 0.589647 0.584815 0.580580 0.576953 0.573942 0.571552 0.569780 0.568620 0.568064 0.568097 0.568704 0.569865 0.571559 0.573763 0.576453 0.579602 0.583183 0.587166 0.591523 0.596226 0.601244 0.606549 0.612113 0.617906 0.623901 0.630072 0.636393 0.642839 0.649385 0.656010 0.662691 0.669408 0.676141 0.682869 0.689570 0.696219 0.702789 0.709247 0.715558 0.721681 0.727573 0.733186 0.738472 0.743379 0.747856 0.751850 0.755311 0.758188 0.760437 0.762012 0.762875 0.762990 0.762328 0.760863 0.758576 0.755452 0.751483 0.746667 0.741005 0.734506 0.727182 0.719052 0.710135 0.700460 0.690055 0.678952 0.667189 0.654802 0.641832 0.628321 0.614312 0.599849 0.584976 0.569738 0.554180 0.538346 0.522280 0.506024 0.489621 0.473110 0.456531 0.439921 0.423316 0.406751 0.390258 0.373867 0.357607 0.341505 0.325586 0.309872 0.294383 0.279139 0.264158 0.249454 0.235041 0.220932 0.207137 0.193665 0.180523 0.167718 0.155254 0.143136 0.131365 0.119944 0.108873 0.098151 0.087777 0.077749 0.068066 0.058727 0.049734 0.041099 0.032837 0.024974 0.017548 0.010603 0.004196 -0.001608 -0.006736 -0.011111 -0.014648 -0.017261 -0.018864 -0.019371 -0.018698 -0.016766 -0.013503 -0.008843 -0.002726 0.004895 0.014061 0.024801 0.037134 0.051069 0.066605 0.083730 0.102422 0.122653 0.144381 0.167561 0.192137 0.218047 0.245226 0.273599 0.303091 0.333622 0.365107 0.397461 0.430597 0.464428 0.498867 0.533826 0.569219 0.604961 0.640968 0.677160 0.713458 0.749787 0.786075 0.822252 0.858253 0.894017 0.929484 0.964600 0.999316 1.033584 1.067360 1.100605 1.133283 1.165359 1.196797 1.227562 1.257609 1.286891 1.315352 1.342929 1.369550 1.395138 1.419610 1.442877 1.464849 1.485434 1.504539 1.522076 1.537959 1.552109 1.564455 1.574941 1.583525 1.590183 1.594913 1.597731 1.598678 1.597812 1.595214 1.590981 1.585228 1.578081 1.569682 1.560177 1.549722 1.538475 1.526597 1.514246 1.501580 1.488751 1.475904 1.463177 1.450701 1.438594 1.426968 1.415919 1.405537 1.395898 1.387066 1.379097 1.372032 1.365907 1.360743 1.356555 1.353347 1.351117 1.349855 1.349543 1.350158 1.351671 1.354050 1.357258 1.361253 1.365994 1.371433 1.377525 1.384220 1.391470 1.399226 1.407438 1.416057 1.425036 1.434329 1.443889 1.453672 1.463638 1.473745 1.483954 1.494229 1.504535 1.514837 1.525097 1.535275 1.545322 1.555185 1.564799 1.574093 1.582989 1.591399 1.599230 1.606387 1.612767 1.618270 1.622796 1.626245 1.628523 1.629543 1.629225 1.627506 1.624334 1.619679 1.613529 1.605895 1.596808 1.586320 1.574504 1.561450 1.547264 1.532068 1.515993 1.499180 1.481776 1.463933 1.445803 1.427538 1.409288 1.391196 1.373400 1.356033 1.339214 1.323058 1.307664 1.293126 1.279522 1.266921 1.255381 1.244948 1.235658 1.227537 1.220601 1.214855 1.210297 1.206918 1.204698 1.203616 1.203638 1.204730 1.206853 1.209962 1.214010 1.218947 1.224721 1.231279 1.238565 1.246526 1.255105 1.264247 1.273898 1.284005 1.294515 1.305377 1.316543 1.327964 1.339596 1.351395 1.363321 1.375333 1.387391 1.399454 1.411478 1.423409 1.435190 1.446753 1.458024 1.468920 1.479350 1.489219 1.498427 1.506870 1.514444 1.521045 1.526573 1.530930 1.534027 1.535784 1.536135 1.535029 1.532434 1.528341 1.522759 1.515721 1.507278 1.497504 1.486489 1.474339 1.461174 1.447125 1.432333 1.416943 1.401104 1.384968 1.368684 1.352399 1.336255 1.320388 1.304926 1.289989 1.275687 1.262119 1.249373 1.237528 1.226650 1.216796 1.208010 1.200325 1.193768 1.188351 1.184080 1.180953 1.178959 1.178079 1.178289 1.179559 1.181852 1.185129 1.189347 1.194459 1.200416 1.207167 1.214658 1.222837 1.231648 1.241039 1.250954 1.261340 1.272146 1.283319 1.294812 1.306574 1.318561 1.330728 1.343034 1.355437 1.367900 1.380383 1.392846 1.405241 1.417517 1.429614 1.441465 1.452993 1.464114 1.474738 1.484767 1.494103 1.502641 1.510278 1.516911 1.522440 1.526769 1.529810 1.531479 1.531703 1.530418 1.527568 1.523111 1.517013 1.509252 1.499819 1.488712 1.475945 1.461537 1.445519 1.427931 1.408822 1.388247 1.366269 1.342957 1.318384 1.292628 1.265772 1.237900 1.209099 1.179456 1.149062 1.118004 1.086372 1.054251 1.021730 0.988890 0.955815 0.922582 0.889268 0.855945 0.822683 0.789547 0.756600 0.723900 0.691501 0.659455 0.627809 0.596605 0.565883 0.535677 0.506021 0.476941 0.448464 0.420612 0.393404 0.366856 0.340980 0.315788 0.291287 0.267484 0.244382 0.221983 0.200287 0.179291 0.158992 0.139385 0.120467 0.102232 0.084680 0.067811 0.051632 0.036153 0.021387 0.007354 -0.005923 -0.018416 -0.030098 -0.040934 -0.050894 -0.059943 -0.068048 -0.075179 -0.081306 -0.086401 -0.090443 -0.093413 -0.095294 -0.096079 -0.095760 -0.094339 -0.091819 -0.088212 -0.083531 -0.077796 -0.071030 -0.063263 -0.054525 -0.044853 -0.034284 -0.022861 -0.010626 0.002374 0.016091 0.030478 0.045485 0.061061 0.077155 0.093718 0.110699 0.128050 0.145723 0.163669 0.181844 0.200201 0.218698 0.237294 0.255949 0.274624 0.293285 0.311896 0.330426 0.348846 0.367126 0.385244 0.403172 0.420890 0.438374 0.455604 0.472556 0.489207 0.505527 0.521486 0.537048 0.552174 0.566821 0.580945 0.594499 0.607433 0.619699 0.631247 0.642030 0.652003 0.661122 0.669351 0.676658 0.683020 0.688423 0.692863 0.696346 0.698890 0.700524 0.701285 0.701220 0.700384 0.698841 0.696659 0.693910 0.690670 0.687018 0.683032 0.678791 0.674374 0.669854 0.665303 0.660791 0.656382 0.652133 0.648101 0.644333 0.640873 0.637759 0.635023 0.632691 0.630785 0.629321 0.628311 0.627760 0.627673 0.628046 0.628875 0.630150 0.631861 0.633993 0.636528 0.639448 0.642733 0.646363 0.650314 0.654563 0.659086 0.663859 0.668857 0.674055 0.679431 0.684959 0.690617 0.696383 0.702234 0.708151 0.714112 0.720102 0.726100 0.732089 0.738052 0.743971 0.749825 0.755591 0.761242 0.766746 0.772070 0.777172 0.782010 0.786539 0.790709 0.794472 0.797776 0.800572 0.802810 0.804445 0.805432 0.805733 0.805316 0.804157 0.802243 0.799569 0.796141 0.791978 0.787105 0.781562 0.775393 0.768654 0.761406 0.753715 0.745652 0.737292 0.728709 0.719981 0.711182 0.702388 0.693670 0.685097 0.676734 0.668640 0.660872 0.653479 0.646507 0.639995 0.633977 0.628481 0.623529 0.619140 0.615325 0.612091 0.609443 0.607378 0.605891 0.604972 0.604611 0.604791 0.605495 0.606702 0.608389 0.610536 0.613117 0.616105 0.619476 0.623201 0.627253 0.631606 0.636232 0.641104 0.646195 0.651481 0.656935 0.662535 0.668256 0.674076 0.679977 0.685935 0.691931 0.697946 0.703958 0.709944 0.715878 0.721730 0.727466 0.733046 0.738430 0.743571 0.748422 0.752930 0.757045 0.760714 0.763886 0.766510 0.768538 0.769926 0.770635 0.770630 0.769888 0.768392 0.766137 0.763129 0.759384 0.754928 0.749797 0.744038 0.737704 0.730856 0.723561 0.715889 0.707915 0.699715 0.691365 0.682942 0.674520 0.666172 0.657968 0.649972 0.642245 0.634845 0.627821 0.621220 0.615081 0.609438 0.604321 0.599751 0.595747 0.592321 0.589481 0.587230 0.585566 0.584484 0.583975 0.584026 0.584622 0.585745 0.587372 0.589483 0.592055 0.595062 0.598478 0.602277 0.606430 0.610910 0.615688 0.620739 0.626033 0.631545 0.637247 0.643116 0.649125 0.655251 0.661472 0.667766 0.674113 0.680492 0.686884 0.693268 0.699622 0.705920 0.712133 0.718227 0.724165 0.729906 0.735404 0.740612 0.745479 0.749955 0.753987 0.757523 0.760513 0.762908 0.764664 0.765737 0.766090 0.765690 0.764509 0.762523 0.759715 0.756073 0.751590 0.746266 0.740106 0.733118 0.725317 0.716724 0.707360 0.697253 0.686435 0.674938 0.662800 0.650060 0.636757 0.622935 0.608636 0.593905 0.578787 0.563325 0.547565 0.531550 0.515324 0.498928 0.482405 0.465794 0.449133 0.432459 0.415807 0.399211 0.382702 0.366310 0.350062 0.333985 0.318103 0.302437 0.287008 0.271833 0.256929 0.242311 0.227991 0.213981 0.200292 0.186930 0.173904 0.161219 0.148878 0.136886 0.125244 0.113954 0.103015 0.092427 0.082188 0.072295 0.062748 0.053545 0.044688 0.036183 0.028044 0.020287 0.012938 0.006027 -0.000407 -0.006323 -0.011672 -0.016403 -0.020462 -0.023794 -0.026345 -0.028059 -0.028886 -0.028776 -0.027685 -0.025575 -0.022410 -0.018163 -0.012813 -0.006344 0.001250 0.009972 0.019815 0.030767 0.042809 0.055918 0.070063 0.085209 0.101316 0.118340 0.136233 0.154945 0.174422 0.194608 0.215446 0.236878 0.258843 0.281282 0.304137 0.327347 0.350856 0.374605 0.398539 0.422604 0.446748 0.470919 0.495070 0.519155 0.543129 0.566953 0.590587 0.613995 0.637144 0.660003 0.682543 0.704738 0.726562 0.747993 0.769006 0.789574 0.809667 0.829249 0.848282 0.866719 0.884512 0.901607 0.917946 0.933470 0.948116 0.961824 0.974533 0.986183 0.996718 1.006088 1.014247 1.021161 1.026805 1.031167 1.034248 1.036064 1.036645 1.036033 1.034286 1.031472 1.027668 1.022962 1.017449 1.011228 1.004404 0.997082 0.989370 0.981372 0.973192 0.964931 0.956685 0.948543 0.940591 0.932907 0.925561 0.918618 0.912133 0.906156 0.900727 0.895882 0.891646 0.888040 0.885078 0.882767 0.881109 0.880100 0.879731 0.879992 0.880863 0.882326 0.884357 0.886931 0.890020 0.893596 0.897626 0.902079 0.906924 0.912125 0.917652 0.923471 0.929549 0.935854 0.942357 0.949025 0.955831 0.962747 0.969746 0.976802 0.983892 0.990991 0.998077 1.005125 1.012106 1.018987 1.025732 1.032297 1.038635 1.044691 1.050407 1.055722 1.060569 1.064884 1.068598 1.071645 1.073960 1.075483 1.076156 1.075933 1.074773 1.072649 1.069549 1.065470 1.060428 1.054449 1.047575 1.039860 1.031367 1.022172 1.012357 1.002011 0.991228 0.980105 0.968742 0.957236 0.945686 0.934186 0.922829 0.911700 0.900882 0.890450 0.880472 0.871012 0.862123 0.853854 0.846245 0.839330 0.833134 0.827677 0.822972 0.819026 0.815840 0.813410 0.811726 0.810776 0.810540 0.810998 0.812124 0.813893 0.816275 0.819238 0.822750 0.826777 0.831285 0.836237 0.841598 0.847334 0.853409 0.859788 0.866438 0.873326 0.880419 0.887687 0.895100 0.902631 0.910252 0.917936 0.925660 0.933394 0.941112 0.948779 0.956358 0.963806 0.971076 0.978112 0.984856 0.991247 0.997217 1.002699 1.007624 1.011923 1.015528 1.018376 1.020404 1.021559 1.021793 1.021070 1.019364 1.016666 1.012977 1.008314 1.002708 0.996203 0.988856 0.980735 0.971917 0.962487 0.952537 0.942163 0.931464 0.920541 0.909494 0.898422 0.887421 0.876582 0.865994 0.855738 0.845889 0.836516 0.827681 0.819438 0.811833 0.804907 0.798691 0.793211 0.788485 0.784525 0.781335 0.778916 0.777262 0.776363 0.776202 0.776762 0.778018 0.779945 0.782515 0.785697 0.789459 0.793767 0.798585 0.803878 0.809609 0.815742 0.822241 0.829070 0.836193 0.843577 0.851186 0.858990 0.866956 0.875054 0.883256 0.891534 0.899863 0.908215 0.916566 0.924885 0.933139 0.941290 0.949297 0.957110 0.964676 0.971936 0.978827 0.985285 0.991240 0.996625 1.001370 1.005409 1.008677 1.011112 1.012659 1.013265 1.012886 1.011483 1.009024 1.005484 1.000845 0.995099 0.988242 0.980278 0.971220 0.961084 0.949896 0.937685 0.924485 0.910337 0.895285 0.879377 0.862662 0.845195 0.827030 0.808226 0.788839 0.768929 0.748555 0.727776 0.706649 0.685232 0.663582 0.641752 0.619797 0.597766 0.575710 0.553675 0.531706 0.509845 0.488131 0.466602 0.445292 0.424233 0.403457 0.382989 0.362853 0.343071 0.323664 0.304650 0.286043 0.267857 0.250103 0.232791 0.215929 0.199522 0.183576 0.168093 0.153074 0.138521 0.124432 0.110805 0.097638 0.084928 0.072675 0.060884 0.049564 0.038736 0.028426 0.018674 0.009528 0.001046 -0.006707 -0.013658 -0.019727 -0.024832 -0.028889 -0.031814 -0.033523 -0.033937 -0.032983 -0.030591 -0.026700 -0.021259 -0.014224 -0.005562 0.004751 0.016727 0.030370 0.045672 0.062615 0.081173 0.101309 0.122979 0.146132 0.170708 0.196640 0.223860 0.252290 0.281850 0.312458 0.344027 0.376471 0.409701 0.443625 0.478157 0.513208 0.548692 0.584521 0.620614 0.656889 0.693267 0.729673 0.766034 0.802283 0.838354 0.874185 0.909719 0.944901 0.979681 1.014014 1.047858 1.081171 1.113919 1.146065 1.177574 1.208404 1.238511 1.267842 1.296338 1.323931 1.350548 1.376107 1.400523 1.423704 1.445560 1.465996 1.484923 1.502250 1.517894 1.531778 1.543835 1.554012 1.562273 1.568599 1.572993 1.575478 1.576100 1.574925 1.572037 1.567540 1.561551 1.554203 1.545639 1.536009 1.525471 1.514185 1.502311 1.490009 1.477436 1.464742 1.452073 1.439566 1.427348 1.415536 1.404239 1.393551 1.383560 1.374337 1.365946 1.358438 1.351853 1.346222 1.341566 1.337896 1.335214 1.333515 1.332787 1.333011 1.334161 1.336207 1.339113 1.342843 1.347353 1.352600 1.358537 1.365116 1.372288 1.380003 1.388211 1.396863 1.405910 1.415304 1.424997 1.434945 1.445103 1.455430 1.465885 1.476430 1.487028 1.497644 1.508242 1.518785 1.529230 1.539528 1.549623 1.559449 1.568934 1.577997 1.586549 1.594498 1.601745 1.608189 1.613730 1.618267 1.621702 1.623942 1.624902 1.624506 1.622693 1.619419 1.614659 1.608407 1.600680 1.591517 1.580975 1.569132 1.556084 1.541940 1.526825 1.510873 1.494226 1.477033 1.459444 1.441610 1.423682 1.405806 1.388125 1.370773 1.353878 1.337556 1.321917 1.307058 1.293066 1.280018 1.267977 1.256997 1.247121 1.238382 1.230801 1.224392 1.219157 1.215092 1.212185 1.210416 1.209759 1.210183 1.211649 1.214118 1.217545 1.221883 1.227082 1.233089 1.239852 1.247316 1.255427 1.264129 1.273370 1.283094 1.293250 1.303787 1.314654 1.325803 1.337189 1.348769 1.360499 1.372338 1.384249 1.396190 1.408120 1.419990 1.431748 1.443330 1.454668 1.465682 1.476288 1.486393 1.495898 1.504703 1.512704 1.519796 1.525877 1.530848 1.534612 1.537085 1.538190 1.537866 1.536067 1.532769 1.527966 1.521677 1.513939 1.504812 1.494372 1.482718 1.469958 1.456219 1.441633 1.426346 1.410504 1.394259 1.377762 1.361165 1.344613 1.328248 1.312206 1.296613 1.281586 1.267234 1.253654 1.240932 1.229144 1.218354 1.208615 1.199969 1.192448 1.186072 1.180856 1.176800 1.173900 1.172143 1.171509 1.171970 1.173496 1.176047 1.179583 1.184060 1.189428 1.195639 1.202639 1.210375 1.218792 1.227836 1.237452 1.247586 1.258182 1.269191 1.280559 1.292237 1.304177 1.316333 1.328661 1.341119 1.353667 1.366266 1.378877 1.391457 1.403959 1.416328 1.428505 1.440418 1.451991 1.463137 1.473765 1.483777 1.493073 1.501547 1.509098 1.515622 1.521021 1.525199 1.528069 1.529550 1.529570 1.528066 1.524987 1.520289 1.513944 1.505931 1.496242 1.484879 1.471857 1.457197 1.440933 1.423106 1.403766 1.382971 1.360784 1.337275 1.312519 1.286594 1.259584 1.231574 1.202650 1.172902 1.142417 1.111285 1.079595 1.047432 1.014884 0.982032 0.948960 0.915743 0.882459 0.849179 0.815972 0.782903 0.750033 0.717420 0.685117 0.653176 0.621642 0.590558 0.559961 0.529886 0.500365 0.471425 0.443092 0.415387 0.388327 0.361929 0.336205 0.311166 0.286819 0.263169 0.240220 0.217973 0.196427 0.175580 0.155429 0.135968 0.117192 0.099098 0.081683 0.064950 0.048907 0.033567 0.018952 0.005087 -0.007995 -0.020257 -0.031657 -0.042150 -0.051689 -0.060224 -0.067708 -0.074095 -0.079339 -0.083399 -0.086239 -0.087828 -0.088137 -0.087149 -0.084848 -0.081228 -0.076288 -0.070035 -0.062482 -0.053647 -0.043556 -0.032241 -0.019737 -0.006087 0.008664 0.024467 0.041267 0.059009 0.077634 0.097082 0.117289 0.138195 0.159731 0.181838 0.204452 0.227509 0.250949 0.274710 0.298733 0.322960 0.347337 0.371810 0.396327 0.420840 0.445303 0.469671 0.493904 0.517962 0.541811 0.565419 0.588751 0.611780 0.634479 0.656822 0.678781 0.700327 0.721424 0.742036 0.762119 0.781626 0.800503 0.818693 0.836138 0.852773 0.868537 0.883364 0.897194 0.909965 0.921621 0.932110 0.941389 0.949423 0.956190 0.961681 0.965899 0.968864 0.970607 0.971174 0.970625 0.969028 0.966464 0.963021 0.958794 0.953883 0.948390 0.942421 0.936079 0.929471 0.922695 0.915850 0.909029 0.902319 0.895802 0.889552 0.883637 0.878119 0.873049 0.868473 0.864431 0.860953 0.858064 0.855781 0.854116 0.853074 0.852656 0.852856 0.853664 0.855067 0.857048 0.859583 0.862651 0.866226 0.870280 0.874784 0.879707 0.885018 0.890684 0.896673 0.902953 0.909491 0.916257 0.923217 0.930344 0.937607 0.944978 0.952432 0.959942 0.967484 0.975033 0.982568 0.990065 0.997498 1.004837 1.012050 1.019096 1.025931 1.032505 1.038762 1.044643 1.050086 1.055024 1.059392 1.063122 1.066148 1.068408 1.069842 1.070396 1.070024 1.068690 1.066369 1.063050 1.058737 1.053446 1.047209 1.040068 1.032081 1.023316 1.013849 1.003767 0.993159 0.982124 0.970760 0.959167 0.947446 0.935696 0.924014 0.912492 0.901216 0.890271 0.879731 0.869665 0.860136 0.851199 0.842900 0.835281 0.828374 0.822204 0.816791 0.812146 0.808277 0.805182 0.802857 0.801293 0.800473 0.800381 0.800992 0.802280 0.804220 0.806781 0.809930 0.813634 0.817859 0.822569 0.827727 0.833298 0.839245 0.845533 0.852127 0.858992 0.866095 0.873403 0.880885 0.888511 0.896254 0.904085 0.911977 0.919905 0.927842 0.935758 0.943621 0.951392 0.959029 0.966482 0.973699 0.980620 0.987183 0.993322 0.998969 1.004054 1.008510 1.012268 1.015264 1.017437 1.018733 1.019106 1.018520 1.016952 1.014392 1.010844 1.006326 1.000871 0.994523 0.987342 0.979394 0.970758 0.961520 0.951771 0.941607 0.931126 0.920430 0.909617 0.898785 0.888029 0.877440 0.867104 0.857102 0.847506 0.838386 0.829801 0.821803 0.814440 0.807748 0.801761 0.796500 0.791984 0.788224 0.785224 0.782984 0.781496 0.780751 0.780733 0.781422 0.782795 0.784825 0.787486 0.790746 0.794573 0.798934 0.803794 0.809117 0.814867 0.821009 0.827506 0.834323 0.841426 0.848780 0.856352 0.864110 0.872024 0.880063 0.888200 0.896407 0.904659 0.912931 0.921195 0.929421 0.937576 0.945621 0.953512 0.961200 0.968631 0.975744 0.982478 0.988764 0.994537 0.999726 1.004263 1.008082 1.011118 1.013312 1.014608 1.014955 1.014310 1.012635 1.009900 1.006081 1.001163 0.995136 0.988001 0.979762 0.970433 0.960032 0.948586 0.936124 0.922682 0.908303 0.893029 0.876909 0.859996 0.842342 0.824003 0.805037 0.785501 0.765455 0.744958 0.724068 0.702843 0.681341 0.659617 0.637726 0.615721 0.593651 0.571567 0.549513 0.527535 0.505673 0.483968 0.462455 0.441170 0.420143 0.399404 0.378979 0.358892 0.339165 0.319817 0.300865 0.282324 0.264207 0.246526 0.229289 0.212504 0.196176 0.180309 0.164907 0.149971 0.135500 0.121494 0.107950 0.094866 0.082240 0.070072 0.058367 0.047137 0.036404 0.026198 0.016558 0.007536 -0.000810 -0.008412 -0.015195 -0.021080 -0.025985 -0.029824 -0.032513 -0.033970 -0.034117 -0.032880 -0.030193 -0.025996 -0.020238 -0.012879 -0.003887 0.006759 0.019071 0.033048 0.048682 0.065953 0.084832 0.105281 0.127255 0.150700 0.175556 0.201755 0.229226 0.257892 0.287672 0.318483 0.350238 0.382850 0.416229 0.450286 0.484933 0.520081 0.555644 0.591537 0.627677 0.663982 0.700375 0.736782 0.773131 0.809353 0.845384 0.881164 0.916636 0.951745 0.986444 1.020686 1.054430 1.087637 1.120271 1.152296 1.183676 1.214368 1.244328 1.273500 1.301824 1.329232 1.355647 1.380988 1.405166 1.428093 1.449675 1.469820 1.488436 1.505436 1.520737 1.534264 1.545954 1.555758 1.563645 1.569603 1.573640 1.575788 1.576096 1.574637 1.571500 1.566794 1.560640 1.553173 1.544538 1.534887 1.524377 1.513167 1.501419 1.489288 1.476929 1.464490 1.452112 1.439929 1.428064 1.416630 1.405731 1.395459 1.385894 1.377107 1.369154 1.362086 1.355937 1.350735 1.346499 1.343235 1.340946 1.339622 1.339249 1.339808 1.341270 1.343605 1.346776 1.350746 1.355471 1.360908 1.367009 1.373727 1.381013 1.388819 1.397093 1.405789 1.414858 1.424252 1.433926 1.443835 1.453937 1.464189 1.474555 1.484996 1.495476 1.505961 1.516415 1.526798 1.537065 1.547166 1.557039 1.566618 1.575826 1.584579 1.592787 1.600355 1.607183 1.613171 1.618216 1.622221 1.625088 1.626726 1.627054 1.625998 1.623501 1.619524 1.614043 1.607060 1.598595 1.588690 1.577408 1.564831 1.551057 1.536203 1.520395 1.503770 1.486474 1.468657 1.450474 1.432078 1.413620 1.395248 1.377107 1.359331 1.342048 1.325377 1.309426 1.294291 1.280061 1.266809 1.254601 1.243488 1.233513 1.224706 1.217089 1.210672 1.205458 1.201441 1.198606 1.196932 1.196393 1.196954 1.198577 1.201219 1.204836 1.209378 1.214793 1.221028 1.228029 1.235740 1.244105 1.253068 1.262575 1.272570 1.283000 1.293813 1.304958 1.316386 1.328051 1.339909 1.351916 1.364031 1.376214 1.388426 1.400623 1.412757 1.424774 1.436613 1.448202 1.459464 1.470312 1.480654 1.490392 1.499425 1.507648 1.514957 1.521250 1.526428 1.530395 1.533068 1.534374 1.534254 1.532671 1.529605 1.525057 1.519052 1.511632 1.502862 1.492826 1.481621 1.469363 1.456176 1.442196 1.427564 1.412426 1.396932 1.381229 1.365462 1.349774 1.334302 1.319172 1.304508 1.290419 1.277009 1.264367 1.252574 1.241701 1.231805 1.222935 1.215128 1.208411 1.202803 1.198311 1.194937 1.192671 1.191499 1.191399 1.192344 1.194301 1.197230 1.201093 1.205843 1.211434 1.217817 1.224939 1.232750 1.241196 1.250224 1.259781 1.269815 1.280275 1.291109 1.302269 1.313708 1.325379 1.337239 1.349247 1.361361 1.373544 1.385758 1.397962 1.410112 1.422157 1.434039 1.445693 1.457045 1.468011 1.478504 1.488427 1.497681 1.506163 1.513770 1.520398 1.525947 1.530321 1.533428 1.535184 1.535515 1.534353 1.531642 1.527336 1.521399 1.513808 1.504551 1.493624 1.481037 1.466810 1.450970 1.433555 1.414614 1.394198 1.372371 1.349199 1.324755 1.299116 1.272364 1.244582 1.215857 1.186277 1.155930 1.124906 1.093292 1.061176 1.028645 0.995783 0.962671 0.929390 0.896014 0.862619 0.829274 0.796045 0.762995 0.730184 0.697665 0.665492 0.633711 0.602368 0.571501 0.541146 0.511336 0.482100 0.453464 0.425451 0.398080 0.371368 0.345328 0.319972 0.295308 0.271342 0.248078 0.225519 0.203664 0.182512 0.162059 0.142301 0.123233 0.104847 0.087139 0.070107 0.053753 0.038085 0.023115 0.008864 -0.004642 -0.017372 -0.029288 -0.040349 -0.050508 -0.059721 -0.067937 -0.075108 -0.081189 -0.086135 -0.089903 -0.092459 -0.093769 -0.093808 -0.092556 -0.089998 -0.086127 -0.080943 -0.074453 -0.066668 -0.057608 -0.047299 -0.035771 -0.023060 -0.009209 0.005737 0.021729 0.038713 0.056634 0.075432 0.095047 0.115418 0.136480 0.158169 0.180424 0.203180 0.226376 0.249949 0.273839 0.297987 0.322335 0.346828 0.371412 0.396037 0.420653 0.445215 0.469679 0.494004 0.518150 0.542084 0.565771 0.589181 0.612283 0.635052 0.657461 0.679483 0.701088 0.722242 0.742908 0.763041 0.782595 0.801516 0.819748 0.837231 0.853902 0.869699 0.884557 0.898415 0.911212 0.922891 0.933401 0.942698 0.950749 0.957531 0.963034 0.967262 0.970235 0.971985 0.972557 0.972011 0.970416 0.967852 0.964408 0.960178 0.955262 0.949764 0.943787 0.937438 0.930820 0.924034 0.917178 0.910345 0.903622 0.897092 0.890827 0.884897 0.879363 0.874276 0.869684 0.865624 0.862128 0.859221 0.856919 0.855235 0.854174 0.853736 0.853915 0.854704 0.856087 0.858046 0.860560 0.863608 0.867162 0.871196 0.875680 0.880583 0.885873 0.891519 0.897488 0.903748 0.910267 0.917012 0.923954 0.931061 0.938305 0.945657 0.953092 0.960585 0.968108 0.975640 0.983158 0.990637 0.998053 1.005377 1.012573 1.019603 1.026422 1.032981 1.039223 1.045090 1.050518 1.055443 1.059796 1.063513 1.066527 1.068774 1.070196 1.070737 1.070353 1.069008 1.066676 1.063346 1.059023 1.053722 1.047474 1.040324 1.032328 1.023553 1.014078 1.003986 0.993371 0.982328 0.970955 0.959355 0.947627 0.935870 0.924181 0.912652 0.901371 0.890419 0.879873 0.869801 0.860267 0.851324 0.843021 0.835396 0.828484 0.822310 0.816892 0.812243 0.808370 0.805271 0.802943 0.801375 0.800552 0.800455 0.801063 0.802349 0.804286 0.806843 0.809990 0.813692 0.817914 0.822621 0.827776 0.833345 0.839290 0.845576 0.852168 0.859031 0.866132 0.873439 0.880919 0.888545 0.896287 0.904116 0.912007 0.919933 0.927869 0.935784 0.943645 0.951415 0.959050 0.966503 0.973719 0.980639 0.987201 0.993339 0.998985 1.004070 1.008524 1.012282 1.015277 1.017449 1.018745 1.019117 1.018531 1.016962 1.014401 1.010853 1.006335 1.000879 0.994531 0.987349 0.979401 0.970765 0.961526 0.951777 0.941612 0.931132 0.920435 0.909622 0.898790 0.888034 0.877444 0.867108 0.857105 0.847510 0.838389 0.829804 0.821806 0.814443 0.807751 0.801763 0.796502 0.791986 0.788226 0.785226 0.782985 0.781498 0.780753 0.780735 0.781424 0.782795 0.784825 0.787486 0.790746 0.794573 0.798934 0.803794 0.809117 0.814867 0.821009 0.827506 0.834323 0.841426 0.848780 0.856352 0.864110 0.872024 0.880063 0.888200 0.896407 0.904659 0.912931 0.921195 0.929421 0.937576 0.945621 0.953512 0.961200 0.968631 0.975744 0.982478 0.988764 0.994537 0.999726 1.004263 1.008082 1.011118 1.013312 1.014608 1.014955 1.014310 1.012635 1.009900 1.006081 1.001163 0.995136 0.988001 0.979762 0.970433 0.960032 0.948586 0.936124 0.922682 0.908303 0.893029 0.876909 0.859996 0.842342 0.824003 0.805037 0.785501 0.765455 0.744958 0.724068 0.702843 0.681341 0.659617 0.637726 0.615721 0.593651 0.571567 0.549513 0.527535 0.505673 0.483968 0.462455 0.441170 0.420143 0.399404 0.378979 0.358892 0.339165 0.319817 0.300865 0.282324 0.264207 0.246526 0.229289 0.212504 0.196176 0.180309 0.164907 0.149971 0.135500 0.121494 0.107950 0.094866 0.082239 0.070067 0.058351 0.047095 0.036306 0.025998 0.016188 0.006899 -0.001845 -0.010010 -0.017566 -0.024474 -0.030699 -0.036201 -0.040944 -0.044891 -0.048008 -0.050263 -0.051628 -0.052078 -0.051593 -0.050158 -0.047763 -0.044401 -0.040073 -0.034783 -0.028542 -0.021363 -0.013266 -0.004274 0.005586 0.016281 0.027779 0.040040 0.053026 0.066694 0.081001 0.095900 0.111346 0.127292 0.143689 0.160490 0.177649 0.195118 0.212852 0.230806 0.248935 0.267198 0.285553 0.303961 0.322383 0.340785 0.359131 0.377389 0.395530 0.413525 0.431348 0.448975 0.466382 0.483550 0.500458 0.517086 0.533414 0.549419 0.565076 0.580355 0.595223 0.609643 0.623576 0.636978 0.649804 0.662007 0.673539 0.684352 0.694399 0.703637 0.712022 0.719518 0.726094 0.731726 0.736401 0.740115 0.742874 0.744696 0.745608 0.745648 0.744864 0.743309 0.741048 0.738147 0.734680 0.730722 0.726351 0.721647 0.716688 0.711552 0.706314 0.701046 0.695816 0.690690 0.685727 0.680981 0.676501 0.672331 0.668510 0.665070 0.662038 0.659436 0.657281 0.655583 0.654352 0.653589 0.653293 0.653460 0.654080 0.655144 0.656636 0.658541 0.660840 0.663513 0.666539 0.669897 0.673563 0.677512 0.681722 0.686168 0.690824 0.695669 0.700677 0.705827 0.711095 0.716460 0.721901 0.727398 0.732934 0.738490 0.744048 0.749591 0.755100 0.760556 0.765935 0.771209 0.776348 0.781315 0.786072 0.790576 0.794779 0.798634 0.802090 0.805098 0.807607 0.809567 0.810932 0.811658 0.811708 0.811049 0.809660 0.807525 0.804642 0.801019 0.796673 0.791632 0.785935 0.779628 0.772767 0.765411 0.757629 0.749490 0.741068 0.732438 0.723676 0.714856 0.706052 0.697335 0.688773 0.680428 0.672360 0.664623 0.657266 0.650334 0.643864 0.637890 0.632437 0.627529 0.623181 0.619405 0.616209 0.613593 0.611556 0.610093 0.609194 0.608846 0.609034 0.609740 0.610944 0.612622 0.614754 0.617313 0.620275 0.623613 0.627300 0.631309 0.635613 0.640186 0.645000 0.650029 0.655249 0.660633 0.666160 0.671805 0.677546 0.683365 0.689239 0.695150 0.701076 0.706998 0.712891 0.718729 0.724480 0.730109 0.735578 0.740843 0.745858 0.750574 0.754941 0.758905 0.762416 0.765421 0.767871 0.769717 0.770918 0.771433 0.771231 0.770289 0.768594 0.766143 0.762941 0.759009 0.754374 0.749074 0.743158 0.736680 0.729703 0.722293 0.714523 0.706467 0.698201 0.689802 0.681346 0.672907 0.664558 0.656366 0.648397 0.640710 0.633360 0.626398 0.619867 0.613807 0.608250 0.603224 0.598751 0.594847 0.591524 0.588789 0.586643 0.585084 0.584107 0.583700 0.583852 0.584545 0.585762 0.587481 0.589680 0.592335 0.595420 0.598910 0.602776 0.606992 0.611530 0.616362 0.621460 0.626798 0.632347 0.638083 0.643980 0.650013 0.656159 0.662396 0.668702 0.675056 0.681440 0.687833 0.694214 0.700560 0.706845 0.713038 0.719106 0.725010 0.730708 0.736155 0.741301 0.746097 0.750491 0.754431 0.757865 0.760744 0.763018 0.764644 0.765580 0.765789 0.765239 0.763903 0.761758 0.758788 0.754982 0.750335 0.744848 0.738526 0.731378 0.723422 0.714677 0.705167 0.694920 0.683968 0.672344 0.660087 0.647235 0.633830 0.619914 0.605529 0.590722 0.575536 0.560015 0.544205 0.528149 0.511890 