-6.83841236894122772583 -7.40727484751535492080 -7.40727484751535492080 -7.40727484751535492080 -7.12284360822829043514 -7.12284360822829043514 -7.12284360822829043514 -6.83841236894122772583 -6.26954989036709964267 -6.55398112965416324016 -5.98511865108003515701 -6.55398112965416324016 -6.55398112965416324016 -6.55398112965416324016 -6.55398112965416324016 -6.26954989036709964267 -6.26954989036709964267 -5.41625617250590796203 -5.70068741179297155952 -6.55398112965416324016 -6.55398112965416324016 -7.12284360822829043514 -5.41625617250590796203 -6.83841236894122772583 -5.41625617250590796203 -5.70068741179297155952 -6.55398112965416324016 -6.83841236894122772583 -7.12284360822829043514 -5.70068741179297155952 -5.98511865108003515701 -5.98511865108003515701 -6.26954989036709964267 -5.98511865108003515701 -5.98511865108003515701 -5.70068741179297155952 -5.70068741179297155952 -6.26954989036709964267 -6.83841236894122772583 -6.55398112965416324016 -6.55398112965416324016 -6.26954989036709964267 -6.55398112965416324016 -6.55398112965416324016 -5.98511865108003515701 -6.26954989036709964267 -6.26954989036709964267 -6.26954989036709964267 -7.40727484751535492080 -6.26954989036709964267 -5.70068741179297155952 -6.26954989036709964267 -5.41625617250590796203 -6.26954989036709964267 -5.98511865108003515701 -6.83841236894122772583 -5.98511865108003515701 -6.83841236894122772583 -5.98511865108003515701 -6.55398112965416324016 -5.41625617250590796203 -5.70068741179297155952 -6.83841236894122772583 -6.83841236894122772583 -6.26954989036709964267 -6.55398112965416324016 -6.26954989036709964267 -6.26954989036709964267 -6.26954989036709964267 -5.70068741179297155952 -6.55398112965416324016 -6.26954989036709964267 -5.70068741179297155952 -6.26954989036709964267 -6.55398112965416324016 -6.26954989036709964267 -5.70068741179297155952 -6.26954989036709964267 -5.98511865108003515701 -6.83841236894122772583 -6.83841236894122772583 -6.55398112965416324016 -6.83841236894122772583 -5.70068741179297155952 -7.12284360822829043514 -6.83841236894122772583 -6.55398112965416324016 -6.26954989036709964267 -7.12284360822829043514 -7.12284360822829043514 -7.12284360822829043514 -6.26954989036709964267 -5.13182493321884436455 -6.55398112965416324016 -6.55398112965416324016 -6.26954989036709964267 -6.55398112965416324016 -5.13182493321884436455 -5.98511865108003515701 -6.55398112965416324016 -7.12284360822829043514 -5.98511865108003515701 -5.70068741179297155952 -5.41625617250590796203 -5.41625617250590796203 -5.98511865108003515701 -5.41625617250590796203 -5.70068741179297155952 -6.55398112965416324016 -7.12284360822829043514 -6.26954989036709964267 -6.83841236894122772583 -5.70068741179297155952 -6.26954989036709964267 -5.41625617250590796203 -5.70068741179297155952 -5.98511865108003515701 -5.70068741179297155952 -6.55398112965416324016 -6.55398112965416324016 -5.70068741179297155952 -5.41625617250590796203 -5.70068741179297155952 -5.70068741179297155952 -6.55398112965416324016 -6.55398112965416324016 -6.26954989036709964267 -7.69170608680241851829 -5.98511865108003515701 -5.98511865108003515701 -6.83841236894122772583 -6.26954989036709964267 -5.41625617250590796203 -6.26954989036709964267 -5.98511865108003515701 -6.55398112965416324016 -5.70068741179297155952 -6.26954989036709964267 -7.40727484751535492080 -6.55398112965416324016 -5.98511865108003515701 -7.12284360822829043514 -5.98511865108003515701 -5.70068741179297155952 -6.83841236894122772583 -6.26954989036709964267 -6.55398112965416324016 -6.26954989036709964267 -5.98511865108003515701 -5.41625617250590796203 -6.55398112965416324016 -6.55398112965416324016 -7.40727484751535492080 -7.40727484751535492080 -7.12284360822829043514 -7.12284360822829043514 -7.12284360822829043514 -7.12284360822829043514 -7.69170608680241851829 -7.40727484751535492080 -7.97613732608948300395 -7.40727484751535492080 -7.69170608680241851829 -7.12284360822829043514 -7.97613732608948300395 -7.12284360822829043514 -7.12284360822829043514 -6.83841236894122772583 -7.40727484751535492080 -7.40727484751535492080 -7.40727484751535492080 -7.40727484751535492080 -7.12284360822829043514 -6.83841236894122772583 -6.83841236894122772583 -5.98511865108003515701 -7.12284360822829043514 -8.26056856537654660144 -6.83841236894122772583 -6.83841236894122772583 -6.55398112965416324016 -6.83841236894122772583 -7.40727484751535492080 -7.40727484751535492080 -6.26954989036709964267 -5.98511865108003515701 -6.26954989036709964267 -5.70068741179297155952 -5.98511865108003515701 -6.26954989036709964267 -5.13182493321884436455 -5.70068741179297155952 -5.98511865108003515701 -6.26954989036709964267 -5.98511865108003515701 -6.55398112965416324016 -7.12284360822829043514 -6.55398112965416324016 -5.13182493321884436455 -5.13182493321884436455 -5.98511865108003515701 -5.70068741179297155952 -4.84739369393177987888 -5.98511865108003515701 -5.41625617250590796203 -5.98511865108003515701 -5.41625617250590796203 -6.26954989036709964267 -6.26954989036709964267 -5.98511865108003515701 -5.70068741179297155952 -6.26954989036709964267 -6.26954989036709964267 -6.55398112965416324016 -5.70068741179297155952 -5.41625617250590796203 -5.13182493321884436455 -6.26954989036709964267 -5.98511865108003515701 -5.13182493321884436455 -6.26954989036709964267 -5.98511865108003515701 -5.70068741179297155952 -6.26954989036709964267 -6.26954989036709964267 -6.26954989036709964267 -5.41625617250590796203 -5.41625617250590796203 -5.70068741179297155952 -5.98511865108003515701 -5.70068741179297155952 -5.98511865108003515701 -5.13182493321884436455 -5.70068741179297155952 -5.98511865108003515701 -6.55398112965416324016 -5.70068741179297155952 -5.13182493321884436455 -5.70068741179297155952 -5.98511865108003515701 -5.98511865108003515701 -5.41625617250590796203 -6.55398112965416324016 -5.98511865108003515701 -5.98511865108003515701 -6.26954989036709964267 -5.98511865108003515701 -6.26954989036709964267 -6.26954989036709964267 -5.70068741179297155952 -6.83841236894122772583 -5.41625617250590796203 -6.26954989036709964267 -5.98511865108003515701 -6.55398112965416324016 -6.55398112965416324016 -6.26954989036709964267 -5.98511865108003515701 -6.55398112965416324016 -5.98511865108003515701 -6.26954989036709964267 -5.98511865108003515701 -7.12284360822829043514 -6.26954989036709964267 -5.70068741179297155952 -6.55398112965416324016 -5.98511865108003515701 -5.13182493321884436455 -6.26954989036709964267 -6.26954989036709964267 -5.41625617250590796203 -5.70068741179297155952 -6.26954989036709964267 -5.98511865108003515701 -5.98511865108003515701 -5.70068741179297155952 -5.98511865108003515701 -5.70068741179297155952 -6.55398112965416324016 -6.26954989036709964267 -5.70068741179297155952 -5.70068741179297155952 -6.26954989036709964267 -5.70068741179297155952 -5.41625617250590796203 -5.70068741179297155952 -4.84739369393177987888 -6.55398112965416324016 -5.98511865108003515701 -5.41625617250590796203 -5.98511865108003515701 -5.70068741179297155952 -5.41625617250590796203 -5.98511865108003515701 -5.98511865108003515701 -5.98511865108003515701 -5.98511865108003515701 -5.98511865108003515701 -5.70068741179297155952 -5.98511865108003515701 -5.70068741179297155952 -4.84739369393177987888 -6.26954989036709964267 -5.13182493321884436455 -6.55398112965416324016 -5.98511865108003515701 -5.41625617250590796203 -5.70068741179297155952 -4.84739369393177987888 -5.98511865108003515701 -5.98511865108003515701 -5.70068741179297155952 -5.70068741179297155952 -5.98511865108003515701 -6.83841236894122772583 -5.98511865108003515701 -6.55398112965416324016 -5.70068741179297155952 -5.70068741179297155952 -5.70068741179297155952 -5.98511865108003515701 -7.12284360822829043514 -6.83841236894122772583 -5.98511865108003515701 -5.98511865108003515701 -7.12284360822829043514 -6.55398112965416324016 -7.69170608680241851829 -8.26056856537654660144 -7.69170608680241851829 -6.55398112965416324016 -7.69170608680241851829 -7.12284360822829043514 -6.55398112965416324016 -6.55398112965416324016 -6.83841236894122772583 -6.83841236894122772583 -6.55398112965416324016 -7.40727484751535492080 -7.97613732608948300395 -6.83841236894122772583 -7.12284360822829043514 -7.69170608680241851829 -7.12284360822829043514 -7.40727484751535492080 -6.26954989036709964267 -7.69170608680241851829 -6.26954989036709964267 -6.83841236894122772583 -6.55398112965416324016 -7.40727484751535492080 -7.12284360822829043514 -7.12284360822829043514 -6.83841236894122772583 -7.12284360822829043514 -6.55398112965416324016 -5.70068741179297155952 -6.83841236894122772583 -7.40727484751535492080 -7.12284360822829043514 -6.26954989036709964267 -7.12284360822829043514 -6.55398112965416324016 -6.83841236894122772583 -6.83841236894122772583 -6.55398112965416324016 -6.55398112965416324016 -6.26954989036709964267 -6.83841236894122772583 -7.40727484751535492080 -6.83841236894122772583 -7.12284360822829043514 -5.98511865108003515701 -6.83841236894122772583 -6.26954989036709964267 -7.12284360822829043514 -6.83841236894122772583 -7.69170608680241851829 -7.12284360822829043514 -7.40727484751535492080 -7.40727484751535492080 -6.83841236894122772583 -7.12284360822829043514 -7.97613732608948300395 -7.97613732608948300395 -7.40727484751535492080 -8.26056856537654660144 -7.69170608680241851829 -8.54499980466361108711 -7.97613732608948300395 -6.83841236894122772583 -7.69170608680241851829 -7.12284360822829043514 -8.26056856537654660144 -7.40727484751535492080 -7.40727484751535492080 -6.83841236894122772583 -7.40727484751535492080 -8.26056856537654660144 -8.82943104395067557277 -8.82943104395067557277 -8.26056856537654660144 -7.40727484751535492080 -8.26056856537654660144 -8.54499980466361108711 -8.26056856537654660144 -8.54499980466361108711 -7.40727484751535492080 -8.54499980466361108711 -8.54499980466361108711 -7.97613732608948300395 -7.69170608680241851829 -8.54499980466361108711 -7.69170608680241851829 -7.40727484751535492080 -7.40727484751535492080 -7.40727484751535492080 -8.26056856537654660144 -7.12284360822829043514 -7.12284360822829043514 -7.40727484751535492080 -7.40727484751535492080 -7.40727484751535492080 -7.40727484751535492080 -6.55398112965416324016 -7.40727484751535492080 -7.40727484751535492080 -7.12284360822829043514 -8.26056856537654660144 -7.69170608680241851829 -6.83841236894122772583 -6.26954989036709964267 -5.98511865108003515701 -7.69170608680241851829 -7.97613732608948300395 -7.69170608680241851829 -6.83841236894122772583 -7.12284360822829043514 -7.12284360822829043514 -7.12284360822829043514 -7.40727484751535492080 -7.12284360822829043514 -7.40727484751535492080 -6.55398112965416324016 -6.83841236894122772583 -7.40727484751535492080 -7.12284360822829043514 -7.40727484751535492080 -6.83841236894122772583 -5.98511865108003515701 -6.83841236894122772583 -6.83841236894122772583 -7.12284360822829043514 -6.26954989036709964267 -7.12284360822829043514 -7.40727484751535492080 -6.26954989036709964267 -7.12284360822829043514 -5.70068741179297155952 -7.12284360822829043514 -6.26954989036709964267 -6.26954989036709964267 -6.55398112965416324016 -6.26954989036709964267 -5.98511865108003515701 -6.55398112965416324016 -7.12284360822829043514 -6.83841236894122772583 -6.55398112965416324016 -6.83841236894122772583 -7.40727484751535492080 -7.69170608680241851829 -7.69170608680241851829 -7.12284360822829043514 -6.55398112965416324016 -7.40727484751535492080 -6.26954989036709964267 -6.83841236894122772583 -7.97613732608948300395 -5.70068741179297155952 -6.83841236894122772583 -6.55398112965416324016 -5.70068741179297155952 -6.26954989036709964267 -7.69170608680241851829 -7.12284360822829043514 -7.40727484751535492080 -6.55398112965416324016 -6.26954989036709964267 -8.26056856537654660144 -6.26954989036709964267 -7.40727484751535492080 -7.12284360822829043514 -6.55398112965416324016 -7.12284360822829043514 -7.40727484751535492080 -6.83841236894122772583 -7.40727484751535492080 -5.70068741179297155952 -6.83841236894122772583 -6.26954989036709964267 -6.83841236894122772583 -6.55398112965416324016 -6.26954989036709964267 -7.12284360822829043514 -7.12284360822829043514 -5.98511865108003515701 -6.83841236894122772583 -5.98511865108003515701 -6.55398112965416324016 -6.83841236894122772583 -6.83841236894122772583 -6.83841236894122772583 -7.40727484751535492080 -6.83841236894122772583 -6.55398112965416324016 -6.83841236894122772583 -6.55398112965416324016 -5.98511865108003515701 -6.26954989036709964267 -6.55398112965416324016 -7.69170608680241851829 -7.12284360822829043514 -7.97613732608948300395 -6.83841236894122772583 -6.55398112965416324016 -6.55398112965416324016 -7.40727484751535492080 -5.98511865108003515701 -5.98511865108003515701 -5.70068741179297155952 -6.26954989036709964267 -7.40727484751535492080 -6.83841236894122772583 -7.12284360822829043514 -7.40727484751535492080 -7.12284360822829043514 -6.83841236894122772583 -6.83841236894122772583 -7.12284360822829043514 -6.55398112965416324016 -6.55398112965416324016 -5.70068741179297155952 -5.70068741179297155952 -5.98511865108003515701 -6.83841236894122772583 -5.98511865108003515701 -6.26954989036709964267 -5.70068741179297155952 -6.26954989036709964267 -6.26954989036709964267 -6.26954989036709964267 -6.26954989036709964267 -5.98511865108003515701 -5.41625617250590796203 -6.55398112965416324016 -6.26954989036709964267 -6.26954989036709964267 -5.98511865108003515701 -5.70068741179297155952 -5.70068741179297155952 -6.55398112965416324016 -6.55398112965416324016 -7.40727484751535492080 -5.13182493321884436455 -6.26954989036709964267 -6.83841236894122772583 -6.83841236894122772583 -6.26954989036709964267 -5.13182493321884436455 -5.13182493321884436455 -7.69170608680241851829 -7.97613732608948300395 -7.12284360822829043514 -6.26954989036709964267 -7.40727484751535492080 -6.83841236894122772583 -7.40727484751535492080 -7.69170608680241851829 -5.70068741179297155952 -6.55398112965416324016 -6.55398112965416324016 -7.97613732608948300395 -7.12284360822829043514 -7.40727484751535492080 -6.83841236894122772583 -6.83841236894122772583 -6.55398112965416324016 -6.83841236894122772583 -6.83841236894122772583 -5.70068741179297155952 -6.83841236894122772583 -7.12284360822829043514 -6.83841236894122772583 -6.55398112965416324016 -5.70068741179297155952 -7.40727484751535492080 -6.55398112965416324016 -6.26954989036709964267 -6.55398112965416324016 -6.83841236894122772583 -7.69170608680241851829 -7.12284360822829043514 -6.26954989036709964267 -7.40727484751535492080 -6.26954989036709964267 -6.26954989036709964267 -7.40727484751535492080 -6.83841236894122772583 -6.83841236894122772583 -6.83841236894122772583 -7.12284360822829043514 -6.83841236894122772583 -6.26954989036709964267 -6.55398112965416324016 -6.55398112965416324016 -6.26954989036709964267 -6.83841236894122772583 -7.12284360822829043514 -6.55398112965416324016 -6.55398112965416324016 -5.70068741179297155952 -7.12284360822829043514 -6.83841236894122772583 -6.26954989036709964267 -7.97613732608948300395 -7.40727484751535492080 -8.26056856537654660144 -7.12284360822829043514 -6.83841236894122772583 -6.83841236894122772583 -6.83841236894122772583 -6.55398112965416324016 -6.83841236894122772583 -5.98511865108003515701 -7.40727484751535492080 -7.12284360822829043514 -6.83841236894122772583 -6.83841236894122772583 -7.40727484751535492080 -7.40727484751535492080 -7.69170608680241851829 -7.12284360822829043514 -7.12284360822829043514 -6.83841236894122772583 -7.40727484751535492080 -7.69170608680241851829 -7.69170608680241851829 -6.83841236894122772583 -6.83841236894122772583 -7.40727484751535492080 -7.40727484751535492080 -7.69170608680241851829 -6.55398112965416324016 -6.83841236894122772583 -7.12284360822829043514 -7.69170608680241851829 -6.83841236894122772583 -7.97613732608948300395 -7.69170608680241851829 -6.26954989036709964267 -7.12284360822829043514 -6.55398112965416324016 -7.12284360822829043514 -7.12284360822829043514 -7.12284360822829043514 -7.40727484751535492080 -6.83841236894122772583 -7.12284360822829043514 -7.69170608680241851829 -7.12284360822829043514 -6.83841236894122772583 -8.26056856537654660144 -6.55398112965416324016 -6.55398112965416324016 -7.12284360822829043514 -7.40727484751535492080 -7.12284360822829043514 -7.12284360822829043514 -7.40727484751535492080 -6.55398112965416324016 -6.83841236894122772583 -6.26954989036709964267 -7.40727484751535492080 -7.40727484751535492080 -7.40727484751535492080 -6.83841236894122772583 -6.83841236894122772583 -6.83841236894122772583 -6.83841236894122772583 -7.12284360822829043514 -7.12284360822829043514 -6.26954989036709964267 -6.55398112965416324016 -6.26954989036709964267 -6.26954989036709964267 -6.26954989036709964267 -5.70068741179297155952 -6.26954989036709964267 -5.98511865108003515701 -7.12284360822829043514 -6.83841236894122772583 -5.98511865108003515701 -5.98511865108003515701 -5.98511865108003515701 -5.98511865108003515701 -6.83841236894122772583 -6.26954989036709964267 -6.55398112965416324016 -6.83841236894122772583 -7.12284360822829043514 -6.83841236894122772583 -5.98511865108003515701 -5.41625617250590796203 -6.55398112965416324016 -6.55398112965416324016 -6.26954989036709964267 -6.55398112965416324016 -6.55398112965416324016 -6.26954989036709964267 -5.41625617250590796203 -5.13182493321884436455 -5.98511865108003515701 -5.98511865108003515701 -6.26954989036709964267 -6.26954989036709964267 -5.98511865108003515701 -6.55398112965416324016 -7.69170608680241851829 -5.98511865108003515701 -6.26954989036709964267 -5.98511865108003515701 -7.40727484751535492080 -6.26954989036709964267 -6.26954989036709964267 -5.70068741179297155952 -5.70068741179297155952 -6.26954989036709964267 -6.26954989036709964267 -6.55398112965416324016 -5.70068741179297155952 -5.41625617250590796203 -5.98511865108003515701 -5.41625617250590796203 -5.70068741179297155952 -5.98511865108003515701 -5.70068741179297155952 -6.83841236894122772583 -5.70068741179297155952 -5.70068741179297155952 -5.98511865108003515701 -5.98511865108003515701 -6.55398112965416324016 -5.70068741179297155952 -6.55398112965416324016 -6.26954989036709964267 -6.26954989036709964267 -5.98511865108003515701 -5.70068741179297155952 -5.98511865108003515701 -6.83841236894122772583 -6.55398112965416324016 -5.98511865108003515701 -6.55398112965416324016 -5.98511865108003515701 -5.41625617250590796203 -6.83841236894122772583 -7.40727484751535492080 -6.55398112965416324016 -5.98511865108003515701 -5.41625617250590796203 -6.26954989036709964267 -6.26954989036709964267 -6.26954989036709964267 -5.98511865108003515701 -7.97613732608948300395 -6.83841236894122772583 -6.26954989036709964267 -5.98511865108003515701 -5.98511865108003515701 -6.55398112965416324016 -6.55398112965416324016 -7.40727484751535492080 -7.97613732608948300395 -5.98511865108003515701 -6.26954989036709964267 -5.98511865108003515701 -6.55398112965416324016 -5.41625617250590796203 -5.98511865108003515701 -5.70068741179297155952 -7.12284360822829043514 -6.55398112965416324016 -5.98511865108003515701 -6.26954989036709964267 -5.13182493321884436455 -5.98511865108003515701 -5.70068741179297155952 -5.70068741179297155952 -5.41625617250590796203 -5.41625617250590796203 -5.13182493321884436455 -5.41625617250590796203 -5.70068741179297155952 -4.84739369393177987888 -4.84739369393177987888 -4.56296245464471628139 -5.13182493321884436455 -5.41625617250590796203 -5.13182493321884436455 -5.13182493321884436455 -4.84739369393177987888 -3.99409997607058819824 -4.27853121535765179573 -5.13182493321884436455 -4.84739369393177987888 -5.41625617250590796203 -5.13182493321884436455 -5.41625617250590796203 -5.13182493321884436455 -5.13182493321884436455 -5.98511865108003515701 -4.84739369393177987888 -5.98511865108003515701 -5.70068741179297155952 -6.26954989036709964267 -5.41625617250590796203 -5.98511865108003515701 -4.56296245464471628139 -5.13182493321884436455 -5.41625617250590796203 -4.56296245464471628139 -5.41625617250590796203 -5.70068741179297155952 -5.41625617250590796203 -5.41625617250590796203 -3.99409997607058819824 -3.99409997607058819824 -4.56296245464471628139 -4.27853121535765179573 -3.99409997607058819824 -3.70966873678352415666 -3.70966873678352415666 -4.56296245464471628139 -3.70966873678352415666 -3.99409997607058819824 -4.27853121535765179573 -3.99409997607058819824 -3.42523749749646011509 -4.84739369393177987888 -6.26954989036709964267 -6.55398112965416324016 -6.26954989036709964267 -6.26954989036709964267 -7.12284360822829043514 -6.26954989036709964267 -6.26954989036709964267 -6.26954989036709964267 -7.12284360822829043514 -5.70068741179297155952 -6.26954989036709964267 -6.83841236894122772583 -5.98511865108003515701 -5.98511865108003515701 -5.98511865108003515701 -6.55398112965416324016 -6.55398112965416324016 -6.26954989036709964267 -6.55398112965416324016 -5.98511865108003515701 -7.12284360822829043514 -6.26954989036709964267 -6.83841236894122772583 -5.70068741179297155952 -5.41625617250590796203 -5.98511865108003515701 -5.70068741179297155952 -5.41625617250590796203 -5.13182493321884436455 -5.70068741179297155952 -5.98511865108003515701 -5.98511865108003515701 -5.70068741179297155952 -6.26954989036709964267 -5.98511865108003515701 -6.83841236894122772583 -6.83841236894122772583 -6.83841236894122772583 -6.83841236894122772583 -5.70068741179297155952 -5.41625617250590796203 -4.84739369393177987888 -6.26954989036709964267 -6.55398112965416324016 -6.26954989036709964267 -6.55398112965416324016 -5.70068741179297155952 -5.70068741179297155952 -6.55398112965416324016 -5.13182493321884436455 -5.70068741179297155952 -5.70068741179297155952 -5.41625617250590796203 -6.26954989036709964267 -5.98511865108003515701 -6.83841236894122772583 -7.69170608680241851829 -6.26954989036709964267 -6.55398112965416324016 -6.26954989036709964267 -5.70068741179297155952 -5.41625617250590796203 -7.12284360822829043514 -5.98511865108003515701 -6.26954989036709964267 -6.55398112965416324016 -5.70068741179297155952 -6.55398112965416324016 -6.26954989036709964267 -6.83841236894122772583 -6.83841236894122772583 -6.55398112965416324016 -6.83841236894122772583 -6.55398112965416324016 -7.12284360822829043514 -7.40727484751535492080 -6.55398112965416324016 -6.55398112965416324016 -5.98511865108003515701 -6.55398112965416324016 -6.55398112965416324016 -6.55398112965416324016 -6.26954989036709964267 -5.98511865108003515701 -6.55398112965416324016 -5.98511865108003515701 -5.70068741179297155952 -7.40727484751535492080 -5.98511865108003515701 -5.98511865108003515701 -5.70068741179297155952 -5.98511865108003515701 -5.70068741179297155952 -5.13182493321884436455 -6.55398112965416324016 -6.26954989036709964267 -6.83841236894122772583 -6.55398112965416324016 -5.98511865108003515701 -6.26954989036709964267 -5.13182493321884436455 -5.70068741179297155952 -6.26954989036709964267 -5.13182493321884436455 -4.84739369393177987888 -4.84739369393177987888 -4.56296245464471628139 -4.56296245464471628139 -5.13182493321884436455 -4.56296245464471628139 -4.56296245464471628139 -4.84739369393177987888 -5.41625617250590796203 -5.70068741179297155952 -4.56296245464471628139 -4.27853121535765179573 -4.56296245464471628139 -4.56296245464471628139 -4.84739369393177987888 -4.27853121535765179573 -4.56296245464471628139 -4.84739369393177987888 -5.41625617250590796203 -4.56296245464471628139 -4.27853121535765179573 -4.56296245464471628139 -4.84739369393177987888 -4.84739369393177987888 -4.56296245464471628139 -4.56296245464471628139 -4.27853121535765179573 -5.13182493321884436455 -4.56296245464471628139 -3.99409997607058819824 -5.13182493321884436455 -4.56296245464471628139 -4.56296245464471628139 -4.56296245464471628139 -4.27853121535765179573 -4.56296245464471628139 -4.56296245464471628139 -4.27853121535765179573 -4.84739369393177987888 -4.27853121535765179573 -3.99409997607058819824 -3.99409997607058819824 -4.27853121535765179573 -3.70966873678352415666 -4.84739369393177987888 -4.56296245464471628139 -4.84739369393177987888 -4.56296245464471628139 -5.13182493321884436455 -5.13182493321884436455 -5.41625617250590796203 -4.84739369393177987888 -4.56296245464471628139 -3.99409997607058819824 -4.84739369393177987888 -4.84739369393177987888 -4.56296245464471628139 -4.27853121535765179573 -4.84739369393177987888 -4.84739369393177987888 -4.84739369393177987888 -4.84739369393177987888 -4.27853121535765179573 -4.56296245464471628139 -4.84739369393177987888 -5.13182493321884436455 -4.84739369393177987888 -5.13182493321884436455 -4.56296245464471628139 -4.27853121535765179573 -4.56296245464471628139 -4.56296245464471628139 -4.27853121535765179573 -4.84739369393177987888 -4.84739369393177987888 -4.56296245464471628139 -4.56296245464471628139 -4.56296245464471628139 -5.13182493321884436455 -4.56296245464471628139 -3.99409997607058819824 -4.27853121535765179573 -4.27853121535765179573 -4.27853121535765179573 -4.84739369393177987888 -5.13182493321884436455 -4.56296245464471628139 -4.27853121535765179573 -4.56296245464471628139 -5.13182493321884436455 -4.27853121535765179573 -4.56296245464471628139 -4.27853121535765179573 -4.27853121535765179573 -4.84739369393177987888 -5.13182493321884436455 -5.13182493321884436455 -4.56296245464471628139 -4.84739369393177987888 -4.27853121535765179573 -4.27853121535765179573 -5.41625617250590796203 -5.13182493321884436455 -4.84739369393177987888 -3.99409997607058819824 -4.56296245464471628139 -4.56296245464471628139 -4.27853121535765179573 -4.27853121535765179573 -4.84739369393177987888 -5.13182493321884436455 -4.56296245464471628139 -4.27853121535765179573 -5.13182493321884436455 -4.27853121535765179573 -4.84739369393177987888 -5.13182493321884436455 -5.41625617250590796203 -4.84739369393177987888 -4.56296245464471628139 -4.84739369393177987888 -5.41625617250590796203 -4.27853121535765179573 -4.56296245464471628139 -4.27853121535765179573 -3.14080625820939651760 -4.84739369393177987888 -4.84739369393177987888 -5.41625617250590796203 -4.27853121535765179573 -4.84739369393177987888 -5.13182493321884436455 -4.84739369393177987888 -3.70966873678352415666 -3.42523749749646011509 -4.27853121535765179573 -4.27853121535765179573 -5.13182493321884436455 -5.98511865108003515701 -5.13182493321884436455 -5.13182493321884436455 -5.98511865108003515701 -5.13182493321884436455 -4.56296245464471628139 -4.84739369393177987888 -6.26954989036709964267 -5.98511865108003515701 -6.26954989036709964267 -6.55398112965416324016 -6.55398112965416324016 -6.26954989036709964267 -5.70068741179297155952 -4.84739369393177987888 -4.84739369393177987888 -5.13182493321884436455 -6.26954989036709964267 -5.70068741179297155952 -5.98511865108003515701 -5.98511865108003515701 -5.98511865108003515701 -5.41625617250590796203 -5.41625617250590796203 -4.84739369393177987888 -4.27853121535765179573 -4.27853121535765179573 -5.70068741179297155952 -5.13182493321884436455 -5.98511865108003515701 -5.70068741179297155952 -6.83841236894122772583 -6.26954989036709964267 -5.41625617250590796203 -6.26954989036709964267 -5.70068741179297155952 -6.26954989036709964267 -5.98511865108003515701 -4.84739369393177987888 -4.84739369393177987888 -4.27853121535765179573 -4.84739369393177987888 -4.56296245464471628139 -3.99409997607058819824 -3.42523749749646011509 -4.27853121535765179573 -3.70966873678352415666 -3.42523749749646011509 -2.28751254034820483696 -3.14080625820939651760 -3.70966873678352415666 -4.27853121535765179573 -3.42523749749646011509 -3.99409997607058819824 -3.42523749749646011509 -3.70966873678352415666 -3.99409997607058819824 -3.70966873678352415666 -3.42523749749646011509 -3.70966873678352415666 -2.85637501892233247602 -2.57194377963526887854 -3.14080625820939651760 -2.57194377963526887854 -3.14080625820939651760 -2.28751254034820483696 -3.70966873678352415666 -3.14080625820939651760 -4.27853121535765179573 -3.70966873678352415666 -3.42523749749646011509 -3.99409997607058819824 -3.70966873678352415666 -4.56296245464471628139 -3.99409997607058819824 -4.27853121535765179573 -4.84739369393177987888 -3.99409997607058819824 -4.27853121535765179573 -3.99409997607058819824 -3.42523749749646011509 -4.56296245464471628139 -3.99409997607058819824 -5.13182493321884436455 -3.99409997607058819824 -4.56296245464471628139 -4.56296245464471628139 -4.27853121535765179573 -3.99409997607058819824 -3.99409997607058819824 -3.42523749749646011509 -4.27853121535765179573 -3.42523749749646011509 -4.56296245464471628139 -4.27853121535765179573 -4.56296245464471628139 -4.27853121535765179573 -3.99409997607058819824 -4.27853121535765179573 -3.99409997607058819824 -4.56296245464471628139 -4.56296245464471628139 -3.42523749749646011509 -3.70966873678352415666 -3.99409997607058819824 -5.70068741179297155952 -5.13182493321884436455 -3.99409997607058819824 -4.84739369393177987888 -4.84739369393177987888 -4.56296245464471628139 -3.42523749749646011509 -3.14080625820939651760 -2.28751254034820483696 -2.57194377963526887854 -3.14080625820939651760 -2.28751254034820483696 -1.71865006177407719790 -2.28751254034820483696 -5.41625617250590796203 -3.70966873678352415666 -4.27853121535765179573 -3.42523749749646011509 -4.27853121535765179573 -4.56296245464471628139 -2.28751254034820483696 -4.27853121535765179573 -5.13182493321884436455 -4.56296245464471628139 -5.41625617250590796203 -4.84739369393177987888 -4.27853121535765179573 -5.13182493321884436455 -5.70068741179297155952 -4.56296245464471628139 -4.84739369393177987888 -4.56296245464471628139 -3.99409997607058819824 -3.70966873678352415666 -3.70966873678352415666 -4.27853121535765179573 -4.56296245464471628139 -4.27853121535765179573 -4.56296245464471628139 -3.70966873678352415666 -5.70068741179297155952 -4.27853121535765179573 -3.99409997607058819824 -3.70966873678352415666 -3.70966873678352415666 -4.27853121535765179573 -3.99409997607058819824 -4.84739369393177987888 -5.13182493321884436455 -5.13182493321884436455 -5.13182493321884436455 -4.27853121535765179573 -4.56296245464471628139 -3.70966873678352415666 -4.56296245464471628139 -5.70068741179297155952 -4.27853121535765179573 -4.27853121535765179573 -4.56296245464471628139 -3.70966873678352415666 -4.56296245464471628139 -4.27853121535765179573 -4.56296245464471628139 -4.84739369393177987888 -4.56296245464471628139 -4.56296245464471628139 -5.41625617250590796203 -5.41625617250590796203 -4.27853121535765179573 -5.70068741179297155952 -3.42523749749646011509 -3.70966873678352415666 -4.56296245464471628139 -4.84739369393177987888 -5.13182493321884436455 -4.84739369393177987888 -3.42523749749646011509 -0.29649386533875754512 -0.01206262605169367355 -0.29649386533875754512 -0.58092510462582158670 -0.29649386533875754512 -0.01206262605169367355 -0.01206262605169367355 -0.86535634391288540623 -0.01206262605169367355 -0.01206262605169367355 -0.29649386533875754512 -0.29649386533875754512 -0.86535634391288540623 -0.29649386533875754512 -1.71865006177407719790 -2.28751254034820483696 -2.28751254034820483696 -2.85637501892233247602 -2.28751254034820483696 -1.71865006177407719790 -1.71865006177407719790 -2.28751254034820483696 -2.28751254034820483696 -2.57194377963526887854 -2.28751254034820483696 -2.85637501892233247602 -2.85637501892233247602 -2.28751254034820483696 -2.28751254034820483696 -2.57194377963526887854 -2.28751254034820483696 -2.28751254034820483696 -2.85637501892233247602 -3.14080625820939651760 -2.85637501892233247602 -2.85637501892233247602 -3.14080625820939651760 -3.14080625820939651760 -2.85637501892233247602 -3.42523749749646011509 -3.14080625820939651760 -3.70966873678352415666 -2.28751254034820483696 -1.71865006177407719790 -1.71865006177407719790 -1.71865006177407719790 -2.28751254034820483696 -1.71865006177407719790 -2.00308130106114079538 -1.71865006177407719790 -2.85637501892233247602 -1.71865006177407719790 -1.71865006177407719790 -2.00308130106114079538 -2.00308130106114079538 -1.71865006177407719790 -1.43421882248701337836 -1.71865006177407719790 -1.71865006177407719790 -2.00308130106114079538 -2.28751254034820483696 -1.43421882248701337836 -1.71865006177407719790 -2.00308130106114079538 -2.57194377963526887854 -2.28751254034820483696 -1.71865006177407719790 -1.71865006177407719790 -2.85637501892233247602 -2.00308130106114079538 -2.57194377963526887854 -1.43421882248701337836 -1.71865006177407719790 -2.00308130106114079538 -1.71865006177407719790 -2.28751254034820483696 -2.28751254034820483696 -2.00308130106114079538 -2.28751254034820483696 -2.85637501892233247602 -2.85637501892233247602 -2.28751254034820483696 -2.57194377963526887854 -2.28751254034820483696 -2.57194377963526887854 -2.28751254034820483696 -1.43421882248701337836 -2.00308130106114079538 -1.14978758319994955883 -1.71865006177407719790 -1.71865006177407719790 -2.28751254034820483696 -1.43421882248701337836 -2.28751254034820483696 -2.00308130106114079538 -2.85637501892233247602 -2.00308130106114079538 -2.00308130106114079538 -1.43421882248701337836 -1.43421882248701337836 -1.43421882248701337836 -2.00308130106114079538 -1.43421882248701337836 -1.43421882248701337836 -2.00308130106114079538 -2.28751254034820483696 -1.71865006177407719790 -0.86535634391288540623 -2.00308130106114079538 -2.28751254034820483696 -2.00308130106114079538 -2.00308130106114079538 -2.28751254034820483696 -2.28751254034820483696 -2.57194377963526887854 -3.14080625820939651760 -3.99409997607058819824 -4.27853121535765179573 -4.84739369393177987888 -5.70068741179297155952 -5.70068741179297155952 -5.41625617250590796203 -4.56296245464471628139 -4.84739369393177987888 -5.13182493321884436455 -5.13182493321884436455 -4.56296245464471628139 -5.13182493321884436455 -4.84739369393177987888 -5.98511865108003515701 -4.56296245464471628139 -5.13182493321884436455 -4.56296245464471628139 -4.84739369393177987888 -5.13182493321884436455 -5.41625617250590796203 -5.13182493321884436455 -4.84739369393177987888 -5.70068741179297155952 -5.13182493321884436455 -5.13182493321884436455 -5.70068741179297155952 -4.84739369393177987888 -5.98511865108003515701 -4.27853121535765179573 -5.98511865108003515701 -5.70068741179297155952 -5.98511865108003515701 -5.13182493321884436455 -4.56296245464471628139 -4.27853121535765179573 -3.99409997607058819824 -3.70966873678352415666 -2.85637501892233247602 -3.14080625820939651760 -2.85637501892233247602 -0.86535634391288540623 -0.86535634391288540623 1.41009357038362570513 1.69452480967068974671 0.84123109180949806607 -1.43421882248701337836 -1.71865006177407719790 0.55679985252243413552 -0.01206262605169367355 0.55679985252243413552 1.41009357038362570513 0.55679985252243413552 0.27236861323537020496 0.55679985252243413552 1.12566233109656188560 1.69452480967068974671 1.97895604895775356624 2.83224976681894569097 1.97895604895775356624 1.69452480967068974671 1.69452480967068974671 1.12566233109656188560 1.97895604895775356624 1.12566233109656188560 1.12566233109656188560 1.41009357038362570513 1.69452480967068974671 1.69452480967068974671 3.11668100610600973255 2.54781852753188164940 2.83224976681894569097 2.54781852753188164940 2.54781852753188164940 2.83224976681894569097 2.54781852753188164940 2.54781852753188164940 2.83224976681894569097 3.11668100610600973255 2.83224976681894569097 2.26338728824481760782 3.11668100610600973255 2.26338728824481760782 1.69452480967068974671 2.54781852753188164940 2.83224976681894569097 3.40111224539307333004 2.54781852753188164940 2.26338728824481760782 2.83224976681894569097 2.26338728824481760782 2.26338728824481760782 2.26338728824481760782 2.26338728824481760782 1.97895604895775356624 2.26338728824481760782 2.54781852753188164940 1.97895604895775356624 2.26338728824481760782 1.41009357038362570513 1.41009357038362570513 1.97895604895775356624 1.69452480967068974671 1.12566233109656188560 2.26338728824481760782 2.26338728824481760782 1.97895604895775356624 1.69452480967068974671 1.41009357038362570513 1.97895604895775356624 2.54781852753188164940 1.12566233109656188560 2.26338728824481760782 1.97895604895775356624 1.41009357038362570513 1.97895604895775356624 2.54781852753188164940 1.69452480967068974671 1.12566233109656188560 1.12566233109656188560 1.41009357038362570513 2.26338728824481760782 1.97895604895775356624 1.69452480967068974671 1.97895604895775356624 2.26338728824481760782 2.54781852753188164940 2.26338728824481760782 1.97895604895775356624 2.26338728824481760782 2.26338728824481760782 1.97895604895775356624 1.69452480967068974671 1.97895604895775356624 1.97895604895775356624 2.83224976681894569097 1.97895604895775356624 2.54781852753188164940 2.54781852753188164940 2.83224976681894569097 2.54781852753188164940 2.26338728824481760782 1.97895604895775356624 1.69452480967068974671 3.40111224539307333004 3.68554348468013737161 3.40111224539307333004 3.40111224539307333004 2.83224976681894569097 3.96997472396720096910 3.68554348468013737161 3.68554348468013737161 3.96997472396720096910 3.40111224539307333004 3.68554348468013737161 3.68554348468013737161 3.96997472396720096910 3.68554348468013737161 2.54781852753188164940 3.11668100610600973255 3.40111224539307333004 3.40111224539307333004 3.40111224539307333004 3.96997472396720096910 3.68554348468013737161 3.11668100610600973255 2.83224976681894569097 2.54781852753188164940 2.83224976681894569097 2.54781852753188164940 2.54781852753188164940 3.11668100610600973255 2.83224976681894569097 2.26338728824481760782 3.40111224539307333004 2.26338728824481760782 3.11668100610600973255 3.11668100610600973255 2.54781852753188164940 2.83224976681894569097 2.26338728824481760782 2.26338728824481760782 2.26338728824481760782 2.26338728824481760782 2.26338728824481760782 1.12566233109656188560 1.12566233109656188560 1.41009357038362570513 1.69452480967068974671 1.97895604895775356624 1.69452480967068974671 1.41009357038362570513 0.84123109180949806607 1.12566233109656188560 1.12566233109656188560 0.55679985252243413552 1.12566233109656188560 0.55679985252243413552 1.12566233109656188560 1.69452480967068974671 1.12566233109656188560 0.27236861323537020496 0.55679985252243413552 0.55679985252243413552 0.27236861323537020496 0.55679985252243413552 1.12566233109656188560 -0.01206262605169367355 0.55679985252243413552 1.12566233109656188560 0.84123109180949806607 0.84123109180949806607 1.69452480967068974671 1.97895604895775356624 2.26338728824481760782 2.26338728824481760782 2.83224976681894569097 2.83224976681894569097 2.54781852753188164940 2.54781852753188164940 2.26338728824481760782 2.54781852753188164940 1.97895604895775356624 2.83224976681894569097 1.97895604895775356624 1.69452480967068974671 1.12566233109656188560 1.97895604895775356624 1.69452480967068974671 1.12566233109656188560 1.12566233109656188560 0.84123109180949806607 1.12566233109656188560 1.12566233109656188560 0.55679985252243413552 0.84123109180949806607 1.69452480967068974671 1.12566233109656188560 1.69452480967068974671 1.69452480967068974671 3.40111224539307333004 2.26338728824481760782 3.11668100610600973255 3.68554348468013737161 3.11668100610600973255 2.54781852753188164940 3.40111224539307333004 2.54781852753188164940 3.11668100610600973255 3.40111224539307333004 3.11668100610600973255 3.11668100610600973255 2.54781852753188164940 2.26338728824481760782 2.83224976681894569097 2.83224976681894569097 2.54781852753188164940 3.40111224539307333004 3.40111224539307333004 1.97895604895775356624 2.26338728824481760782 2.83224976681894569097 1.97895604895775356624 1.69452480967068974671 1.97895604895775356624 2.26338728824481760782 2.54781852753188164940 1.97895604895775356624 2.26338728824481760782 1.12566233109656188560 1.41009357038362570513 1.69452480967068974671 2.54781852753188164940 1.12566233109656188560 1.41009357038362570513 1.12566233109656188560 0.84123109180949806607 1.97895604895775356624 1.97895604895775356624 1.97895604895775356624 1.69452480967068974671 1.69452480967068974671 1.97895604895775356624 1.69452480967068974671 1.41009357038362570513 1.41009357038362570513 1.12566233109656188560 1.97895604895775356624 1.12566233109656188560 1.69452480967068974671 1.12566233109656188560 0.84123109180949806607 0.84123109180949806607 0.55679985252243413552 0.84123109180949806607 1.12566233109656188560 0.55679985252243413552 1.41009357038362570513 0.55679985252243413552 1.12566233109656188560 1.69452480967068974671 1.41009357038362570513 1.69452480967068974671 1.41009357038362570513 1.41009357038362570513 1.41009357038362570513 1.12566233109656188560 1.41009357038362570513 0.84123109180949806607 1.41009357038362570513 1.41009357038362570513 1.97895604895775356624 1.97895604895775356624 1.12566233109656188560 1.41009357038362570513 1.12566233109656188560 1.12566233109656188560 0.84123109180949806607 -0.01206262605169367355 -0.29649386533875754512 0.27236861323537020496 -1.14978758319994955883 -0.86535634391288540623 -0.58092510462582158670 -0.58092510462582158670 -0.29649386533875754512 0.27236861323537020496 -0.58092510462582158670 0.27236861323537020496 0.27236861323537020496 -0.01206262605169367355 -0.01206262605169367355 -0.29649386533875754512 -0.29649386533875754512 -0.01206262605169367355 -0.86535634391288540623 -0.86535634391288540623 -0.58092510462582158670 -0.86535634391288540623 -1.14978758319994955883 -2.00308130106114079538 -1.43421882248701337836 -1.43421882248701337836 -1.14978758319994955883 -1.14978758319994955883 -1.43421882248701337836 -1.71865006177407719790 -2.00308130106114079538 -1.71865006177407719790 -1.71865006177407719790 -1.43421882248701337836 -1.43421882248701337836 -1.71865006177407719790 -1.71865006177407719790 -1.43421882248701337836 -2.28751254034820483696 -1.71865006177407719790 -2.00308130106114079538 -1.43421882248701337836 -2.28751254034820483696 -1.71865006177407719790 -1.43421882248701337836 -1.43421882248701337836 -2.28751254034820483696 -1.71865006177407719790 -1.14978758319994955883 -1.43421882248701337836 -2.00308130106114079538 -1.71865006177407719790 -1.71865006177407719790 -1.14978758319994955883 -2.28751254034820483696 -2.00308130106114079538 -1.71865006177407719790 -1.43421882248701337836 -1.43421882248701337836 -1.14978758319994955883 -0.86535634391288540623 -0.01206262605169367355 -1.71865006177407719790 -1.14978758319994955883 -0.86535634391288540623 -0.58092510462582158670 -1.14978758319994955883 -1.14978758319994955883 -0.86535634391288540623 -1.14978758319994955883 -0.29649386533875754512 0.27236861323537020496 -0.86535634391288540623 -0.86535634391288540623 -0.58092510462582158670 -0.29649386533875754512 -0.58092510462582158670 -0.86535634391288540623 -0.58092510462582158670 -0.29649386533875754512 -0.58092510462582158670 -0.01206262605169367355 -0.58092510462582158670 -0.01206262605169367355 -0.86535634391288540623 -0.29649386533875754512 -0.29649386533875754512 -0.58092510462582158670 -0.01206262605169367355 0.27236861323537020496 -0.01206262605169367355 0.55679985252243413552 0.84123109180949806607 1.12566233109656188560 1.97895604895775356624 3.11668100610600973255 1.97895604895775356624 1.41009357038362570513 2.54781852753188164940 1.97895604895775356624 1.97895604895775356624 1.69452480967068974671 1.41009357038362570513 1.97895604895775356624 1.69452480967068974671 1.97895604895775356624 2.26338728824481760782 1.69452480967068974671 1.69452480967068974671 1.41009357038362570513 1.41009357038362570513 0.84123109180949806607 0.55679985252243413552 0.84123109180949806607 1.12566233109656188560 1.12566233109656188560 1.12566233109656188560 0.55679985252243413552 0.84123109180949806607 0.27236861323537020496 -0.01206262605169367355 0.55679985252243413552 -0.29649386533875754512 0.27236861323537020496 0.27236861323537020496 -0.58092510462582158670 -0.86535634391288540623 -0.29649386533875754512 -0.86535634391288540623 -0.29649386533875754512 -0.58092510462582158670 -0.29649386533875754512 -0.58092510462582158670 -0.58092510462582158670 -1.14978758319994955883 -0.01206262605169367355 -0.86535634391288540623 -0.29649386533875754512 -0.29649386533875754512 -0.58092510462582158670 -0.58092510462582158670 -1.14978758319994955883 -0.29649386533875754512 0.27236861323537020496 -0.01206262605169367355 0.27236861323537020496 0.55679985252243413552 0.84123109180949806607 0.55679985252243413552 0.84123109180949806607 0.55679985252243413552 0.27236861323537020496 0.84123109180949806607 -0.29649386533875754512 0.55679985252243413552 0.27236861323537020496 -0.29649386533875754512 0.27236861323537020496 0.55679985252243413552 -0.29649386533875754512 -0.58092510462582158670 -0.01206262605169367355 0.55679985252243413552 -0.01206262605169367355 0.27236861323537020496 -0.01206262605169367355 0.27236861323537020496 0.27236861323537020496 -0.01206262605169367355 -0.29649386533875754512 -0.29649386533875754512 -0.01206262605169367355 0.84123109180949806607 0.27236861323537020496 0.27236861323537020496 0.84123109180949806607 1.12566233109656188560 0.55679985252243413552 0.55679985252243413552 0.27236861323537020496 -0.29649386533875754512 0.27236861323537020496 0.55679985252243413552 -0.01206262605169367355 -0.29649386533875754512 -0.01206262605169367355 0.84123109180949806607 0.55679985252243413552 0.84123109180949806607 0.55679985252243413552 0.27236861323537020496 0.84123109180949806607 0.55679985252243413552 0.55679985252243413552 1.12566233109656188560 0.55679985252243413552 0.27236861323537020496 1.41009357038362570513 0.27236861323537020496 1.12566233109656188560 0.55679985252243413552 -0.01206262605169367355 -0.01206262605169367355 0.27236861323537020496 0.27236861323537020496 0.27236861323537020496 0.84123109180949806607 -0.29649386533875754512 0.27236861323537020496 0.55679985252243413552 0.27236861323537020496 0.55679985252243413552 0.27236861323537020496 -0.01206262605169367355 -0.01206262605169367355 -0.29649386533875754512 -0.01206262605169367355 -0.58092510462582158670 -0.01206262605169367355 -0.29649386533875754512 0.27236861323537020496 0.55679985252243413552 0.55679985252243413552 0.27236861323537020496 -0.29649386533875754512 -0.29649386533875754512 2.26338728824481760782 0.84123109180949806607 2.26338728824481760782 1.41009357038362570513 2.54781852753188164940 0.84123109180949806607 3.68554348468013737161 5.39213092040252028880 -0.86535634391288540623 -0.29649386533875754512 0.84123109180949806607 1.97895604895775356624 2.26338728824481760782 2.83224976681894569097 2.26338728824481760782 2.54781852753188164940 4.25440596325426501068 5.10769968111545669132 5.10769968111545669132 3.96997472396720096910 3.68554348468013737161 3.68554348468013737161 3.68554348468013737161 4.82326844182839220565 5.39213092040252028880 3.68554348468013737161 3.68554348468013737161 3.68554348468013737161 4.25440596325426501068 1.97895604895775356624 0.84123109180949806607 0.55679985252243413552 1.12566233109656188560 1.97895604895775356624 1.97895604895775356624 1.97895604895775356624 2.26338728824481760782 1.97895604895775356624 1.12566233109656188560 2.26338728824481760782 1.97895604895775356624 1.97895604895775356624 1.69452480967068974671 2.83224976681894569097 2.83224976681894569097 2.54781852753188164940 3.11668100610600973255 4.53883720254132860816 3.96997472396720096910 3.40111224539307333004 3.96997472396720096910 -4.27853121535765179573 0.84123109180949806607 2.54781852753188164940 7.09871835612490453826 6.24542463826371196944 7.95201207398609533072 7.38314959541196813575 7.09871835612490453826 7.66758083469903173324 9.08973703113435149703 7.95201207398609533072 7.95201207398609533072 7.38314959541196813575 8.80530579184728701136 8.52087455256022430206 8.80530579184728701136 5.10769968111545669132 7.38314959541196813575 8.52087455256022430206 8.52087455256022430206 7.66758083469903173324 6.52985587755077556693 5.10769968111545669132 5.39213092040252028880 5.10769968111545669132 4.53883720254132860816 4.53883720254132860816 4.53883720254132860816 5.39213092040252028880 5.10769968111545669132 5.39213092040252028880 5.96099339897664926013 6.81428711683784005260 7.38314959541196813575 7.38314959541196813575 7.95201207398609533072 7.38314959541196813575 6.24542463826371196944 5.96099339897664926013 7.09871835612490453826 7.38314959541196813575 7.38314959541196813575 7.66758083469903173324 7.38314959541196813575 7.09871835612490453826 8.80530579184728701136 7.95201207398609533072 8.23644331327315981639 7.95201207398609533072 8.23644331327315981639 8.80530579184728701136 7.66758083469903173324 8.23644331327315981639 7.09871835612490453826 7.95201207398609533072 7.38314959541196813575 6.81428711683784005260 7.38314959541196813575 7.09871835612490453826 7.66758083469903173324 8.23644331327315981639 7.95201207398609533072 6.81428711683784005260 7.09871835612490453826 7.38314959541196813575 7.09871835612490453826 7.38314959541196813575 6.24542463826371196944 7.38314959541196813575 8.23644331327315981639 7.38314959541196813575 7.66758083469903173324 7.95201207398609533072 7.09871835612490453826 7.38314959541196813575 7.38314959541196813575 7.38314959541196813575 7.38314959541196813575 6.52985587755077556693 7.09871835612490453826 8.80530579184728701136 9.37416827042141420634 7.95201207398609533072 7.38314959541196813575 7.09871835612490453826 6.52985587755077556693 8.52087455256022430206 8.52087455256022430206 8.23644331327315981639 8.80530579184728701136 8.80530579184728701136 7.38314959541196813575 7.66758083469903173324 7.95201207398609533072 7.38314959541196813575 7.38314959541196813575 7.09871835612490453826 8.23644331327315981639 7.95201207398609533072 8.52087455256022430206 7.38314959541196813575 5.67656215968958477447 6.81428711683784005260 7.09871835612490453826 7.95201207398609533072 7.95201207398609533072 7.09871835612490453826 5.96099339897664926013 7.09871835612490453826 8.23644331327315981639 7.95201207398609533072 8.52087455256022430206 8.23644331327315981639 7.38314959541196813575 8.23644331327315981639 8.23644331327315981639 8.52087455256022430206 8.52087455256022430206 8.52087455256022430206 8.23644331327315981639 8.52087455256022430206 8.52087455256022430206 8.23644331327315981639 8.52087455256022430206 7.95201207398609533072 7.95201207398609533072 7.66758083469903173324 8.23644331327315981639 7.95201207398609533072 8.52087455256022430206 7.66758083469903173324 8.52087455256022430206 8.23644331327315981639 8.80530579184728701136 9.08973703113435149703 7.95201207398609533072 8.52087455256022430206 9.08973703113435149703 9.08973703113435149703 8.80530579184728701136 8.52087455256022430206 8.52087455256022430206 8.80530579184728701136 9.08973703113435149703 8.80530579184728701136 7.95201207398609533072 9.08973703113435149703 8.52087455256022430206 8.80530579184728701136 8.52087455256022430206 8.23644331327315981639 8.80530579184728701136 9.37416827042141420634 8.80530579184728701136 8.80530579184728701136 9.37416827042141420634 10.22746198828260588698 8.80530579184728701136 8.52087455256022430206 9.37416827042141420634 9.08973703113435149703 8.80530579184728701136 9.37416827042141420634 10.22746198828260588698 9.65859950970847869200 9.37416827042141420634 9.37416827042141420634 9.08973703113435149703 9.65859950970847869200 9.08973703113435149703 9.94303074899554140131 10.79632446685673308195 9.94303074899554140131 11.08075570614379756762 9.65859950970847869200 9.65859950970847869200 9.08973703113435149703 9.94303074899554140131 10.22746198828260588698 9.65859950970847869200 9.94303074899554140131 10.22746198828260588698 10.79632446685673308195 9.94303074899554140131 10.22746198828260588698 9.94303074899554140131 10.51189322756967037265 11.93404942400498924826 9.94303074899554140131 10.51189322756967037265 10.51189322756967037265 9.65859950970847869200 9.37416827042141420634 10.51189322756967037265 10.22746198828260588698 10.79632446685673308195 10.51189322756967037265 9.65859950970847869200 11.36518694543086205329 11.08075570614379756762 11.36518694543086205329 9.94303074899554140131 10.79632446685673308195 11.36518694543086205329 11.08075570614379756762 10.79632446685673308195 9.94303074899554140131 10.79632446685673308195 11.08075570614379756762 11.08075570614379756762 10.51189322756967037265 10.51189322756967037265 11.36518694543086205329 9.65859950970847869200 10.22746198828260588698 10.22746198828260588698 10.22746198828260588698 9.65859950970847869200 9.65859950970847869200 10.22746198828260588698 10.79632446685673308195 10.22746198828260588698 10.51189322756967037265 10.51189322756967037265 11.08075570614379756762 9.65859950970847869200 10.51189322756967037265 11.08075570614379756762 9.65859950970847869200 9.94303074899554140131 9.65859950970847869200 9.37416827042141420634 9.94303074899554140131 9.94303074899554140131 10.79632446685673308195 9.94303074899554140131 9.65859950970847869200 10.51189322756967037265 9.94303074899554140131 10.22746198828260588698 9.37416827042141420634 9.94303074899554140131 9.37416827042141420634 9.65859950970847869200 9.94303074899554140131 10.22746198828260588698 9.08973703113435149703 8.80530579184728701136 9.37416827042141420634 8.80530579184728701136 9.37416827042141420634 9.08973703113435149703 9.94303074899554140131 8.23644331327315981639 9.37416827042141420634 9.08973703113435149703 9.08973703113435149703 8.80530579184728701136 9.37416827042141420634 9.08973703113435149703 9.08973703113435149703 9.08973703113435149703 6.81428711683784005260 3.11668100610600973255 8.80530579184728701136 6.52985587755077556693 6.52985587755077556693 5.10769968111545669132 4.25440596325426501068 5.96099339897664926013 6.81428711683784005260 7.09871835612490453826 7.09871835612490453826 6.81428711683784005260 7.38314959541196813575 5.96099339897664926013 7.09871835612490453826 4.53883720254132860816 4.82326844182839220565 5.67656215968958477447 5.10769968111545669132 5.96099339897664926013 5.67656215968958477447 6.24542463826371196944 5.10769968111545669132 5.96099339897664926013 7.38314959541196813575 4.53883720254132860816 3.11668100610600973255 1.69452480967068974671 1.69452480967068974671 3.11668100610600973255 0.55679985252243413552 -1.14978758319994955883 1.12566233109656188560 -1.14978758319994955883 -1.71865006177407719790 -0.29649386533875754512 -0.29649386533875754512 0.27236861323537020496 0.27236861323537020496 1.41009357038362570513 -1.14978758319994955883 -0.86535634391288540623 -0.86535634391288540623 -0.58092510462582158670 -1.14978758319994955883 -0.29649386533875754512 3.40111224539307333004 5.39213092040252028880 6.52985587755077556693 7.66758083469903173324 7.66758083469903173324 7.66758083469903173324 5.96099339897664926013 5.39213092040252028880 1.97895604895775356624 1.12566233109656188560 1.12566233109656188560 0.84123109180949806607 0.84123109180949806607 1.12566233109656188560 0.55679985252243413552 1.12566233109656188560 0.27236861323537020496 1.41009357038362570513 1.41009357038362570513 0.55679985252243413552 0.55679985252243413552 0.27236861323537020496 1.41009357038362570513 0.55679985252243413552 0.55679985252243413552 0.55679985252243413552 0.27236861323537020496 0.84123109180949806607 0.84123109180949806607 0.84123109180949806607 0.55679985252243413552 -0.01206262605169367355 0.84123109180949806607 0.55679985252243413552 1.41009357038362570513 1.97895604895775356624 2.26338728824481760782 2.54781852753188164940 1.97895604895775356624 1.97895604895775356624 1.97895604895775356624 1.97895604895775356624 2.54781852753188164940 1.41009357038362570513 1.69452480967068974671 1.97895604895775356624 1.41009357038362570513 1.12566233109656188560 1.69452480967068974671 1.97895604895775356624 1.69452480967068974671 1.69452480967068974671 1.12566233109656188560 0.55679985252243413552 0.84123109180949806607 0.84123109180949806607 0.55679985252243413552 -0.01206262605169367355 0.55679985252243413552 0.27236861323537020496 -0.29649386533875754512 -0.29649386533875754512 -0.86535634391288540623 -1.14978758319994955883 -0.58092510462582158670 -1.14978758319994955883 -1.14978758319994955883 -0.29649386533875754512 -0.01206262605169367355 0.55679985252243413552 0.55679985252243413552 -0.29649386533875754512 -0.01206262605169367355 -0.58092510462582158670 -1.14978758319994955883 -1.71865006177407719790 -0.29649386533875754512 0.55679985252243413552 0.84123109180949806607 0.84123109180949806607 -0.01206262605169367355 0.27236861323537020496 0.55679985252243413552 -0.01206262605169367355 0.55679985252243413552 0.84123109180949806607 1.12566233109656188560 1.41009357038362570513 0.84123109180949806607 1.41009357038362570513 1.41009357038362570513 1.41009357038362570513 1.41009357038362570513 1.12566233109656188560 1.97895604895775356624 2.26338728824481760782 1.41009357038362570513 1.69452480967068974671 1.69452480967068974671 1.41009357038362570513 1.41009357038362570513 1.97895604895775356624 1.41009357038362570513 1.12566233109656188560 1.69452480967068974671 1.41009357038362570513 1.97895604895775356624 1.12566233109656188560 1.41009357038362570513 2.26338728824481760782 1.41009357038362570513 1.12566233109656188560 1.41009357038362570513 1.41009357038362570513 1.12566233109656188560 1.41009357038362570513 1.41009357038362570513 1.69452480967068974671 1.69452480967068974671 0.84123109180949806607 0.84123109180949806607 0.84123109180949806607 0.55679985252243413552 1.12566233109656188560 1.12566233109656188560 1.41009357038362570513 0.84123109180949806607 -0.29649386533875754512 0.55679985252243413552 0.55679985252243413552 0.84123109180949806607 1.12566233109656188560 1.41009357038362570513 1.41009357038362570513 -0.29649386533875754512 -0.01206262605169367355 -1.43421882248701337836 -1.43421882248701337836 -1.71865006177407719790 -3.14080625820939651760 -3.14080625820939651760 -3.14080625820939651760 -3.42523749749646011509 -3.14080625820939651760 -2.57194377963526887854 -4.56296245464471628139 -3.99409997607058819824 -2.85637501892233247602 -2.28751254034820483696 -2.00308130106114079538 -2.57194377963526887854 -2.28751254034820483696 -1.71865006177407719790 -2.57194377963526887854 -2.57194377963526887854 -2.57194377963526887854 -2.57194377963526887854 -1.43421882248701337836 -2.00308130106114079538 -2.00308130106114079538 -2.57194377963526887854 -2.28751254034820483696 -3.14080625820939651760 -2.28751254034820483696 -2.57194377963526887854 -3.14080625820939651760 -2.28751254034820483696 -2.00308130106114079538 -3.14080625820939651760 -2.85637501892233247602 -2.85637501892233247602 -2.28751254034820483696 -2.28751254034820483696 -2.28751254034820483696 -2.00308130106114079538 -1.71865006177407719790 -2.85637501892233247602 -2.28751254034820483696 -2.85637501892233247602 -2.85637501892233247602 -2.00308130106114079538 -2.85637501892233247602 -2.28751254034820483696 -2.28751254034820483696 -2.85637501892233247602 -2.28751254034820483696 -2.00308130106114079538 -2.57194377963526887854 -2.85637501892233247602 -2.85637501892233247602 -2.57194377963526887854 -2.85637501892233247602 -2.28751254034820483696 -2.85637501892233247602 -2.28751254034820483696 -2.28751254034820483696 -2.85637501892233247602 -2.00308130106114079538 -2.00308130106114079538 -1.71865006177407719790 -2.00308130106114079538 -2.28751254034820483696 -2.00308130106114079538 -2.57194377963526887854 -2.28751254034820483696 -2.28751254034820483696 -2.28751254034820483696 -1.71865006177407719790 -2.00308130106114079538 -2.28751254034820483696 -2.00308130106114079538 -2.28751254034820483696 -2.28751254034820483696 -2.57194377963526887854 -2.57194377963526887854 -1.71865006177407719790 -1.71865006177407719790 -2.00308130106114079538 -2.85637501892233247602 -1.43421882248701337836 -2.57194377963526887854 -3.42523749749646011509 -2.85637501892233247602 -2.57194377963526887854 -2.57194377963526887854 -2.28751254034820483696 -2.00308130106114079538 -2.57194377963526887854 -2.28751254034820483696 -2.28751254034820483696 -2.57194377963526887854 -2.28751254034820483696 -2.00308130106114079538 -1.71865006177407719790 -1.43421882248701337836 -2.28751254034820483696 -1.43421882248701337836 -2.28751254034820483696 -2.85637501892233247602 -2.57194377963526887854 -2.00308130106114079538 -3.14080625820939651760 -1.71865006177407719790 -0.58092510462582158670 -0.86535634391288540623 -2.00308130106114079538 -0.58092510462582158670 -0.29649386533875754512 -0.86535634391288540623 -1.14978758319994955883 -0.58092510462582158670 -1.14978758319994955883 -0.86535634391288540623 -2.28751254034820483696 -2.57194377963526887854 -3.99409997607058819824 -2.57194377963526887854 -2.57194377963526887854 -2.85637501892233247602 -3.70966873678352415666 -3.99409997607058819824 -3.14080625820939651760 -3.14080625820939651760 -2.85637501892233247602 -3.14080625820939651760 -2.57194377963526887854 -2.85637501892233247602 -2.85637501892233247602 -2.85637501892233247602 -2.28751254034820483696 -2.00308130106114079538 -0.86535634391288540623 -2.00308130106114079538 -2.28751254034820483696 -3.99409997607058819824 -3.99409997607058819824 -3.99409997607058819824 -4.27853121535765179573 -4.27853121535765179573 -4.27853121535765179573 -3.99409997607058819824 -3.99409997607058819824 -4.27853121535765179573 -3.42523749749646011509 -3.14080625820939651760 -2.85637501892233247602 -2.85637501892233247602 -3.42523749749646011509 -2.85637501892233247602 -2.57194377963526887854 -3.14080625820939651760 -3.99409997607058819824 -3.42523749749646011509 -3.14080625820939651760 -3.14080625820939651760 -3.42523749749646011509 -3.70966873678352415666 -3.14080625820939651760 -2.85637501892233247602 -3.14080625820939651760 -2.85637501892233247602 -2.00308130106114079538 -1.14978758319994955883 -1.71865006177407719790 -1.14978758319994955883 0.55679985252243413552 0.84123109180949806607 -0.58092510462582158670 -0.86535634391288540623 -1.43421882248701337836 -0.86535634391288540623 -0.86535634391288540623 -0.86535634391288540623 -1.71865006177407719790 -2.57194377963526887854 -2.00308130106114079538 -2.00308130106114079538 -2.28751254034820483696 -2.28751254034820483696 -2.00308130106114079538 -1.43421882248701337836 -1.14978758319994955883 -1.14978758319994955883 -1.14978758319994955883 -0.58092510462582158670 -0.86535634391288540623 -0.29649386533875754512 -0.58092510462582158670 -0.01206262605169367355 0.27236861323537020496 -0.01206262605169367355 0.84123109180949806607 -0.29649386533875754512 -0.29649386533875754512 -1.14978758319994955883 -1.71865006177407719790 -2.57194377963526887854 -2.28751254034820483696 -1.14978758319994955883 -2.00308130106114079538 -2.00308130106114079538 -1.71865006177407719790 -2.28751254034820483696 -2.28751254034820483696 -1.71865006177407719790 -2.28751254034820483696 -2.28751254034820483696 -2.57194377963526887854 -2.28751254034820483696 -3.14080625820939651760 -2.00308130106114079538 -1.14978758319994955883 -0.86535634391288540623 -0.86535634391288540623 0.55679985252243413552 2.54781852753188164940 -2.85637501892233247602 -2.28751254034820483696 -2.57194377963526887854 -1.43421882248701337836 -0.58092510462582158670 -2.28751254034820483696 1.41009357038362570513 1.41009357038362570513 0.84123109180949806607 2.83224976681894569097 3.40111224539307333004 3.40111224539307333004 2.54781852753188164940 2.26338728824481760782 0.84123109180949806607 1.12566233109656188560 0.84123109180949806607 1.41009357038362570513 1.97895604895775356624 1.97895604895775356624 0.84123109180949806607 1.41009357038362570513 1.69452480967068974671 1.69452480967068974671 1.69452480967068974671 1.41009357038362570513 1.69452480967068974671 1.41009357038362570513 1.69452480967068974671 1.12566233109656188560 1.69452480967068974671 1.41009357038362570513 2.26338728824481760782 1.41009357038362570513 1.97895604895775356624 1.97895604895775356624 2.54781852753188164940 2.26338728824481760782 1.97895604895775356624 1.97895604895775356624 2.26338728824481760782 1.97895604895775356624 2.54781852753188164940 2.54781852753188164940 2.26338728824481760782 2.26338728824481760782 2.83224976681894569097 2.54781852753188164940 2.83224976681894569097 2.83224976681894569097 2.83224976681894569097 2.54781852753188164940 2.54781852753188164940 2.83224976681894569097 2.26338728824481760782 3.11668100610600973255 2.83224976681894569097 2.83224976681894569097 3.40111224539307333004 3.40111224539307333004 3.68554348468013737161 3.40111224539307333004 1.97895604895775356624 2.26338728824481760782 1.97895604895775356624 1.97895604895775356624 2.26338728824481760782 2.54781852753188164940 2.54781852753188164940 2.54781852753188164940 2.26338728824481760782 2.83224976681894569097 2.26338728824481760782 2.54781852753188164940 1.97895604895775356624 1.41009357038362570513 2.54781852753188164940 3.11668100610600973255 3.40111224539307333004 4.25440596325426501068 3.40111224539307333004 2.83224976681894569097 3.11668100610600973255 3.40111224539307333004 3.96997472396720096910 3.68554348468013737161 3.11668100610600973255 3.40111224539307333004 3.40111224539307333004 3.96997472396720096910 2.54781852753188164940 3.11668100610600973255 3.11668100610600973255 3.40111224539307333004 3.68554348468013737161 4.53883720254132860816 3.40111224539307333004 4.25440596325426501068 3.96997472396720096910 4.53883720254132860816 4.53883720254132860816 4.25440596325426501068 5.10769968111545669132 4.25440596325426501068 4.25440596325426501068 4.53883720254132860816 4.25440596325426501068 4.82326844182839220565 4.82326844182839220565 4.53883720254132860816 3.96997472396720096910 4.53883720254132860816 4.25440596325426501068 3.11668100610600973255 3.96997472396720096910 3.40111224539307333004 3.40111224539307333004 3.96997472396720096910 4.25440596325426501068 2.83224976681894569097 2.83224976681894569097 1.69452480967068974671 1.41009357038362570513 -0.29649386533875754512 0.27236861323537020496 -2.00308130106114079538 -1.14978758319994955883 -1.43421882248701337836 -0.29649386533875754512 0.27236861323537020496 -0.01206262605169367355 -0.58092510462582158670 0.55679985252243413552 2.54781852753188164940 3.68554348468013737161 3.40111224539307333004 3.40111224539307333004 3.11668100610600973255 0.27236861323537020496 1.97895604895775356624 4.25440596325426501068 4.53883720254132860816 5.10769968111545669132 4.53883720254132860816 4.25440596325426501068 3.96997472396720096910 3.96997472396720096910 4.25440596325426501068 3.96997472396720096910 3.68554348468013737161 4.25440596325426501068 4.82326844182839220565 4.53883720254132860816 5.10769968111545669132 4.82326844182839220565 4.25440596325426501068 3.96997472396720096910 3.68554348468013737161 4.53883720254132860816 4.25440596325426501068 2.83224976681894569097 2.54781852753188164940 2.54781852753188164940 2.83224976681894569097 2.83224976681894569097 2.83224976681894569097 2.54781852753188164940 2.83224976681894569097 2.54781852753188164940 2.26338728824481760782 2.54781852753188164940 1.97895604895775356624 2.26338728824481760782 1.41009357038362570513 -0.29649386533875754512 -0.01206262605169367355 0.55679985252243413552 0.27236861323537020496 1.12566233109656188560 1.12566233109656188560 0.27236861323537020496 0.27236861323537020496 0.55679985252243413552 4.53883720254132860816 3.68554348468013737161 4.25440596325426501068 4.82326844182839220565 -0.29649386533875754512 5.39213092040252028880 -1.43421882248701337836 -4.56296245464471628139 -1.71865006177407719790 -2.85637501892233247602 -5.13182493321884436455 -5.70068741179297155952 -5.13182493321884436455 -5.13182493321884436455 -4.84739369393177987888 -5.13182493321884436455 -5.41625617250590796203 -3.70966873678352415666 -3.14080625820939651760 -1.71865006177407719790 -2.85637501892233247602 -2.85637501892233247602 -3.14080625820939651760 1.12566233109656188560 -0.58092510462582158670 -0.58092510462582158670 -0.58092510462582158670 -0.58092510462582158670 -1.43421882248701337836 -2.00308130106114079538 -2.28751254034820483696 -1.14978758319994955883 -1.43421882248701337836 -0.86535634391288540623 -1.14978758319994955883 -0.29649386533875754512 -0.58092510462582158670 -0.86535634391288540623 -0.29649386533875754512 -1.43421882248701337836 -0.58092510462582158670 -0.86535634391288540623 -0.86535634391288540623 -0.86535634391288540623 -0.58092510462582158670 -0.58092510462582158670 -0.86535634391288540623 -0.01206262605169367355 0.55679985252243413552 1.41009357038362570513 3.11668100610600973255 2.83224976681894569097 3.96997472396720096910 3.68554348468013737161 4.25440596325426501068 6.24542463826371196944 5.96099339897664926013 6.52985587755077556693 7.09871835612490453826 6.81428711683784005260 4.25440596325426501068 4.53883720254132860816 3.96997472396720096910 4.53883720254132860816 2.83224976681894569097 5.10769968111545669132 4.25440596325426501068 4.82326844182839220565 4.25440596325426501068 4.82326844182839220565 4.25440596325426501068 4.82326844182839220565 4.53883720254132860816 3.96997472396720096910 5.39213092040252028880 3.68554348468013737161 4.25440596325426501068 3.11668100610600973255 2.54781852753188164940 1.97895604895775356624 1.12566233109656188560 -0.58092510462582158670 -1.43421882248701337836 -1.43421882248701337836 -1.71865006177407719790 -2.00308130106114079538 -1.71865006177407719790 0.84123109180949806607 2.26338728824481760782 1.97895604895775356624 0.55679985252243413552 1.12566233109656188560 1.12566233109656188560 0.84123109180949806607 1.69452480967068974671 1.41009357038362570513 1.12566233109656188560 1.69452480967068974671 2.54781852753188164940 2.83224976681894569097 3.11668100610600973255 2.54781852753188164940 3.68554348468013737161 2.54781852753188164940 3.68554348468013737161 1.97895604895775356624 2.83224976681894569097 1.12566233109656188560 1.12566233109656188560 0.84123109180949806607 1.97895604895775356624 1.97895604895775356624 1.12566233109656188560 1.12566233109656188560 1.69452480967068974671 1.12566233109656188560 1.69452480967068974671 0.84123109180949806607 1.41009357038362570513 1.41009357038362570513 1.12566233109656188560 1.97895604895775356624 1.41009357038362570513 1.97895604895775356624 1.69452480967068974671 2.54781852753188164940 1.97895604895775356624 1.97895604895775356624 1.97895604895775356624 2.54781852753188164940 2.83224976681894569097 3.40111224539307333004 4.53883720254132860816 5.10769968111545669132 4.25440596325426501068 5.10769968111545669132 4.82326844182839220565 5.39213092040252028880 4.82326844182839220565 5.10769968111545669132 4.25440596325426501068 5.10769968111545669132 5.96099339897664926013 6.52985587755077556693 5.96099339897664926013 7.09871835612490453826 5.39213092040252028880 5.67656215968958477447 5.10769968111545669132 6.24542463826371196944 6.52985587755077556693 6.24542463826371196944 7.09871835612490453826 6.81428711683784005260 6.24542463826371196944 6.81428711683784005260 7.09871835612490453826 6.52985587755077556693 6.24542463826371196944 5.39213092040252028880 6.52985587755077556693 6.81428711683784005260 6.81428711683784005260 5.96099339897664926013 5.67656215968958477447 5.96099339897664926013 5.67656215968958477447 6.24542463826371196944 5.96099339897664926013 4.82326844182839220565 5.39213092040252028880 6.52985587755077556693 6.52985587755077556693 5.96099339897664926013 6.52985587755077556693 5.96099339897664926013 6.24542463826371196944 5.96099339897664926013 6.52985587755077556693 5.67656215968958477447 5.39213092040252028880 6.52985587755077556693 5.39213092040252028880 6.24542463826371196944 6.52985587755077556693 6.52985587755077556693 6.52985587755077556693 6.52985587755077556693 6.52985587755077556693 6.52985587755077556693 5.96099339897664926013 5.67656215968958477447 6.52985587755077556693 5.67656215968958477447 5.39213092040252028880 6.24542463826371196944 5.67656215968958477447 5.96099339897664926013 6.52985587755077556693 5.96099339897664926013 5.96099339897664926013 5.96099339897664926013 5.96099339897664926013 5.96099339897664926013 6.24542463826371196944 6.24542463826371196944 5.67656215968958477447 5.96099339897664926013 6.24542463826371196944 6.52985587755077556693 5.96099339897664926013 5.96099339897664926013 6.52985587755077556693 6.81428711683784005260 6.81428711683784005260 5.96099339897664926013 6.24542463826371196944 4.82326844182839220565 5.96099339897664926013 5.10769968111545669132 5.10769968111545669132 5.39213092040252028880 5.96099339897664926013 5.96099339897664926013 5.39213092040252028880 5.39213092040252028880 4.82326844182839220565 5.39213092040252028880 6.24542463826371196944 6.24542463826371196944 5.96099339897664926013 6.24542463826371196944 5.96099339897664926013 6.52985587755077556693 6.81428711683784005260 5.67656215968958477447 5.67656215968958477447 5.96099339897664926013 5.96099339897664926013 6.24542463826371196944 5.96099339897664926013 5.67656215968958477447 5.10769968111545669132 5.39213092040252028880 4.82326844182839220565 4.53883720254132860816 4.82326844182839220565 5.10769968111545669132 6.52985587755077556693 7.95201207398609533072 8.23644331327315981639 7.95201207398609533072 7.95201207398609533072 7.38314959541196813575 7.66758083469903173324 6.81428711683784005260 7.38314959541196813575 6.81428711683784005260 6.52985587755077556693 6.81428711683784005260 6.24542463826371196944 6.81428711683784005260 7.95201207398609533072 8.52087455256022430206 8.80530579184728701136 9.37416827042141420634 9.08973703113435149703 8.80530579184728701136 8.23644331327315981639 9.08973703113435149703 8.23644331327315981639 9.08973703113435149703 8.80530579184728701136 9.37416827042141420634 9.37416827042141420634 9.08973703113435149703 8.80530579184728701136 7.95201207398609533072 7.95201207398609533072 8.23644331327315981639 8.52087455256022430206 7.95201207398609533072 8.80530579184728701136 8.52087455256022430206 8.23644331327315981639 7.95201207398609533072 8.23644331327315981639 7.66758083469903173324 8.52087455256022430206 8.80530579184728701136 8.52087455256022430206 8.80530579184728701136 8.23644331327315981639 8.23644331327315981639 8.52087455256022430206 8.23644331327315981639 8.80530579184728701136 8.52087455256022430206 8.23644331327315981639 8.80530579184728701136 8.52087455256022430206 8.52087455256022430206 8.80530579184728701136 8.23644331327315981639 8.23644331327315981639 8.80530579184728701136 9.08973703113435149703 7.95201207398609533072 8.52087455256022430206 8.52087455256022430206 8.52087455256022430206 8.80530579184728701136 8.80530579184728701136 7.95201207398609533072 8.23644331327315981639 9.08973703113435149703 8.80530579184728701136 8.80530579184728701136 8.23644331327315981639 8.23644331327315981639 9.37416827042141420634 8.52087455256022430206 8.80530579184728701136 8.80530579184728701136 8.52087455256022430206 8.52087455256022430206 9.08973703113435149703 9.08973703113435149703 9.08973703113435149703 8.52087455256022430206 8.52087455256022430206 7.95201207398609533072 7.95201207398609533072 8.80530579184728701136 6.81428711683784005260 4.53883720254132860816 3.96997472396720096910 3.96997472396720096910 3.68554348468013737161 3.11668100610600973255 3.68554348468013737161 3.96997472396720096910 3.11668100610600973255 3.40111224539307333004 3.68554348468013737161 3.96997472396720096910 4.25440596325426501068 3.96997472396720096910 3.96997472396720096910 3.40111224539307333004 3.68554348468013737161 3.68554348468013737161 4.25440596325426501068 3.40111224539307333004 4.25440596325426501068 4.25440596325426501068 4.53883720254132860816 5.67656215968958477447 5.96099339897664926013 6.52985587755077556693 7.09871835612490453826 7.66758083469903173324 7.66758083469903173324 8.52087455256022430206 7.95201207398609533072 5.96099339897664926013 6.52985587755077556693 6.81428711683784005260 6.81428711683784005260 7.09871835612490453826 7.66758083469903173324 6.52985587755077556693 6.24542463826371196944 4.82326844182839220565 2.26338728824481760782 2.54781852753188164940 1.41009357038362570513 0.84123109180949806607 1.69452480967068974671 1.69452480967068974671 1.97895604895775356624 2.54781852753188164940 2.26338728824481760782 2.83224976681894569097 2.54781852753188164940 1.97895604895775356624 1.97895604895775356624 2.26338728824481760782 2.26338728824481760782 2.54781852753188164940 1.69452480967068974671 0.55679985252243413552 0.84123109180949806607 1.12566233109656188560 0.27236861323537020496 -0.01206262605169367355 -0.58092510462582158670 0.27236861323537020496 0.27236861323537020496 -0.01206262605169367355 0.27236861323537020496 0.55679985252243413552 0.55679985252243413552 0.84123109180949806607 1.12566233109656188560 1.12566233109656188560 1.97895604895775356624 2.26338728824481760782 1.41009357038362570513 1.41009357038362570513 1.69452480967068974671 1.69452480967068974671 0.84123109180949806607 1.69452480967068974671 1.69452480967068974671 1.97895604895775356624 2.83224976681894569097 5.39213092040252028880 5.67656215968958477447 5.96099339897664926013 6.52985587755077556693 7.66758083469903173324 6.52985587755077556693 5.39213092040252028880 6.52985587755077556693 5.96099339897664926013 6.52985587755077556693 6.81428711683784005260 7.38314959541196813575 6.24542463826371196944 5.10769968111545669132 6.24542463826371196944 5.39213092040252028880 6.24542463826371196944 7.09871835612490453826 5.39213092040252028880 4.53883720254132860816 5.67656215968958477447 2.83224976681894569097 1.12566233109656188560 0.84123109180949806607 4.25440596325426501068 3.40111224539307333004 4.25440596325426501068 4.25440596325426501068 3.11668100610600973255 0.84123109180949806607 -2.00308130106114079538 0.55679985252243413552 0.27236861323537020496 0.27236861323537020496 0.55679985252243413552 1.12566233109656188560 1.41009357038362570513 2.26338728824481760782 2.83224976681894569097 3.96997472396720096910 3.11668100610600973255 3.40111224539307333004 1.97895604895775356624 1.12566233109656188560 1.97895604895775356624 3.11668100610600973255 3.11668100610600973255 3.11668100610600973255 3.40111224539307333004 2.54781852753188164940 2.54781852753188164940 1.69452480967068974671 1.69452480967068974671 2.26338728824481760782 2.54781852753188164940 1.12566233109656188560 2.83224976681894569097 4.53883720254132860816 5.10769968111545669132 4.82326844182839220565 4.82326844182839220565 4.53883720254132860816 4.82326844182839220565 5.10769968111545669132 4.82326844182839220565 4.82326844182839220565 3.96997472396720096910 3.11668100610600973255 3.40111224539307333004 2.54781852753188164940 3.68554348468013737161 3.11668100610600973255 3.68554348468013737161 3.40111224539307333004 3.40111224539307333004 3.40111224539307333004 3.40111224539307333004 3.68554348468013737161 3.96997472396720096910 4.25440596325426501068 4.82326844182839220565 6.24542463826371196944 7.38314959541196813575 6.24542463826371196944 7.09871835612490453826 5.96099339897664926013 6.52985587755077556693 4.53883720254132860816 6.52985587755077556693 5.67656215968958477447 5.96099339897664926013 5.67656215968958477447 5.39213092040252028880 6.24542463826371196944 5.96099339897664926013 6.24542463826371196944 7.09871835612490453826 7.38314959541196813575 7.95201207398609533072 7.95201207398609533072 7.09871835612490453826 6.81428711683784005260 6.24542463826371196944 5.67656215968958477447 5.39213092040252028880 5.10769968111545669132 4.82326844182839220565 5.39213092040252028880 5.67656215968958477447 5.96099339897664926013 5.39213092040252028880 6.24542463826371196944 5.10769968111545669132 4.82326844182839220565 4.53883720254132860816 5.39213092040252028880 5.10769968111545669132 6.24542463826371196944 7.95201207398609533072 8.23644331327315981639 6.81428711683784005260 5.67656215968958477447 6.24542463826371196944 6.24542463826371196944 5.10769968111545669132 4.25440596325426501068 4.25440596325426501068 4.82326844182839220565 3.96997472396720096910 4.53883720254132860816 3.96997472396720096910 4.25440596325426501068 4.82326844182839220565 4.82326844182839220565 5.39213092040252028880 7.09871835612490453826 6.52985587755077556693 7.66758083469903173324 6.52985587755077556693 6.81428711683784005260 5.67656215968958477447 5.96099339897664926013 6.24542463826371196944 6.52985587755077556693 6.81428711683784005260 5.67656215968958477447 6.52985587755077556693 7.66758083469903173324 6.52985587755077556693 7.66758083469903173324 5.10769968111545669132 2.26338728824481760782 0.55679985252243413552 -1.14978758319994955883 -1.43421882248701337836 -1.43421882248701337836 -0.58092510462582158670 0.27236861323537020496 -0.01206262605169367355 -0.86535634391288540623 -1.14978758319994955883 -1.14978758319994955883 0.27236861323537020496 0.27236861323537020496 0.84123109180949806607 -0.58092510462582158670 -1.14978758319994955883 -0.29649386533875754512 -1.14978758319994955883 -1.71865006177407719790 -1.43421882248701337836 -1.43421882248701337836 -1.14978758319994955883 -1.14978758319994955883 -0.86535634391288540623 -0.86535634391288540623 -0.86535634391288540623 -1.43421882248701337836 -1.43421882248701337836 -1.14978758319994955883 -0.86535634391288540623 -1.14978758319994955883 -0.86535634391288540623 -0.58092510462582158670 -0.58092510462582158670 -0.29649386533875754512 0.55679985252243413552 -1.14978758319994955883 -0.86535634391288540623 -0.58092510462582158670 0.27236861323537020496 0.27236861323537020496 0.27236861323537020496 -0.29649386533875754512 0.27236861323537020496 -0.01206262605169367355 0.84123109180949806607 0.55679985252243413552 0.27236861323537020496 -0.01206262605169367355 0.55679985252243413552 0.84123109180949806607 0.55679985252243413552 1.12566233109656188560 0.84123109180949806607 1.41009357038362570513 0.55679985252243413552 0.84123109180949806607 0.84123109180949806607 1.12566233109656188560 1.41009357038362570513 0.84123109180949806607 1.12566233109656188560 0.84123109180949806607 1.12566233109656188560 1.12566233109656188560 1.69452480967068974671 1.12566233109656188560 1.41009357038362570513 0.84123109180949806607 1.12566233109656188560 1.12566233109656188560 1.12566233109656188560 1.12566233109656188560 0.55679985252243413552 1.12566233109656188560 1.41009357038362570513 2.26338728824481760782 1.12566233109656188560 0.27236861323537020496 0.55679985252243413552 1.12566233109656188560 1.41009357038362570513 1.41009357038362570513 0.84123109180949806607 1.41009357038362570513 1.41009357038362570513 1.12566233109656188560 0.55679985252243413552 0.55679985252243413552 0.84123109180949806607 1.12566233109656188560 1.41009357038362570513 1.12566233109656188560 0.84123109180949806607 1.41009357038362570513 0.84123109180949806607 1.12566233109656188560 1.41009357038362570513 0.84123109180949806607 0.84123109180949806607 1.12566233109656188560 0.55679985252243413552 0.84123109180949806607 1.12566233109656188560 1.12566233109656188560 0.84123109180949806607 0.84123109180949806607 1.12566233109656188560 1.41009357038362570513 0.84123109180949806607 1.12566233109656188560 1.12566233109656188560 0.84123109180949806607 0.84123109180949806607 0.55679985252243413552 0.55679985252243413552 0.84123109180949806607 1.12566233109656188560 1.12566233109656188560 1.69452480967068974671 1.12566233109656188560 0.84123109180949806607 0.55679985252243413552 0.27236861323537020496 0.27236861323537020496 0.27236861323537020496 0.84123109180949806607 0.84123109180949806607 0.84123109180949806607 0.55679985252243413552 0.27236861323537020496 -0.01206262605169367355 -0.01206262605169367355 0.27236861323537020496 0.27236861323537020496 -0.01206262605169367355 -0.01206262605169367355 0.27236861323537020496 -0.29649386533875754512 -0.29649386533875754512 -0.01206262605169367355 -0.58092510462582158670 0.27236861323537020496 0.27236861323537020496 -0.01206262605169367355 -0.29649386533875754512 -0.01206262605169367355 -0.29649386533875754512 -0.01206262605169367355 -0.29649386533875754512 -0.29649386533875754512 -0.29649386533875754512 -0.01206262605169367355 0.27236861323537020496 -0.29649386533875754512 0.27236861323537020496 -0.01206262605169367355 -0.01206262605169367355 -0.29649386533875754512 0.27236861323537020496 -0.29649386533875754512 -0.58092510462582158670 -0.29649386533875754512 -0.01206262605169367355 -0.01206262605169367355 -0.29649386533875754512 -0.29649386533875754512 -0.29649386533875754512 -0.01206262605169367355 -0.01206262605169367355 0.27236861323537020496 0.27236861323537020496 0.27236861323537020496 -0.01206262605169367355 -0.01206262605169367355 -0.01206262605169367355 -0.29649386533875754512 -0.01206262605169367355 -0.01206262605169367355 0.27236861323537020496 0.27236861323537020496 -0.01206262605169367355 -0.01206262605169367355 -0.01206262605169367355 0.55679985252243413552 0.27236861323537020496 -0.29649386533875754512 -0.01206262605169367355 0.27236861323537020496 0.27236861323537020496 0.55679985252243413552 -0.01206262605169367355 0.55679985252243413552 0.27236861323537020496 -0.58092510462582158670 -0.29649386533875754512 -0.58092510462582158670 -0.58092510462582158670 -0.01206262605169367355 -0.01206262605169367355 -0.29649386533875754512 -0.29649386533875754512 -0.58092510462582158670 -0.29649386533875754512 0.27236861323537020496 -0.01206262605169367355 -0.58092510462582158670 -0.58092510462582158670 0.27236861323537020496 -0.29649386533875754512 -0.29649386533875754512 -0.86535634391288540623 -0.86535634391288540623 -0.86535634391288540623 -0.29649386533875754512 -0.01206262605169367355 -0.01206262605169367355 -1.14978758319994955883 -0.58092510462582158670 -0.86535634391288540623 -0.29649386533875754512 0.27236861323537020496 -1.43421882248701337836 -1.43421882248701337836 -1.14978758319994955883 -1.43421882248701337836 -0.86535634391288540623 -0.58092510462582158670 0.84123109180949806607 0.84123109180949806607 0.27236861323537020496 0.55679985252243413552 1.12566233109656188560 0.55679985252243413552 0.55679985252243413552 0.84123109180949806607 0.84123109180949806607 -0.01206262605169367355 0.55679985252243413552 0.55679985252243413552 0.84123109180949806607 0.27236861323537020496 -0.01206262605169367355 -0.58092510462582158670 -0.58092510462582158670 -0.58092510462582158670 0.27236861323537020496 0.27236861323537020496 0.27236861323537020496 -0.29649386533875754512 -0.01206262605169367355 -0.01206262605169367355 -0.29649386533875754512 -0.58092510462582158670 -0.58092510462582158670 -1.14978758319994955883 -0.29649386533875754512 -0.01206262605169367355 -0.86535634391288540623 -0.29649386533875754512 -0.01206262605169367355 0.55679985252243413552 -0.01206262605169367355 0.27236861323537020496 0.84123109180949806607 0.27236861323537020496 0.84123109180949806607 0.55679985252243413552 -0.01206262605169367355 -0.01206262605169367355 -0.29649386533875754512 -0.58092510462582158670 -0.01206262605169367355 -0.01206262605169367355 0.84123109180949806607 -0.58092510462582158670 -0.01206262605169367355 -0.29649386533875754512 -1.14978758319994955883 -1.14978758319994955883 0.55679985252243413552 0.27236861323537020496 -0.01206262605169367355 -0.58092510462582158670 -0.29649386533875754512 0.27236861323537020496 1.41009357038362570513 1.12566233109656188560 1.41009357038362570513 0.84123109180949806607 1.12566233109656188560 0.55679985252243413552 -1.43421882248701337836 1.97895604895775356624 0.84123109180949806607 0.55679985252243413552 -3.14080625820939651760 -2.85637501892233247602 -2.28751254034820483696 0.55679985252243413552 1.12566233109656188560 2.83224976681894569097 4.82326844182839220565 7.95201207398609533072 7.66758083469903173324 8.23644331327315981639 7.09871835612490453826 7.38314959541196813575 5.67656215968958477447 5.10769968111545669132 3.11668100610600973255 4.25440596325426501068 3.68554348468013737161 3.11668100610600973255 3.40111224539307333004 4.53883720254132860816 8.23644331327315981639 6.52985587755077556693 6.52985587755077556693 8.23644331327315981639 9.37416827042141420634 8.80530579184728701136 9.37416827042141420634 8.80530579184728701136 8.80530579184728701136 9.37416827042141420634 8.80530579184728701136 8.80530579184728701136 8.52087455256022430206 8.80530579184728701136 9.08973703113435149703 8.23644331327315981639 9.08973703113435149703 7.95201207398609533072 8.23644331327315981639 8.52087455256022430206 9.37416827042141420634 9.08973703113435149703 8.52087455256022430206 7.66758083469903173324 8.23644331327315981639 8.52087455256022430206 8.80530579184728701136 7.66758083469903173324 7.38314959541196813575 7.38314959541196813575 7.09871835612490453826 6.81428711683784005260 7.09871835612490453826 6.52985587755077556693 7.09871835612490453826 7.09871835612490453826 6.81428711683784005260 7.09871835612490453826 6.24542463826371196944 6.24542463826371196944 6.52985587755077556693 7.38314959541196813575 7.09871835612490453826 6.81428711683784005260 6.52985587755077556693 6.52985587755077556693 6.52985587755077556693 6.52985587755077556693 5.96099339897664926013 6.24542463826371196944 6.24542463826371196944 4.82326844182839220565 4.82326844182839220565 4.53883720254132860816 4.82326844182839220565 4.82326844182839220565 4.53883720254132860816 3.68554348468013737161 4.82326844182839220565 4.25440596325426501068 3.96997472396720096910 4.53883720254132860816 3.96997472396720096910 3.96997472396720096910 3.96997472396720096910 4.53883720254132860816 3.68554348468013737161 3.68554348468013737161 3.96997472396720096910 3.68554348468013737161 2.83224976681894569097 3.11668100610600973255 2.83224976681894569097 1.97895604895775356624 3.40111224539307333004 3.11668100610600973255 3.40111224539307333004 3.11668100610600973255 1.97895604895775356624 2.26338728824481760782 1.97895604895775356624 2.26338728824481760782 1.69452480967068974671 2.83224976681894569097 2.83224976681894569097 3.68554348468013737161 2.83224976681894569097 3.96997472396720096910 3.68554348468013737161 3.68554348468013737161 3.40111224539307333004 3.68554348468013737161 3.96997472396720096910 3.96997472396720096910 3.68554348468013737161 4.53883720254132860816 3.96997472396720096910 4.25440596325426501068 4.53883720254132860816 4.53883720254132860816 4.25440596325426501068 4.53883720254132860816 4.53883720254132860816 4.53883720254132860816 4.53883720254132860816 4.25440596325426501068 4.53883720254132860816 4.25440596325426501068 4.82326844182839220565 4.53883720254132860816 4.53883720254132860816 3.96997472396720096910 3.96997472396720096910 4.25440596325426501068 4.53883720254132860816 4.82326844182839220565 4.25440596325426501068 4.25440596325426501068 3.96997472396720096910 4.25440596325426501068 4.25440596325426501068 4.82326844182839220565 4.53883720254132860816 4.53883720254132860816 4.25440596325426501068 4.25440596325426501068 4.25440596325426501068 4.82326844182839220565 3.96997472396720096910 4.53883720254132860816 3.68554348468013737161 3.96997472396720096910 4.25440596325426501068 3.96997472396720096910 3.40111224539307333004 3.68554348468013737161 3.68554348468013737161 3.40111224539307333004 3.96997472396720096910 2.83224976681894569097 3.40111224539307333004 2.83224976681894569097 3.11668100610600973255 3.68554348468013737161 3.68554348468013737161 3.96997472396720096910 3.68554348468013737161 3.96997472396720096910 4.25440596325426501068 4.25440596325426501068 3.96997472396720096910 4.53883720254132860816 4.25440596325426501068 3.96997472396720096910 4.25440596325426501068 4.53883720254132860816 4.82326844182839220565 4.82326844182839220565 4.53883720254132860816 3.96997472396720096910 4.25440596325426501068 4.53883720254132860816 4.53883720254132860816 4.53883720254132860816 4.53883720254132860816 4.25440596325426501068 3.96997472396720096910 4.53883720254132860816 4.25440596325426501068 4.53883720254132860816 4.25440596325426501068 4.53883720254132860816 4.53883720254132860816 4.25440596325426501068 4.53883720254132860816 4.82326844182839220565 4.25440596325426501068 4.25440596325426501068 3.96997472396720096910 4.25440596325426501068 4.25440596325426501068 4.25440596325426501068 3.68554348468013737161 3.96997472396720096910 4.25440596325426501068 3.96997472396720096910 3.96997472396720096910 4.53883720254132860816 4.53883720254132860816 3.68554348468013737161 3.96997472396720096910 3.68554348468013737161 4.53883720254132860816 4.53883720254132860816 3.96997472396720096910 4.25440596325426501068 4.53883720254132860816 4.53883720254132860816 4.53883720254132860816 5.10769968111545669132 4.25440596325426501068 4.82326844182839220565 4.82326844182839220565 4.53883720254132860816 4.25440596325426501068 4.82326844182839220565 4.82326844182839220565 4.53883720254132860816 4.53883720254132860816 4.25440596325426501068 4.53883720254132860816 4.82326844182839220565 4.25440596325426501068 4.25440596325426501068 4.53883720254132860816 4.53883720254132860816 4.82326844182839220565 5.10769968111545669132 5.10769968111545669132 4.82326844182839220565 4.53883720254132860816 4.82326844182839220565 3.96997472396720096910 4.53883720254132860816 4.53883720254132860816 4.82326844182839220565 4.25440596325426501068 4.53883720254132860816 4.53883720254132860816 4.53883720254132860816 4.53883720254132860816 4.82326844182839220565 4.25440596325426501068 4.25440596325426501068 4.53883720254132860816 4.53883720254132860816 5.10769968111545669132 4.53883720254132860816 4.53883720254132860816 4.53883720254132860816 4.25440596325426501068 4.82326844182839220565 5.10769968111545669132 4.82326844182839220565 4.53883720254132860816 4.53883720254132860816 4.53883720254132860816 4.25440596325426501068 5.10769968111545669132 4.53883720254132860816 4.82326844182839220565 4.82326844182839220565 4.82326844182839220565 5.10769968111545669132 5.10769968111545669132 4.25440596325426501068 4.53883720254132860816 4.53883720254132860816 4.53883720254132860816 5.10769968111545669132 4.53883720254132860816 5.10769968111545669132 4.82326844182839220565 4.53883720254132860816 4.82326844182839220565 4.53883720254132860816 4.25440596325426501068 4.82326844182839220565 5.10769968111545669132 4.82326844182839220565 4.53883720254132860816 4.25440596325426501068 4.82326844182839220565 4.53883720254132860816 4.82326844182839220565 4.82326844182839220565 4.53883720254132860816 4.53883720254132860816 5.10769968111545669132 4.82326844182839220565 4.25440596325426501068 4.53883720254132860816 3.96997472396720096910 4.25440596325426501068 5.10769968111545669132 4.82326844182839220565 4.82326844182839220565 4.25440596325426501068 4.53883720254132860816 4.82326844182839220565 4.82326844182839220565 4.25440596325426501068 4.53883720254132860816 4.82326844182839220565 4.82326844182839220565 4.25440596325426501068 4.25440596325426501068 4.53883720254132860816 4.53883720254132860816 4.82326844182839220565 4.25440596325426501068 4.25440596325426501068 4.82326844182839220565 4.53883720254132860816 4.53883720254132860816 4.25440596325426501068 3.96997472396720096910 3.96997472396720096910 3.40111224539307333004 3.96997472396720096910 3.96997472396720096910 3.11668100610600973255 3.11668100610600973255 3.68554348468013737161 3.96997472396720096910 3.96997472396720096910 3.96997472396720096910 4.25440596325426501068 4.25440596325426501068 3.96997472396720096910 6.24542463826371196944 6.24542463826371196944 6.24542463826371196944 5.96099339897664926013 5.39213092040252028880 5.10769968111545669132 4.82326844182839220565 5.10769968111545669132 4.82326844182839220565 5.10769968111545669132 5.10769968111545669132 4.82326844182839220565 5.39213092040252028880 4.53883720254132860816 5.10769968111545669132 5.10769968111545669132 5.10769968111545669132 4.82326844182839220565 4.82326844182839220565 5.10769968111545669132 4.82326844182839220565 4.53883720254132860816 4.82326844182839220565 5.10769968111545669132 4.82326844182839220565 4.82326844182839220565 5.10769968111545669132 4.53883720254132860816 4.82326844182839220565 4.82326844182839220565 4.25440596325426501068 4.53883720254132860816 5.10769968111545669132 4.25440596325426501068 5.10769968111545669132 4.82326844182839220565 4.82326844182839220565 4.82326844182839220565 5.96099339897664926013 6.52985587755077556693 6.24542463826371196944 6.52985587755077556693 6.24542463826371196944 5.67656215968958477447 6.24542463826371196944 5.39213092040252028880 6.24542463826371196944 5.96099339897664926013 5.67656215968958477447 5.67656215968958477447 5.39213092040252028880 5.39213092040252028880 5.10769968111545669132 4.25440596325426501068 5.10769968111545669132 5.10769968111545669132 5.10769968111545669132 5.39213092040252028880 4.53883720254132860816 5.67656215968958477447 5.39213092040252028880 5.39213092040252028880 5.10769968111545669132 5.39213092040252028880 5.67656215968958477447 5.67656215968958477447 6.24542463826371196944 5.67656215968958477447 5.96099339897664926013 5.96099339897664926013 5.39213092040252028880 5.10769968111545669132 5.39213092040252028880 4.53883720254132860816 4.82326844182839220565 4.25440596325426501068 5.10769968111545669132 5.39213092040252028880 5.10769968111545669132 5.67656215968958477447 5.67656215968958477447 5.10769968111545669132 5.39213092040252028880 5.67656215968958477447 5.96099339897664926013 6.24542463826371196944 5.96099339897664926013 6.24542463826371196944 6.52985587755077556693 5.67656215968958477447 6.24542463826371196944 5.96099339897664926013 5.96099339897664926013 5.67656215968958477447 5.96099339897664926013 6.52985587755077556693 5.96099339897664926013 6.24542463826371196944 5.96099339897664926013 5.96099339897664926013 5.67656215968958477447 5.67656215968958477447 5.67656215968958477447 6.24542463826371196944 5.67656215968958477447 6.24542463826371196944 5.96099339897664926013 5.96099339897664926013 5.67656215968958477447 5.67656215968958477447 6.24542463826371196944 6.52985587755077556693 6.52985587755077556693 6.81428711683784005260 7.09871835612490453826 6.81428711683784005260 