0.347735 0.347735 0.347735 0.347735 0.347735 0.478836 0.475605 0.478178 0.480581 0.468398 0.454077 0.438199 0.431851 0.414600 0.418716 0.448462 0.473926 0.512632 0.500393 0.563400 0.567134 0.559544 0.601183 0.579460 0.568268 0.594157 0.582868 0.579727 0.569136 0.554723 0.541323 0.528878 0.513652 0.510754 0.503652 0.501697 0.491192 0.490645 0.491474 0.480244 0.474490 0.476383 0.466984 0.465532 0.478010 0.470786 0.463719 0.484987 0.542949 0.558232 0.539497 0.537909 0.545053 0.535789 0.543282 0.527350 0.548479 0.540614 0.545958 0.531299 0.526279 0.516358 0.504426 0.494018 0.488750 0.474504 0.474070 0.484053 0.472375 0.463880 0.462133 0.457073 0.457849 0.458720 0.462028 0.464950 0.473142 0.472596 0.471134 0.460312 0.488404 0.484828 0.513945 0.505077 0.501477 0.533072 0.546880 0.536402 0.540616 0.525265 0.531947 0.564975 0.572846 0.556731 0.534886 0.533637 0.536231 0.513732 0.508327 0.500740 0.507642 0.530232 0.545067 0.543716 0.538435 0.532929 0.519182 0.502045 0.556552 0.547668 0.550973 0.579897 0.587959 0.577113 0.592083 0.596766 0.587645 0.608618 0.592204 0.589805 0.591326 0.588320 0.576457 0.584353 0.576753 0.588353 0.618706 0.645106 0.638150 0.646952 0.643137 0.653278 0.669787 0.649808 0.633866 0.629519 0.631517 0.632644 0.626548 0.625141 0.621770 0.607646 0.610458 0.609366 0.590725 0.599764 0.588836 0.596725 0.577181 0.581495 0.566463 0.574710 0.564382 0.550013 0.543242 0.545420 0.529064 0.552316 0.550477 0.550953 0.551664 0.546635 0.523185 0.526524 0.522376 0.540847 0.544015 0.538946 0.523392 0.526524 0.534073 0.536045 0.521228 0.507924 0.533384 0.586905 0.599982 0.636218 0.622248 0.609907 0.584588 0.584222 0.599850 0.579030 0.569127 0.566011 0.575814 0.557430 0.575763 0.612924 0.619941 0.617370 0.606374 0.600382 0.582730 0.569268 0.558635 0.565832 0.570039 0.562661 0.558246 0.567371 0.568148 0.561390 0.562436 0.570860 0.563434 0.557745 0.541727 0.540362 0.550607 0.532810 0.523959 0.539098 0.531246 0.528513 0.521640 0.523027 0.512232 0.505036 0.489558 0.475227 0.466869 0.479874 0.474514 0.458933 0.466978 0.458707 0.456908 0.448734 0.450358 0.440932 0.439943 0.439753 0.440455 0.441091 0.429208 0.440399 0.432477 0.420659 0.409436 0.404532 0.408670 0.424399 0.419837 0.424636 0.420646 0.415342 0.429851 0.414251 0.419551 0.424313 0.416138 0.406840 0.402781 0.393242 0.410206 0.424895 0.433121 0.433488 0.470663 0.469705 0.480365 0.472134 0.465865 0.491352 0.508531 0.499820 0.491692 0.491718 0.512671 0.499288 0.488917 0.486002 0.477332 0.489422 0.488758 0.471295 0.472463 0.474476 0.500679 0.497083 0.487357 0.500972 0.504299 0.506358 0.501445 0.496840 0.499654 0.490872 0.472776 0.462161 0.456523 0.459194 0.458126 0.470083 0.470237 0.478454 0.474794 0.509745 0.522081 0.524236 0.520712 0.524345 0.535899 0.547922 0.531352 0.513371 0.520825 0.520820 0.517861 0.532509 0.541950 0.561047 0.584914 0.596128 0.584314 0.579343 0.583185 0.589966 0.598365 0.613228 0.597263 0.604192 0.604675 0.658094 0.647330 0.639088 0.673122 0.651306 0.650071 0.639186 0.624082 0.608597 0.611118 0.597323 0.580964 0.567301 0.570454 0.566594 0.549811 0.550995 0.541927 0.528459 0.527179 0.535958 0.520728 0.535777 0.538692 0.532430 0.534796 0.523230 0.512177 0.507300 0.506407 0.516821 0.523391 0.537119 0.547480 0.540763 0.526197 0.527139 0.511746 0.497569 0.501732 0.531684 0.522690 0.516826 0.509407 0.499338 0.511669 0.525734 0.525013 0.510781 0.503535 0.492349 0.478358 0.490440 0.484041 0.480710 0.497280 0.515910 0.555290 0.570858 0.576029 0.580041 0.594866 0.574307 0.564715 0.567846 0.582875 0.577726 0.581754 0.570835 0.565431 0.560990 0.564104 0.565328 0.584853 0.584363 0.580844 0.567902 0.565914 0.546352 0.534090 0.528057 0.526847 0.527995 0.524508 0.522927 0.507678 0.507886 0.513262 0.490826 0.485782 0.491318 0.487708 0.489496 0.481420 0.465834 0.482517 0.475131 0.491975 0.517508 0.529172 0.527093 0.532995 0.556862 0.569755 0.554504 0.567779 0.583205 0.587703 0.590254 0.591892 0.569810 0.554227 0.539114 0.539174 0.522907 0.519239 0.509037 0.506065 0.528509 0.511066 0.513343 0.501281 0.525129 0.526197 0.536436 0.549706 0.577170 0.568918 0.607504 0.613161 0.604779 0.595720 0.581250 0.590491 0.577592 0.565713 0.575056 0.562533 0.574736 0.570911 0.557252 0.546208 0.555578 0.548501 0.543469 0.558339 0.599224 0.644858 0.653842 0.649516 0.677410 0.682792 0.681578 0.682034 0.713589 0.718485 0.732126 0.715375 0.752779 0.736676 0.714640 0.719402 0.701007 0.672130 0.666321 0.652714 0.631054 0.614593 0.610393 0.610507 0.598637 0.608167 0.595014 0.573759 0.556002 0.542550 0.520554 0.516495 0.505275 0.508957 0.518074 0.523436 0.521587 0.521151 0.503189 0.492630 0.484879 0.502425 0.507192 0.504414 0.521708 0.521533 0.543166 0.544180 0.539234 0.561352 0.583852 0.601871 0.588385 0.577359 0.587187 0.597995 0.586947 0.593653 0.592484 0.582248 0.564741 0.553844 0.539769 0.540686 0.537655 0.565506 0.563824 0.588926 0.573345 0.584739 0.594959 0.587123 0.575456 0.570757 0.571773 0.557311 0.540101 0.521803 0.510423 0.499523 0.485580 0.500158 0.506401 0.502522 0.499965 0.494212 0.528026 0.517230 0.565284 0.608741 0.604126 0.639707 0.644619 0.691506 0.706714 0.697410 0.702403 0.729038 0.744993 0.756814 0.754278 0.752273 0.752820 0.749079 0.754689 0.724480 0.715570 0.707300 0.681994 0.664316 0.647069 0.639471 0.619479 0.621196 0.622200 0.620936 0.619992 0.619464 0.614475 0.592897 0.589485 0.574243 0.580752 0.589388 0.581427 0.581620 0.565173 0.545642 0.551801 0.543291 0.529470 0.523173 0.525479 0.538164 0.548698 0.538956 0.519916 0.503500 0.497394 0.491409 0.476248 0.474026 0.471283 0.461816 0.461009 0.484633 0.496045 0.511783 0.534043 0.566885 0.623762 0.604064 0.625478 0.635688 0.635834 0.622278 0.610002 0.595350 0.581774 0.575961 0.568212 0.580531 0.565247 0.542364 0.529390 0.528326 0.513680 0.517700 0.519416 0.516409 0.501881 0.521753 0.550010 0.536760 0.544530 0.534319 0.525141 0.522794 0.536014 0.517488 0.512612 0.507522 0.508118 0.502209 0.514851 0.527801 0.523692 0.548232 0.539848 0.566050 0.565157 0.545135 0.537762 0.524708 0.513526 0.513749 0.530256 0.528344 0.544550 0.535559 0.553987 0.559481 0.539815 0.542790 0.547539 0.545910 0.524026 0.517086 0.525250 0.528271 0.518691 0.519068 0.514765 0.500083 0.490181 0.472030 0.478235 0.472274 0.457364 0.450099 0.440213 0.444229 0.437656 0.427626 0.424457 0.428633 0.449772 0.460148 0.477463 0.469145 0.459731 0.451633 0.449109 0.439945 0.448264 0.442784 0.446388 0.456487 0.455965 0.510523 0.500088 0.505089 0.504609 0.506609 0.499110 0.499265 0.526818 0.515052 0.510345 0.526387 0.518560 0.506894 0.503973 0.494939 0.503001 0.566711 0.610496 0.603687 0.587865 0.569434 0.548645 0.529834 0.511401 0.523203 0.508423 0.517490 0.501479 0.489040 0.482159 0.480983 0.481064 0.476612 0.467666 0.477476 0.479191 0.484871 0.495138 0.485212 0.495612 0.493136 0.477068 0.470500 0.469146 0.468336 0.465122 0.464865 0.487619 0.482736 0.493802 0.495734 0.495102 0.511420 0.494721 0.522562 0.529509 0.582834 0.589221 0.600637 0.603550 0.617104 0.646342 0.647179 0.643508 0.667621 0.713365 0.698982 0.701846 0.706375 0.680674 0.675470 0.674930 0.709493 0.709922 0.710176 0.699121 0.673190 0.679413 0.680990 0.670808 0.658315 0.657979 0.639192 0.622947 0.615452 0.599067 0.584593 0.563122 0.553711 0.540831 0.531228 0.517201 0.498390 0.494973 0.499233 0.498635 0.484864 0.470210 0.475060 0.460751 0.444574 0.464040 0.488230 0.479285 0.480522 0.481526 0.471089 0.459044 0.459337 0.458680 0.468866 0.474276 0.468899 0.468805 0.461474 0.483825 0.486581 0.496629 0.526524 0.543332 0.540227 0.538789 0.574444 0.596128 0.614857 0.606230 0.621324 0.644225 0.624582 0.625862 0.605012 0.590044 0.596512 0.597992 0.589301 0.614376 0.658135 0.673232 0.684913 0.727420 0.750522 0.737299 0.736200 0.713033 0.703241 0.686687 0.678287 0.659098 0.643386 0.644765 0.632789 0.636718 0.616440 0.598209 0.586921 0.581804 0.574200 0.563105 0.559309 0.553817 0.546875 0.553396 0.550020 0.554594 0.547975 0.547450 0.532285 0.528025 0.533478 0.528700 0.525597 0.535232 0.522452 0.540957 0.525000 0.532819 0.569839 0.579435 0.586532 0.638274 0.654524 0.641947 0.671244 0.653023 0.658050 0.655401 0.635828 0.610059 0.614705 0.608721 0.628542 0.633071 0.646674 0.670234 0.664980 0.651885 0.655496 0.660941 0.633244 0.608388 0.612419 0.603379 0.581717 0.570934 0.575388 0.579754 0.573352 0.553358 0.538989 0.538738 0.525715 0.533936 0.539288 0.528492 0.508812 0.496031 0.485438 0.473479 0.471455 0.462138 0.459928 0.461303 0.460173 0.469316 0.470368 0.499327 0.489611 0.488956 0.502253 0.517712 0.513803 0.513499 0.506076 0.548200 0.533866 0.521096 0.508398 0.499558 0.483184 0.481581 0.503124 0.497178 0.494729 0.492424 0.495312 0.490284 0.483285 0.488114 0.480135 0.466472 0.457599 0.450124 0.444455 0.455742 0.454055 0.447409 0.441717 0.427733 0.424044 0.414088 0.420236 0.416415 0.411187 0.405373 0.400778 0.388154 0.382448 0.382938 0.387917 0.375776 0.364620 0.379403 0.369994 0.367649 0.382699 0.376916 0.378988 0.373334 0.379205 0.368456 0.379404 0.391620 0.379976 0.381131 0.387266 0.390866 0.399203 0.388776 0.389467 0.380662 0.375698 0.368478 0.372835 0.387459 0.380317 0.383850 0.377022 0.368899 0.362703 0.355285 0.347068 0.342481 0.335122 0.336602 0.341653 0.341428 0.344179 0.334542 0.342819 0.369200 0.378018 0.374488 0.379207 0.378010 0.378011 0.369284 0.369264 0.366838 0.361068 0.358316 0.365818 0.368024 0.373746 0.377062 0.372553 0.368063 0.377618 0.373706 0.367145 0.366036 0.374271 0.376297 0.378983 0.389129 0.390371 0.401645 0.405743 0.400324 0.394050 0.383037 0.382312 0.381143 0.395864 0.403465 0.393578 0.393429 0.383530 0.397421 0.413547 0.403978 0.414554 0.418874 0.442106 0.446750 0.441649 0.428386 0.415482 0.433772 0.447032 0.451574 0.477811 0.494663 0.494534 0.507062 0.512199 0.533074 0.583723 0.601684 0.603039 0.619280 0.647784 0.644388 0.660886 0.650567 0.650115 0.673258 0.698287 0.698462 0.687405 0.719533 0.732854 0.727676 0.725794 0.703570 0.732392 0.758968 0.733372 0.725532 0.697506 0.689966 0.759518 0.740671 0.733462 0.728671 0.717706 0.736448 0.737908 0.716831 0.738634 0.717117 0.721223 0.717897 0.709172 0.703967 0.722802 0.708114 0.711752 0.725550 0.718558 0.715347 0.717110 0.696925 0.716070 0.708988 0.689937 0.671801 0.660778 0.654189 0.652775 0.654636 0.627590 0.617907 0.614802 0.594368 0.581134 0.594843 0.581730 0.575810 0.588364 0.578840 0.615271 0.591072 0.583169 0.573249 0.565741 0.552120 0.555675 0.539162 0.534614 0.545084 0.534834 0.544190 0.543992 0.553303 0.548923 0.556445 0.561013 0.571679 0.579630 0.571874 0.556554 0.542610 0.544328 0.544810 0.569947 0.562579 0.552898 0.548334 0.537228 0.530855 0.517877 0.513402 0.517917 0.518507 0.508304 0.506940 0.501943 0.496012 0.497865 0.492257 0.475993 0.478725 0.493853 0.517688 0.509003 0.499524 0.489893 0.497886 0.499436 0.503655 0.496812 0.499241 0.519061 0.550968 0.541870 0.605035 0.722878 0.734668 0.732561 0.733311 0.724000 0.725084 0.785740 0.818446 0.813043 0.843084 0.837908 0.873390 0.897067 0.891768 0.904035 0.929967 0.896002 0.898511 0.901025 0.882115 0.897500 0.891493 0.871815 0.856601 0.847472 0.840514 0.817256 0.785576 0.781487 0.768411 0.764227 0.743084 0.718710 0.699136 0.674212 0.695572 0.677416 0.699676 0.691886 0.684382 0.724527 0.707243 0.689430 0.700004 0.717928 0.718423 0.694765 0.677835 0.709661 0.692467 0.681359 0.700591 0.717822 0.727596 0.717311 0.719573 0.711504 0.691414 0.692918 0.674617 0.663598 0.661462 0.687941 0.684046 0.694101 0.699605 0.708896 0.705444 0.750512 0.787853 0.868654 0.870843 0.876685 0.891978 0.894545 0.933814 0.971045 0.993710 1.007804 0.970946 0.961245 0.928914 0.893781 0.857004 0.821437 0.784005 0.756007 0.731630 0.707536 0.699747 0.678272 0.657417 0.628834 0.614941 0.606929 0.585286 0.571542 0.559873 0.538489 0.523691 0.505825 0.490253 0.481975 0.475964 0.481499 0.470926 0.459659 0.445516 0.449351 0.442508 0.435072 0.427998 0.442266 0.428692 0.445787 0.449735 0.458244 0.457868 0.451465 0.456609 0.464360 0.466245 0.456136 0.437569 0.459840 0.479582 0.474970 0.485740 0.479489 0.476997 0.459263 0.452188 0.446960 0.438741 0.434321 0.441810 0.435560 0.453291 0.454244 0.473170 0.468153 0.459035 0.481398 0.472832 0.494701 0.509048 0.494758 0.484558 0.475239 0.461338 0.455767 0.450488 0.443893 0.447835 0.442048 0.436331 0.435370 0.444238 0.451764 0.466107 0.457596 0.464840 0.454885 0.463167 0.464976 0.452986 0.438157 0.445683 0.465159 0.486740 0.505410 0.497306 0.504897 0.508295 0.513867 0.515606 0.537956 0.520415 0.516444 0.500293 0.519123 0.512436 0.513756 0.535197 0.529662 0.546257 0.539901 0.534010 0.520358 0.540224 0.581117 0.611717 0.654687 0.691487 0.751951 0.780772 0.773768 0.750132 0.725313 0.709009 0.694735 0.686159 0.693211 0.698801 0.690632 0.691561 0.675376 0.674968 0.662075 0.653396 0.650229 0.636366 0.628785 0.635530 0.631343 0.626827 0.648013 0.674372 0.687600 0.705782 0.702078 0.776684 0.796867 0.838898 0.833009 0.833317 0.835060 0.814866 0.822545 0.861142 0.857166 0.871312 0.892824 0.894732 1.054302 1.065543 1.038704 1.015000 1.000786 0.964511 0.935923 0.924971 0.910576 0.880836 0.866497 0.835389 0.813795 0.790944 0.768726 0.750993 0.727952 0.719241 0.697123 0.667634 0.650312 0.635024 0.618132 0.605552 0.587318 0.574856 0.569989 0.561387 0.566555 0.580514 0.565812 0.556564 0.570472 0.567680 0.552931 0.544095 0.542310 0.546014 0.529862 0.517640 0.507836 0.496769 0.495625 0.504627 0.493756 0.473929 0.467125 0.452389 0.435822 0.425939 0.410389 0.411723 0.411253 0.400095 0.401253 0.421122 0.429748 0.431806 0.433432 0.447812 0.477328 0.477322 0.478086 0.491559 0.493286 0.524493 0.541969 0.555203 0.546630 0.543151 0.568685 0.562688 0.546884 0.537002 0.543581 0.546144 0.525318 0.506908 0.494984 0.481939 0.473977 0.466051 0.460020 0.442574 0.425459 0.418463 0.412675 0.405099 0.400637 0.398698 0.405217 0.407042 0.421693 0.422101 0.446921 0.444062 0.438750 0.426181 0.420690 0.426062 0.449148 0.461003 0.522146 0.557179 0.574295 0.560511 0.561312 0.548500 0.541250 0.520484 0.514961 0.519079 0.510504 0.512399 0.492042 0.482170 0.471392 0.463256 0.463316 0.464866 0.452265 0.444056 0.441363 0.437696 0.436520 0.436697 0.434732 0.438102 0.434122 0.451272 0.441522 0.443552 0.451625 0.457692 0.454884 0.467643 0.470231 0.464782 0.455906 0.459338 0.471561 0.466095 0.461396 0.450642 0.473130 0.472357 0.463822 0.448678 0.431655 0.431545 0.444389 0.440249 0.437047 0.431888 0.427004 0.441683 0.466869 0.486666 0.484130 0.487668 0.494081 0.490687 0.497191 0.498394 0.506761 0.500857 0.491835 0.485877 0.504056 0.494062 0.493910 0.492519 0.479770 0.480918 0.484426 0.472006 0.468567 0.472394 0.455556 0.452985 0.473127 0.480520 0.478881 0.482472 0.481123 0.478175 0.509364 0.506607 0.509525 0.499643 0.486910 0.480438 0.501928 0.504003 0.527659 0.565684 0.574803 0.603939 0.643611 0.645511 0.644042 0.630718 0.616928 0.618187 0.602590 0.597412 0.589891 0.581624 0.575252 0.563503 0.570937 0.571148 0.587821 0.597530 0.585316 0.583738 0.571052 0.565554 0.552087 0.559401 0.541500 0.567411 0.550641 0.544731 0.532177 0.540027 0.538819 0.534686 0.555275 0.536141 0.514064 0.511714 0.523153 0.515686 0.511985 0.511157 0.500320 0.503338 0.492070 0.490472 0.491651 0.478278 0.468111 0.466282 0.472106 0.461891 0.459540 0.449286 0.449566 0.447460 0.441088 0.444236 0.449296 0.444007 0.444604 0.444712 0.451784 0.437256 0.436166 0.440503 0.424402 0.417847 0.403249 0.396688 0.412831 0.409636 0.404587 0.415212 0.420244 0.423338 0.430773 0.456253 0.469033 0.489958 0.487537 0.479648 0.494557 0.485562 0.494124 0.492439 0.500917 0.484372 0.472861 0.456430 0.437096 0.443742 0.436588 0.432224 0.428535 0.412986 0.400927 0.402834 0.411512 0.400652 0.395671 0.399643 0.395852 0.413872 0.405474 0.399709 0.392204 0.377941 0.366106 0.355440 0.358087 0.358868 0.349715 0.356369 0.355850 0.351344 0.346799 0.365032 0.360926 0.384349 0.399676 0.387791 0.381212 0.381982 0.396907 0.394534 0.399583 0.418454 0.446782 0.440990 0.454262 0.442807 0.443330 0.439667 0.449209 0.447349 0.464522 0.460420 0.461684 0.474628 0.485608 0.499189 0.512238 0.517225 0.514037 0.516200 0.505403 0.499861 0.495948 0.501423 0.498214 0.490530 0.489618 0.474922 0.463452 0.456441 0.444202 0.437592 0.435521 0.435103 0.426764 0.435051 0.440802 0.457345 0.454098 0.466519 0.454377 0.462166 0.474576 0.488021 0.477359 0.492939 0.518801 0.535932 0.552045 0.571352 0.569461 0.561614 0.552142 0.542273 0.532420 0.513419 0.495983 0.487328 0.474165 0.475584 0.472647 0.467730 0.454491 0.454565 0.450649 0.442297 0.423948 0.423104 0.419389 0.414583 0.416214 0.447728 0.448259 0.449270 0.440263 0.438142 0.442461 0.445354 0.436985 0.446696 0.438037 0.435920 0.429579 0.436867 0.427197 0.423766 0.417754 0.405396 0.408396 0.416484 0.425175 0.426227 0.429620 0.440079 0.445183 0.446950 0.441906 0.461195 0.454385 0.441898 0.441748 0.436167 0.427740 0.424847 0.415959 0.416105 0.411928 0.443989 0.435630 0.482213 0.471482 0.461150 0.456014 0.458259 0.453623 0.443995 0.445819 0.446189 0.445699 0.432843 0.427413 0.436088 0.441549 0.429548 0.410432 0.404971 0.416068 0.414199 0.419359 0.422442 0.440589 0.431975 0.428273 0.415562 0.411671 0.413881 0.425617 0.443663 0.434304 0.431311 0.425067 0.436671 0.450022 0.439261 0.439929 0.448268 0.444169 0.441217 0.441271 0.436801 0.427539 0.446322 0.437799 0.434066 0.437313 0.430796 0.437638 0.446100 0.435753 0.455736 0.452318 0.464120 0.461509 0.467153 0.467787 0.456416 0.450234 0.443047 0.438749 0.430755 0.427960 0.446835 0.445753 0.456174 0.466181 0.461540 0.487496 0.520375 0.511094 0.580252 0.608308 0.754647 0.935703 0.970081 0.990883 1.035412 1.184453 1.375938 1.415764 1.391880 1.489421 1.452232 1.438176 1.389034 1.343557 1.293562 1.242643 1.215459 1.177479 1.168840 1.130004 1.094386 1.124577 1.110510 1.083734 1.058366 1.028308 0.993487 1.012650 1.004751 0.991784 1.017534 1.013075 1.021680 1.024948 1.025926 1.000685 0.986363 0.970094 0.986964 0.970297 0.948536 0.974523 1.011042 1.033799 1.181502 1.214295 1.195647 1.240684 1.400596 1.486050 1.625845 1.879391 2.041782 1.982008 1.940654 1.916201 1.847295 1.840914 1.763750 1.693161 1.660507 1.611338 1.569399 1.518899 1.504050 1.457948 1.435652 1.420639 1.415926 1.378471 1.319467 1.282853 1.242872 1.197335 1.162964 1.124854 1.092085 1.068206 1.059687 1.015755 1.016997 0.973930 0.963599 0.927299 0.895047 0.877566 0.853302 0.845116 0.817820 0.797725 0.781120 0.762797 0.757930 0.746464 0.737997 0.719876 0.722485 0.712842 0.705541 0.696899 0.699360 0.679032 0.661433 0.669617 0.685524 0.672057 0.660520 0.642675 0.661636 0.670666 0.668650 0.657492 0.639937 0.626563 0.617477 0.619521 0.614988 0.619052 0.613041 0.638098 0.640770 0.633495 0.621168 0.599218 0.623790 0.612473 0.613951 0.605545 0.594073 0.637799 0.650973 0.712235 0.756103 0.784099 0.784953 0.784772 0.781124 0.782042 0.772811 0.782081 0.767326 0.771968 0.742288 0.728251 0.728507 0.712427 0.711835 0.715326 0.704923 0.696099 0.690361 0.691136 0.704073 0.695309 0.684804 0.679384 0.680659 0.683295 0.689519 0.668830 0.652531 0.637253 0.625946 0.612625 0.596554 0.573621 0.558751 0.541094 0.521113 0.514252 0.503084 0.492746 0.484098 0.485455 0.486960 0.494756 0.489775 0.489765 0.503559 0.514127 0.510570 0.517008 0.516614 0.498237 0.494909 0.495262 0.496690 0.507029 0.502743 0.494390 0.492403 0.493928 0.481909 0.499419 0.502787 0.495526 0.506934 0.530696 0.527531 0.520804 0.519863 0.512627 0.518368 0.515016 0.529460 0.524063 0.545057 0.559952 0.597732 0.601755 0.585638 0.592589 0.577693 0.579510 0.593402 0.617987 0.610329 0.598068 0.579880 0.568507 0.579720 0.581404 0.596763 0.620463 0.618005 0.623315 0.640914 0.629918 0.630196 0.613920 0.613702 0.613380 0.621890 0.609909 0.599025 0.621161 0.611236 0.613089 0.643452 0.685405 0.698284 0.711396 0.735659 0.722562 0.705436 0.720398 0.708785 0.695448 0.687253 0.696864 0.686726 0.682900 0.660565 0.637846 0.641033 0.635415 0.622518 0.625832 0.617752 0.610196 0.611411 0.589167 0.612105 0.637729 0.646712 0.628851 0.628413 0.625098 0.606058 0.586188 0.574690 0.555417 0.557001 0.562045 0.560043 0.572689 0.595845 0.593686 0.612558 0.606609 0.590930 0.580107 0.573914 0.568350 0.560142 0.546990 0.542331 0.529432 0.526204 0.538341 0.531734 0.523301 0.510368 0.516151 0.520131 0.523929 0.524317 0.545711 0.577015 0.589523 0.621443 0.632422 0.675705 0.691623 0.712464 0.775039 0.764752 0.758992 0.777109 0.829637 0.917434 1.030201 1.083754 1.251082 1.342593 1.517011 1.506441 1.492430 1.488676 1.441606 1.458250 1.437033 1.402313 1.421242 1.439672 1.414556 1.392236 1.374641 1.387220 1.350162 1.313826 1.320818 1.305301 1.290618 1.266648 1.284190 1.405981 1.485617 1.485458 1.542488 1.563430 1.512969 1.502451 1.463488 1.439332 1.463929 1.494646 1.454034 1.439409 1.402657 1.386741 1.391356 1.444846 1.458889 1.432258 1.494787 1.472299 1.442153 1.439565 1.524554 1.522195 1.499992 1.447809 1.391278 1.375746 1.328009 1.288781 1.275579 1.221694 1.177029 1.123044 1.084494 1.052153 1.009201 0.976815 0.958760 0.937328 0.905442 0.878698 0.843804 0.817150 0.793415 0.774454 0.745952 0.724408 0.693665 0.665321 0.649623 0.632706 0.611431 0.600329 0.587690 0.580349 0.584169 0.575332 0.559962 0.547719 0.535509 0.525620 0.509469 0.497208 0.488629 0.479098 0.490473 0.479294 0.484102 0.467528 0.468682 0.472982 0.468037 0.470877 0.473302 0.475520 0.471307 0.454873 0.452034 0.443672 0.446627 0.460141 0.488629 0.493097 0.511862 0.503126 0.493677 0.488061 0.488055 0.491394 0.478916 0.477975 0.515200 0.517750 0.543719 0.571287 0.568719 0.556298 0.580165 0.591204 0.579067 0.594996 0.574387 0.551468 0.532704 0.524321 0.519629 0.513411 0.507175 0.499191 0.507584 0.516310 0.513136 0.507075 0.506616 0.505318 0.503555 0.493268 0.504085 0.485466 0.468811 0.452790 0.462857 0.452078 0.455022 0.449227 0.458952 0.457443 0.475457 0.480408 0.482435 0.473826 0.476141 0.478204 0.475221 0.466112 0.469139 0.458759 0.461424 0.457321 0.448976 0.444895 0.453831 0.462528 0.469093 0.474440 0.491634 0.495401 0.525803 0.555802 0.578808 0.578314 0.620613 0.624456 0.630608 0.660417 0.691117 0.737901 0.738025 0.720830 0.732072 0.739270 0.755541 0.751992 0.744099 0.723478 0.695135 0.687767 0.669602 0.656450 0.641294 0.640179 0.629402 0.651817 0.642108 0.643619 0.634828 0.620533 0.607268 0.593645 0.576248 0.564921 0.568303 0.576822 0.567221 0.571406 0.566578 0.556132 0.551201 0.546045 0.538521 0.543685 0.551521 0.540437 0.523348 0.521323 0.511845 0.516701 0.501210 0.496134 0.490571 0.487547 0.515242 0.505287 0.496388 0.491763 0.482082 0.476987 0.480499 0.472634 0.456121 0.443660 0.448880 0.442147 0.433191 0.425626 0.418245 0.416506 0.416467 0.424353 0.412346 0.403143 0.400640 0.392894 0.396313 0.406948 0.411046 0.408908 0.400392 0.395273 0.388009 0.392184 0.406420 0.414950 0.408714 0.440841 0.474587 0.483904 0.523351 0.526056 0.540179 0.549641 0.549586 0.583728 0.563883 0.550443 0.534959 0.517867 0.522687 0.509104 0.507930 0.508364 0.498591 0.488761 0.487997 0.485486 0.500421 0.557328 0.577744 0.599075 0.590471 0.613465 0.613154 0.624923 0.700179 0.715719 0.761485 0.760491 0.743349 0.731436 0.717624 0.707396 0.726226 0.727388 0.743911 0.733494 0.735858 0.758890 0.750659 0.726356 0.710261 0.705713 0.699395 0.684649 0.655588 0.634611 0.644437 0.632658 0.605082 0.620416 0.620396 0.622090 0.612171 0.686593 0.700531 0.708205 0.736661 0.747895 0.725940 0.702321 0.681259 0.675097 0.648341 0.631587 0.612444 0.597186 0.587447 0.594913 0.592177 0.574427 0.580126 0.572736 0.612133 0.595902 0.572887 0.558433 0.544188 0.554327 0.555533 0.551737 0.550117 0.570971 0.590470 0.612310 0.664540 0.663181 0.679065 0.684787 0.700899 0.685073 0.677353 0.653159 0.641556 0.623910 0.617705 0.599560 0.592001 0.578441 0.563395 0.545835 0.538274 0.525178 0.516906 0.507348 0.489624 0.485235 0.501286 0.516767 0.521291 0.523007 0.521708 0.529325 0.530053 0.561485 0.590389 0.633373 0.630409 0.647627 0.646442 0.641738 0.630950 0.624804 0.621546 0.602616 0.598522 0.613743 0.608166 0.625275 0.652015 0.642112 0.646732 0.669807 0.797907 0.883601 0.910664 0.987779 1.039694 1.117289 1.187707 1.267495 1.241507 1.233827 1.227144 1.193586 1.183167 1.168262 1.146094 1.111034 1.082467 1.046613 1.009581 0.969070 0.928400 0.899641 0.882234 0.851706 0.830912 0.808510 0.774272 0.752413 0.732626 0.702760 0.674070 0.652186 0.655415 0.629588 0.617454 0.600875 0.581599 0.562600 0.543948 0.528035 0.537325 0.519117 0.501977 0.488825 0.475984 0.465734 0.461486 0.455913 0.455158 0.444129 0.432152 0.423243 0.426709 0.424873 0.426406 0.417970 0.428519 0.423047 0.428473 0.451750 0.444598 0.446888 0.448660 0.440281 0.443309 0.457190 0.463083 0.475643 0.461033 0.487205 0.486357 0.495489 0.485149 0.485215 0.475049 0.474981 0.475256 0.464907 0.468714 0.476898 0.473275 0.474103 0.524387 0.517304 0.535152 0.529205 0.549067 0.529881 0.526260 0.520456 0.517220 0.504259 0.494458 0.502447 0.502261 0.487810 0.495139 0.503472 0.513816 0.512179 0.524472 0.519146 0.550496 0.541193 0.550015 0.545245 0.580782 0.570268 0.566054 0.569766 0.567029 0.571396 0.576732 0.563667 0.554085 0.542343 0.535778 0.529541 0.540534 0.567747 0.568834 0.590483 0.646669 0.666318 0.708817 0.780843 0.850453 0.886805 0.904842 0.956832 0.982345 1.028708 1.040246 1.017145 0.991164 0.968256 0.939890 0.940933 0.926693 0.916804 0.926745 0.930079 0.946914 0.947942 0.940019 0.928947 0.919018 0.913842 0.874482 0.878197 0.850152 0.834890 0.825003 0.850028 0.827032 0.807002 0.795443 0.810283 0.778985 0.755255 0.734433 0.720575 0.699255 0.690665 0.667647 0.679330 0.678253 0.711170 0.694409 0.692199 0.693057 0.691814 0.669936 0.669424 0.665277 0.671985 0.721129 0.736452 0.756560 0.748737 0.780232 0.801631 0.816566 0.839335 0.852701 0.894291 0.946002 1.035009 1.228878 1.453031 1.809662 1.822101 1.915953 2.068230 2.186762 2.123504 2.093846 2.063882 1.993494 1.953481 1.872521 1.803277 1.734962 1.702689 1.701221 1.662017 1.616604 1.562659 1.504285 1.487638 1.471260 1.433642 1.397746 1.370847 1.323514 1.271713 1.221762 1.208674 1.166259 1.150095 1.125716 1.093303 1.065466 1.056191 1.032916 1.031084 0.993063 0.972946 0.948737 0.917359 0.920344 0.898705 0.919722 0.896646 0.866595 0.864233 0.850724 0.848921 0.863424 0.880286 0.887577 0.920637 0.919041 0.925999 0.952391 0.976231 0.989134 0.965085 0.967171 0.940571 0.951839 0.948202 0.937154 0.929553 0.910542 0.886309 0.883029 0.850526 0.871895 0.842688 0.837106 0.811870 0.820504 0.845978 0.878737 0.930430 0.936605 0.971659 0.975295 1.040883 1.026525 1.014633 0.993856 0.959884 0.942850 0.943034 0.962341 0.984071 0.976440 0.965842 0.934189 0.901536 0.884306 0.860555 0.841185 0.815449 0.813667 0.789761 0.809729 0.836093 0.834536 0.832403 0.811754 0.810289 0.830491 0.830561 0.851025 0.830043 0.804082 0.796128 0.775108 0.755493 0.732762 0.710590 0.680426 0.674807 0.644026 0.644682 0.639463 0.632606 0.627351 0.603393 0.592514 0.592305 0.615965 0.606122 0.600812 0.603521 0.623246 0.628461 0.616076 0.649301 0.659055 0.669677 0.702289 0.706017 0.685739 0.670877 0.676457 0.689260 0.700845 0.712839 0.698333 0.701649 0.689144 0.671594 0.684380 0.686586 0.665393 0.665932 0.650118 0.661252 0.657900 0.638213 0.629818 0.627069 0.614022 0.593814 0.607651 0.605115 0.591660 0.593766 0.592066 0.586374 0.595104 0.589348 0.586011 0.601772 0.592720 0.577771 0.568057 0.558531 0.545194 0.537147 0.522737 0.535619 0.537379 0.557007 0.537591 0.525790 0.517571 0.506748 0.489666 0.482989 0.474364 0.469486 0.459094 0.464263 0.467909 0.468897 0.462634 0.460266 0.459335 0.465967 0.468031 0.456810 0.450781 0.437639 0.440294 0.433327 0.429473 0.428420 0.431667 0.417959 0.411145 0.404650 0.415958 0.435032 0.424969 0.428961 0.433524 0.463416 0.503961 0.500154 0.507421 0.531795 0.557310 0.561018 0.545992 0.528097 0.517818 0.517821 0.516443 0.517387 0.505926 0.495715 0.496465 0.492838 0.483066 0.470384 0.487709 0.476435 0.476652 0.495391 0.504918 0.539717 0.539977 0.544694 0.569099 0.576852 0.587417 0.606561 0.625095 0.640945 0.654911 0.635147 0.636497 0.663875 0.676598 0.673152 0.665645 0.652019 0.659473 0.673008 0.658060 0.635798 0.618692 0.615192 0.607235 0.589276 0.586236 0.579761 0.616664 0.617311 0.619077 0.610910 0.589315 0.578843 0.585007 0.567135 0.570818 0.575102 0.563233 0.545005 0.546248 0.529732 0.513251 0.514712 0.503654 0.525280 0.528022 0.512447 0.520029 0.512058 0.520199 0.500414 0.480718 0.465893 0.469254 0.456339 0.442181 0.435810 0.429556 0.425777 0.419051 0.414420 0.414893 0.416397 0.418086 0.418449 0.432745 0.460775 0.458894 0.455850 0.493692 0.475362 0.516095 0.509769 0.503118 0.499257 0.504089 0.493531 0.526041 0.533790 0.534626 0.523543 0.535270 0.534841 0.555456 0.536208 0.549157 0.546331 0.537497 0.536745 0.523445 0.520233 0.548162 0.550833 0.559153 0.579074 0.597252 0.711796 0.726398 0.760465 0.825920 0.830293 0.800594 0.773312 0.761845 0.742564 0.733598 0.707967 0.691604 0.675848 0.666778 0.646340 0.641768 0.636116 0.639905 0.653013 0.668043 0.657331 0.658420 0.640377 0.641961 0.661621 0.670653 0.692561 0.671136 0.684204 0.723572 0.748450 0.749754 0.760821 0.760436 0.776575 0.755686 0.729180 0.707460 0.712256 0.802331 0.830797 0.825677 0.832611 0.809245 0.780103 0.765888 0.741749 0.713609 0.690985 0.700475 0.684320 0.673488 0.678970 0.675219 0.681144 0.673923 0.662664 0.670782 0.680835 0.663947 0.676284 0.667392 0.652732 0.662554 0.663002 0.645860 0.629820 0.616518 0.596682 0.598645 0.606207 0.599415 0.590883 0.600613 0.631742 0.641789 0.656553 0.654627 0.672613 0.657382 0.685164 0.672662 0.719529 0.760617 0.815088 0.903102 0.970176 0.957899 0.966149 0.954596 0.965240 0.988882 0.971617 0.950434 0.934959 0.980397 1.035948 1.031399 1.021803 1.098085 1.107657 1.086451 1.121686 1.164429 1.213629 1.232247 1.313076 1.366125 1.378076 1.356193 1.320586 1.287279 1.305201 1.316496 1.292939 1.244669 1.224991 1.179640 1.143556 1.118102 1.071814 1.033364 1.020507 0.992266 0.964257 0.929471 0.909290 0.878742 0.895995 0.862738 0.867381 0.849305 0.871288 0.846494 0.823705 0.808002 0.781019 0.780261 0.751311 0.751634 0.791854 0.823559 0.813901 0.795518 0.774884 0.756938 0.733522 0.711305 0.722818 0.713291 0.688679 0.680259 0.677569 0.671097 0.658420 0.645653 0.633620 0.617369 0.613295 0.595674 0.578692 0.573346 0.594809 0.610046 0.611413 0.656457 0.703760 0.733277 0.798990 0.786101 0.788498 0.784861 0.786158 0.782707 0.766019 0.774150 0.748586 0.732607 0.737435 0.722406 0.731039 0.751082 0.742939 0.731343 0.737320 0.719603 0.705260 0.698790 0.668974 0.655581 0.652357 0.655948 0.661390 0.686791 0.662657 0.702022 0.742204 0.743274 0.714557 0.718369 0.741462 0.758851 0.750058 0.799969 0.855397 0.857623 0.842878 0.823742 0.818946 0.800311 0.767739 0.774688 0.746323 0.734709 0.740073 0.744760 0.742574 0.753774 0.750782 0.802989 0.811894 0.820823 0.815604 0.812745 0.865723 0.855646 0.843748 0.850530 0.927003 0.929097 0.924098 1.007143 1.039970 1.039880 1.054342 1.072690 1.095482 1.063294 1.047901 1.022771 0.996043 0.964796 0.939147 0.912401 0.890852 0.873250 0.875239 0.851936 0.830425 0.824782 0.820366 0.803464 0.770202 0.754820 0.725936 0.716093 0.699394 0.680338 0.664520 0.639984 0.619685 0.609630 0.598330 0.580793 0.571876 0.552963 0.556149 0.563529 0.558180 0.562980 0.565787 0.559214 0.552676 0.542581 0.529731 0.527611 0.514164 0.508482 0.492613 0.477766 0.465776 0.468260 0.454534 0.450922 0.453289 0.447957 0.442575 0.444349 0.447431 0.433547 0.427466 0.438755 0.451188 0.435005 0.441160 0.453918 0.439214 0.428780 0.424857 0.412349 0.401921 0.404344 0.401862 0.395261 0.387625 0.388960 0.387394 0.380513 0.368827 0.375443 0.409248 0.415500 0.441073 0.454671 0.486880 0.486367 0.474393 0.460044 0.453097 0.444470 0.431515 0.427361 0.414804 0.415783 0.408917 0.411892 0.404692 0.400643 0.389363 0.376589 0.366441 0.357841 0.352337 0.342623 0.348574 0.340554 0.343604 0.339543 0.328450 0.317413 0.323332 0.316533 0.308442 0.315017 0.304219 0.304612 0.300061 0.304139 0.308624 0.301976 0.304706 0.302783 0.294692 0.296852 0.295606 0.306460 0.318601 0.329775 0.328051 0.325058 0.316107 0.321499 0.330684 0.339218 0.338384 0.330376 0.328508 0.330577 0.319196 0.338686 0.332857 0.324098 0.318690 0.320608 0.328276 0.330538 0.340191 0.336008 0.335364 0.328445 0.320704 0.319421 0.323790 0.317296 0.306417 0.300358 0.293983 0.291410 0.296541 0.296313 0.301715 0.311303 0.301172 0.291729 0.288290 0.284719 0.286547 0.288270 0.281706 0.273318 0.267275 0.262694 0.261950 0.257725 0.253696 0.255937 0.249218 0.249983 0.247845 0.245936 0.240043 0.241126 0.240969 0.247829 0.242615 0.240278 0.253533 0.261527 0.267036 0.272504 0.304947 0.302522 0.302421 0.306011 0.323701 0.350502 0.350020 0.352178 0.352780 0.359590 0.379839 0.373885 0.364272 0.364278 0.365599 0.371411 0.361816 0.373089 0.365756 0.394721 0.405204 0.418500 0.445323 0.464217 0.471060 0.470391 0.481030 0.477723 0.496832 0.478596 0.478688 0.472666 0.509487 0.505397 0.549501 0.547888 0.561987 0.570679 0.599155 0.587460 0.579985 0.571337 0.565831 0.563449 0.547390 0.582645 0.584631 0.575089 0.562432 0.568852 0.568632 0.553566 0.542114 0.551672 0.550478 0.557609 0.540628 0.536765 0.522586 0.518523 0.519901 0.505441 0.495720 0.494031 0.497976 0.494215 0.484227 0.477800 0.481106 0.474875 0.477843 0.468007 0.467341 0.471223 0.463504 0.481185 0.472188 0.473827 0.483022 0.478076 0.503837 0.508887 0.491068 0.508743 0.495272 0.536130 0.555705 0.566064 0.585024 0.599227 0.602415 0.628286 0.638641 0.619897 0.637641 0.737219 0.728657 0.723654 0.730230 0.746327 0.763269 0.759617 0.814806 0.828866 0.877826 0.893428 0.922346 1.059867 1.207502 1.302226 1.363587 1.337606 1.361186 1.455729 1.436308 1.400350 1.403309 1.379672 1.390877 1.360393 1.338957 1.308264 1.279963 1.267703 1.230408 1.211520 1.187015 1.163230 1.152773 1.130600 1.172023 1.173613 1.185524 1.163805 1.113618 1.081837 1.065291 1.026140 0.978799 0.947884 0.911468 0.905255 0.874545 0.849259 0.815269 0.792232 0.767125 0.737319 0.728282 0.705710 0.709874 0.700598 0.701073 0.676444 0.680536 0.667718 0.648442 0.653637 0.646756 0.641003 0.629713 0.607473 0.585076 0.574442 0.572052 0.568748 0.563687 0.563877 0.545388 0.535693 0.527496 0.516748 0.495993 0.509333 0.497387 0.487664 0.501712 0.491674 0.473262 0.487064 0.473923 0.499571 0.504863 0.520902 0.530476 0.525378 0.525170 0.526066 0.523589 0.560248 0.565765 0.558179 0.559122 0.539769 0.529054 0.523973 0.516614 0.527203 0.523393 0.533452 0.535436 0.519895 0.531618 0.565026 0.569103 0.583216 0.601975 0.603576 0.587733 0.573166 0.555626 0.547947 0.536486 0.531088 0.512635 0.509000 0.507383 0.489172 0.478654 0.476728 0.472360 0.462132 0.451763 0.444740 0.445256 0.441620 0.436769 0.425219 0.412482 0.397488 0.384971 0.378443 0.366139 0.350340 0.356023 0.346346 0.334444 0.334377 0.322876 0.314701 0.304899 0.304297 0.319883 0.320259 0.341524 0.341609 0.337498 0.337548 0.334344 0.335175 0.328604 0.317212 0.307802 0.328361 0.343643 0.362409 0.365851 0.365404 0.368361 0.367094 0.391511 0.402606 0.421427 0.438605 0.425038 0.418771 0.408779 0.406564 0.409876 0.402907 0.414677 0.445836 0.432479 0.418150 0.403164 0.391438 0.398942 0.394768 0.389431 0.376449 0.376141 0.367661 0.366390 0.352882 0.343399 0.333439 0.333492 0.323963 0.324061 0.321375 0.322812 0.321263 0.317534 0.308673 0.306559 0.297266 0.293282 0.288102 0.293160 0.298828 0.304946 0.313059 0.301188 0.297837 0.296746 0.293215 0.306569 0.306135 0.299293 0.295421 0.298380 0.307674 0.308294 0.320695 0.322487 0.321823 0.315784 0.321552 0.343276 0.340017 0.344586 0.352274 0.370006 0.376170 0.388391 0.379531 0.378033 0.380565 0.386527 0.381654 0.373120 0.372671 0.377546 0.373668 0.372274 0.366045 0.367086 0.367702 0.365556 0.364726 0.370414 0.368557 0.361796 0.361975 0.354302 0.351020 0.353808 0.348617 0.345301 0.335504 0.325720 0.333132 0.328987 0.315981 0.329903 0.341598 0.336945 0.333326 0.335302 0.333361 0.330015 0.319460 0.315396 0.336857 0.344571 0.351384 0.337820 0.334650 0.325250 0.339238 0.355391 0.352603 0.372013 0.361569 0.363936 0.352005 0.348806 0.363035 0.351697 0.352847 0.351479 0.344066 0.351990 0.346094 0.348275 0.349442 0.363324 0.374829 0.369084 0.357525 0.351790 0.354750 0.361295 0.347867 0.339612 0.338781 0.344517 0.337817 0.341888 0.343877 0.350004 0.346853 0.353649 0.349097 0.356128 0.368103 0.374910 0.366761 0.369687 0.360742 0.353934 0.356595 0.354798 0.355976 0.379340 0.377265 0.378382 0.381376 0.375717 0.368780 0.365862 0.364772 0.355113 0.352068 0.355961 0.357030 0.364051 0.361246 0.369516 0.376893 0.375010 0.383157 0.379073 0.377231 0.372354 0.392822 0.394101 0.388779 0.392266 0.394865 0.421546 0.425974 0.431192 0.448606 0.457962 0.453799 0.456919 0.460922 0.460184 0.469764 0.484040 0.548035 0.545705 0.568463 0.546967 0.538740 0.522877 0.524516 0.506313 0.494024 0.489799 0.476705 0.465687 0.464390 0.450547 0.441828 0.439569 0.438520 0.435365 0.427838 0.422621 0.408634 0.403744 0.392371 0.378351 0.383760 0.381909 0.366961 0.365464 0.381321 0.390482 0.417698 0.438240 0.448189 0.448926 0.450845 0.490345 0.490324 0.487995 0.496057 0.523449 0.508357 0.506640 0.523323 0.522021 0.524309 0.545199 0.541686 0.530787 0.529355 0.512115 0.508747 0.495154 0.483545 0.469096 0.465582 0.485939 0.488675 0.488383 0.477637 0.474054 0.490328 0.487334 0.476980 0.472350 0.456570 0.448812 0.447394 0.440389 0.448730 0.463809 0.446448 0.438424 0.430466 0.432887 0.449147 0.447506 0.446474 0.449775 0.455860 0.449673 0.445174 0.431703 0.423855 0.410133 0.401130 0.399978 0.391341 0.402896 0.395690 0.389514 0.388767 0.383434 0.374964 0.372491 0.369972 0.371370 0.364429 0.371296 0.358608 0.358706 0.360138 0.357925 0.353059 0.354535 0.359779 0.362468 0.369820 0.359261 0.347447 0.345271 0.337555 0.356475 0.343399 0.347795 0.340373 0.334366 0.344526 0.338267 
