0.000000 0.000000 0.000000 0.000000 0.000000 -0.148241 -0.164692 -0.146419 -0.019956 0.272168 0.265550 0.464401 0.393154 0.351617 0.330472 0.346850 0.387918 0.431947 0.766926 0.819535 0.511678 0.411406 0.226630 0.681316 0.293646 0.656158 0.712623 0.561354 0.202729 0.160446 0.540168 0.516385 0.501961 0.423585 0.638068 0.629066 0.733803 0.757895 0.596600 0.299610 0.307075 0.282464 0.296130 0.177817 0.180731 0.386804 0.391327 0.336331 0.348791 -0.015576 0.171252 0.487639 0.381248 0.549646 0.517557 0.579126 0.227401 0.479744 0.146823 0.358497 0.165226 0.607985 0.579097 0.268200 0.062076 0.332177 0.198345 0.130168 0.192870 0.268307 0.456957 0.264671 0.267636 0.507993 0.421056 0.159595 0.255254 0.533059 0.328400 0.360685 0.118343 0.035745 0.014908 -0.068917 0.212527 -0.136841 -0.164247 -0.085135 0.149103 -0.283910 -0.352820 -0.365031 -0.060286 0.396700 0.108168 0.011608 0.187900 0.188303 0.508899 0.408764 0.179869 -0.141127 0.293648 0.378125 0.503099 0.570496 0.551415 0.735029 0.709485 0.348865 -0.074009 0.150276 -0.072611 0.185196 0.077994 0.497013 0.471839 0.523078 0.539427 0.337567 0.172248 0.409428 0.647055 0.546434 0.593601 0.379024 0.269678 0.270965 -0.287802 0.068418 0.242918 0.011862 0.016375 0.625631 0.430422 0.403905 0.294878 0.645787 0.411828 -0.050945 0.056161 0.408360 -0.037907 0.215502 0.569725 0.269503 0.275642 0.328854 0.427000 0.454859 0.830275 0.464766 0.400336 0.028850 -0.102093 -0.209136 -0.213541 -0.293574 -0.266283 -0.457990 -0.426217 -0.664407 -0.527999 -0.655820 -0.412046 -0.733209 -0.406318 -0.335970 -0.130101 -0.369052 -0.320192 -0.348242 -0.356630 -0.313910 -0.150848 -0.084384 0.318072 0.033246 -0.513331 -0.128561 0.013299 0.000523 -0.121315 -0.193287 -0.292112 0.149373 0.357336 0.291635 0.596388 0.712441 0.605162 1.013354 0.974204 0.793597 0.621342 0.781325 0.455939 0.081735 0.158071 0.786991 0.935109 0.658251 0.828120 1.352780 0.971196 0.995057 0.861428 1.087392 0.649936 0.597294 0.604403 0.783774 0.488853 0.442820 0.342935 0.649097 0.799306 1.009401 0.634309 0.742130 1.118153 0.765874 0.608471 0.796971 0.671529 0.450293 0.473538 0.824105 0.880515 0.833147 0.738919 0.922834 0.810682 1.074480 0.931346 0.817274 0.513695 0.842799 1.056382 0.896892 0.707078 0.794231 1.053472 0.565326 0.610638 0.657988 0.587618 0.513494 0.511349 0.460571 0.644908 0.292408 0.677150 0.520151 0.595747 0.265405 0.348831 0.300456 0.458238 0.191043 0.368642 0.362849 0.469484 -0.035161 0.216991 0.479507 0.227381 0.241061 0.803705 0.528433 0.299891 0.727936 0.796538 0.376287 0.441779 0.560477 0.605294 0.459937 0.594747 0.283054 0.298025 0.497506 0.593281 0.278811 0.506554 0.774407 0.702389 0.981480 0.506876 0.535596 0.770568 0.680380 0.507232 0.774848 0.654384 0.508857 0.540501 0.543711 0.454035 0.576550 0.506838 0.601660 1.018699 0.604924 0.885656 0.496227 0.601984 0.699085 0.791133 0.956718 0.744341 0.680920 0.749859 0.850312 0.566289 0.183144 0.427031 0.256974 0.460738 0.499167 0.649889 0.505787 0.119114 0.027121 0.333515 0.355506 -0.233987 -0.073111 -0.401345 -0.887470 -0.968166 -0.436277 -0.912859 -0.839863 -0.404158 -0.189773 -0.406619 -0.327188 -0.147127 -0.489367 -0.904268 -0.564198 -0.569670 -0.959204 -0.839854 -0.758180 -0.379101 -0.868711 -0.352792 -0.420577 -0.230648 -0.708379 -0.528746 -0.612191 -0.495817 -0.687804 -0.429832 0.027735 -0.258916 -0.634438 -0.518096 -0.096657 -0.535367 -0.449366 -0.414718 -0.354475 -0.341814 -0.225572 -0.130214 -0.301625 -0.572724 -0.434024 -0.492617 -0.154990 -0.389739 -0.147900 -0.419976 -0.285722 -0.748186 -0.599586 -0.792304 -0.823344 -0.686291 -0.638982 -1.062581 -1.174326 -0.908672 -1.291694 -1.288432 -1.561685 -1.402543 -0.947868 -1.063098 -0.985987 -1.249344 -0.928492 -0.934398 -0.635924 -0.899892 -1.202226 -1.588345 -1.687419 -1.627114 -1.336420 -1.621355 -1.802412 -1.626297 -1.654003 -1.346591 -1.698284 -1.807136 -1.591037 -1.285157 -1.762227 -1.484298 -1.164115 -1.093466 -1.155670 -1.390727 -0.999000 -0.862873 -1.001832 -1.111327 -0.960735 -0.994658 -0.673900 -0.919956 -1.032250 -0.901521 -1.304451 -1.375757 -0.954000 -0.574095 -0.448197 -0.991071 -1.233029 -1.159117 -0.835920 -1.099859 -1.134252 -1.057986 -1.081874 -1.056297 -1.162340 -0.836399 -0.869134 -1.103429 -1.075371 -1.082397 -0.940597 -0.544718 -0.731202 -0.825080 -0.855123 -0.438530 -0.830210 -1.058099 -0.616676 -0.759472 -0.322722 -0.738867 -0.368458 -0.331897 -0.279047 -0.335593 -0.033253 -0.230520 -0.566872 -0.484415 -0.325300 -0.495674 -0.827377 -0.982504 -1.021549 -0.842569 -0.575247 -0.855156 -0.379721 -0.360274 -0.849406 -0.060900 -0.127523 -0.182510 0.187415 0.373027 -0.443446 -0.329889 -0.345540 -0.128583 -0.038614 -0.753318 -0.122627 -0.273205 -0.272976 -0.193556 -0.097265 -0.420169 -0.145719 -0.270623 0.374077 0.094085 0.343719 0.145103 0.406184 0.427498 0.151005 -0.028002 0.514207 0.294099 0.495102 0.399931 0.337362 0.186352 0.255983 -0.114432 0.009540 0.196244 0.101969 0.152942 0.542543 0.536440 0.358380 -0.169699 -0.054446 -0.498786 -0.203531 -0.065665 0.060980 -0.379413 0.322128 0.540097 0.688265 0.433329 0.018620 0.079955 -0.034868 -0.343537 -0.408186 -0.184534 -0.186757 -0.329742 -0.047254 0.066638 0.487346 0.619998 0.622529 0.231111 0.610107 0.542521 0.721886 0.464350 0.516260 0.484259 0.532749 0.590576 0.912811 0.487755 0.500144 0.562698 0.729677 0.770870 0.882767 0.520544 0.451656 0.042395 0.938889 0.593790 0.226654 0.108730 0.602013 1.036498 1.176874 0.078588 -0.299149 0.067339 0.424363 -0.307969 -0.140396 -0.206283 -0.350053 0.401144 0.326574 0.224333 -0.407464 0.001250 -0.218365 -0.041102 -0.113310 0.155072 0.060315 0.106714 0.645697 0.293365 -0.000469 0.089058 0.314482 0.597044 -0.093431 0.144326 0.390810 0.336470 -0.010629 -0.360230 -0.238735 0.130886 -0.352178 -0.011542 0.212634 -0.234772 -0.223754 -0.067584 -0.115592 -0.378961 -0.215421 0.079557 0.024231 -0.005165 0.187014 0.009643 -0.239957 -0.030224 0.036968 0.393192 -0.157791 -0.108744 0.176627 -0.531436 -0.648566 -1.009942 -0.590535 -0.515830 -0.370718 -0.377496 -0.063072 -0.113547 0.283555 -0.267839 -0.267424 -0.153105 -0.072290 -0.486571 -0.510744 -0.646082 -0.446246 -0.441273 -0.274677 -0.495416 -0.623757 -0.681121 -0.278530 -0.227998 -0.478297 -0.500773 -0.567398 -0.085630 -0.130643 -0.253942 -0.552808 -0.115464 -0.632197 -0.692174 -0.033747 -0.179714 -0.063277 -0.176703 -0.115921 -0.228637 -0.342118 -0.188269 -0.262435 -0.577304 -0.419273 -0.184152 -0.879288 -0.300941 -0.039289 -0.270560 -0.584388 -0.335078 -0.355141 -0.576434 -0.232097 -0.227019 0.037283 -0.442694 -0.517930 -0.607390 -0.336079 -0.387946 -0.355671 -0.328856 -0.405490 -0.459354 -0.062730 -0.079474 0.034535 0.110830 0.216860 0.479654 0.329621 0.413008 -0.105529 -0.099685 0.246499 0.378830 0.317075 0.408432 0.093220 0.236564 0.138513 -0.055884 -0.329238 -0.196423 0.213767 0.618855 0.194504 0.133717 0.340150 0.254380 0.097132 0.244495 0.744322 1.025927 0.727982 0.692391 0.617365 0.558974 0.589199 0.341896 -0.335662 0.311940 0.393569 0.469592 -0.244328 0.288782 0.376879 0.686775 0.684596 0.571905 0.505664 0.392546 0.732660 0.929930 0.728456 0.942830 0.969706 0.808814 0.835866 0.333908 0.666180 0.747939 0.640760 0.498303 0.313590 0.609460 0.233957 0.237630 0.183374 0.380699 0.462844 0.399194 -0.068349 -0.064369 0.204317 -0.072550 0.047304 0.431768 -0.142894 -0.691283 -0.388495 -0.031121 0.195237 -0.146920 -0.147741 -0.140428 0.002790 -1.087776 -0.851443 -0.518936 -0.287162 -0.389527 -0.524476 -0.563468 -1.030706 -1.516246 -0.742465 -0.653542 -0.548220 -0.787323 -0.089326 -0.261758 -0.135134 -0.877831 -0.730592 -0.506668 -0.558996 -0.110569 -0.297957 -0.171518 -0.169965 0.072397 0.039593 0.234273 0.145779 -0.002442 0.381864 0.518983 0.687811 0.451671 0.315278 0.386889 0.415595 0.514749 0.997302 1.045850 0.627363 0.681302 0.440684 0.446860 0.236548 0.362548 0.351356 -0.060726 0.381345 -0.054342 -0.054170 -0.414310 0.021928 -0.266456 0.455424 0.347619 0.259844 0.635218 0.428114 0.123334 0.178881 0.256048 0.942775 1.177854 1.004695 1.124774 1.424050 1.623631 1.651272 1.254692 1.603363 1.568029 1.388476 1.425181 1.829942 1.144642 0.155064 -0.288343 -0.294699 -0.475818 -1.069854 -0.786719 -0.671975 -0.654054 -1.162319 -0.475962 -0.591676 -0.939852 -0.653248 -0.425979 -0.455668 -0.786799 -0.807897 -0.698641 -0.829221 -0.617245 -1.139129 -0.830266 -1.072528 -0.492562 -0.264668 -0.379634 -0.320699 -0.031430 0.197009 -0.087922 -0.282604 -0.333696 -0.196028 -0.522505 -0.479461 -0.917026 -1.043793 -1.148761 -1.156871 -0.626195 -0.269035 0.169200 -0.433230 -0.679888 -0.613456 -0.739431 -0.461194 -0.340366 -0.733112 -0.105113 -0.123833 -0.172959 -0.079488 -0.373432 -0.411925 -0.867104 -1.474182 -0.980162 -0.937309 -0.857176 -0.543508 -0.139885 -0.996738 -0.615181 -0.610453 -0.782623 -0.511010 -0.740883 -0.725017 -1.036145 -1.070505 -1.029437 -1.131374 -1.069237 -1.339363 -1.565918 -1.210449 -1.080534 -0.785935 -0.995174 -0.981422 -1.002691 -0.823858 -0.680402 -0.931148 -0.696524 -0.448600 -1.300679 -0.840447 -0.647026 -0.447588 -0.667547 -0.413354 -0.066500 -0.724585 -0.799658 -1.112708 -1.051581 -0.852090 -0.895823 -0.325947 -0.422312 -0.720481 -0.214723 0.175585 0.224141 0.390358 0.549651 0.277567 0.500487 0.580484 0.439580 0.042203 -0.182654 0.343067 0.624544 0.532074 0.516164 0.455067 0.735167 0.626547 0.449259 0.057918 0.453893 0.678762 0.582038 0.372391 0.391430 0.544644 0.555825 0.705994 0.290411 0.503907 0.867874 0.368656 0.467839 0.558855 0.606823 0.681185 0.622268 0.590254 0.737850 0.482667 0.691176 0.917989 1.005718 0.832515 1.160026 0.622571 0.608757 0.409922 0.542086 0.153854 0.082708 -0.137942 0.129058 0.308693 0.698216 0.323152 0.264567 0.404941 0.621617 0.284235 0.205438 0.192982 0.186309 0.449422 0.377335 0.193801 -0.024845 0.098342 -0.075890 0.172364 0.391879 0.322444 0.278794 0.472431 0.205273 0.092166 0.220334 0.268167 0.231171 -0.089987 0.153308 0.535455 0.484953 0.436316 0.481063 0.190406 -0.100745 0.133917 0.356150 0.218258 -0.149912 0.276436 0.237407 0.361988 0.368052 0.119698 -0.163028 -0.229147 0.062831 -0.059988 0.227849 0.322217 -0.258983 -0.306142 -0.122334 0.404942 0.154966 0.138703 0.311213 0.413423 0.053115 -0.206369 0.056226 0.281174 -0.184534 0.166118 -0.015122 -0.236849 -0.531084 -0.227879 -0.038000 -0.154877 -0.529307 0.060788 0.066712 0.206470 0.880166 0.178388 -0.075798 -0.470840 0.122586 -0.186944 -0.408568 -0.360310 0.399850 0.723146 0.321852 0.222129 -0.243709 -0.907979 -0.705064 -0.641034 -1.187547 -0.909667 -0.425107 -0.471801 -1.379527 -1.419693 -1.604474 -1.879770 -2.075497 -1.927697 -1.592128 -1.014636 -0.832251 -0.922598 -1.586344 -1.424830 -1.581698 -1.663540 -1.778235 -1.419720 -1.355650 -1.001916 -0.567104 -0.392055 -1.188508 -1.059243 -1.506148 -1.498336 -2.281782 -2.109860 -1.653353 -1.964316 -1.819807 -2.039047 -1.883595 -1.257802 -0.993471 -0.629431 -0.804003 -0.603566 -0.233090 0.268318 -0.131676 0.128450 0.422978 1.223352 0.889342 0.531439 0.106299 0.571565 0.289656 0.521170 0.410651 0.296619 0.376858 0.642242 0.525524 0.991862 1.348346 1.138596 1.398172 1.228842 1.689674 0.948235 1.123953 0.456481 0.678655 0.792635 0.575163 0.583008 0.161343 0.385632 0.242536 -0.099948 0.238489 0.246980 0.382225 0.738347 0.250344 0.396314 -0.193428 0.325906 0.064347 0.038233 0.114518 0.412523 0.433936 0.791089 0.411872 0.804845 0.246933 0.260464 0.029312 0.185869 0.303750 0.202809 0.303752 0.014985 -0.082364 0.536030 0.574357 0.348423 -0.737190 -0.680358 -0.023112 -0.373572 -0.601849 -0.425612 0.349095 0.674209 1.283973 1.327247 1.045397 1.459225 1.965502 1.731566 -0.237034 0.201966 0.016879 0.372604 -0.156652 -0.365755 0.865295 0.118521 -0.732968 -0.603623 -0.978763 -0.937663 -0.567940 -0.948665 -1.463930 -0.876044 -0.856015 -0.766964 -0.385085 -0.032667 0.036657 -0.255588 -0.492039 -0.385521 -0.542267 -0.114459 -1.184031 -0.648911 -0.299337 -0.025270 -0.033845 -0.268911 -0.176248 -0.656196 -0.995294 -1.121145 -1.150994 -0.699828 -0.739920 -0.233326 -0.588312 -1.358764 -0.738328 -0.525807 -0.732976 -0.285261 -0.589420 -0.553810 -0.716005 -0.922598 -0.872861 -0.844643 -1.395714 -1.577738 -0.932276 -1.642274 -0.527985 -0.343768 -0.800834 -1.169524 -1.337114 -1.302301 -0.488777 1.636727 2.424331 2.503017 2.476913 2.751000 2.941510 2.954300 2.419412 2.784755 2.890669 2.710582 2.621669 2.294219 2.506931 1.682181 1.073632 0.868533 0.461637 0.584889 0.957114 1.056311 0.715751 0.652733 0.474134 0.565212 0.213678 0.106409 0.407045 0.502017 0.315499 0.448020 0.514629 0.167418 -0.123735 -0.019252 -0.005704 -0.213229 -0.278286 -0.106938 -0.414983 -0.352421 -0.673055 0.100920 0.647157 0.817943 0.854138 0.608383 0.881192 0.775845 0.904448 0.225415 0.748101 0.879375 0.737375 0.650839 0.866071 1.071842 0.939083 0.901570 0.725936 0.492971 0.917539 0.857728 0.635899 0.222231 0.293075 0.614099 0.675226 -0.026424 0.301016 0.050122 0.620288 0.572669 0.407509 0.501412 0.212909 0.073196 0.183834 0.029139 -0.408401 -0.544154 -0.252073 -0.382401 -0.282401 -0.423455 -0.289385 0.238757 0.046792 0.490199 0.288165 0.239425 -0.160176 0.262990 -0.183972 -0.151267 -0.684051 -0.306313 -0.250286 0.118085 0.197122 0.264176 -0.073827 0.186917 0.244786 -0.097729 -0.391732 -0.112963 0.463116 -0.086769 -0.414174 -0.311412 -0.284115 -0.515525 -0.578959 -0.762503 -1.177676 -1.841369 -2.221183 -2.715710 -3.425723 -3.675615 -3.598694 -3.092262 -3.148119 -3.316205 -3.346340 -2.986769 -3.268083 -3.181905 -3.855010 -3.162318 -3.362507 -3.060543 -3.187733 -3.338389 -3.605019 -3.494218 -3.327953 -3.825822 -3.633800 -3.579284 -3.930299 -3.554272 -4.131817 -3.267705 -4.121985 -4.155610 -4.414156 -3.919093 -3.553170 -3.254837 -3.013730 -2.736561 -2.137146 -2.159362 -1.993222 -0.719580 -0.361808 1.111074 1.741978 1.461192 -0.045594 -0.572701 0.615764 0.490259 0.668943 1.292844 1.012372 0.667207 0.778676 1.150199 1.510617 1.763152 2.369364 2.012460 1.740829 1.649195 1.266249 1.602063 1.125920 0.970314 1.054906 1.273404 1.247454 2.127128 2.007812 2.149839 2.003412 2.011806 2.118407 1.970550 1.892818 2.038785 2.249374 2.092673 1.689425 2.113802 1.682173 1.171923 1.536547 1.837485 2.200254 1.754732 1.507815 1.790104 1.512500 1.371372 1.328044 1.334699 1.109873 1.228079 1.429437 1.120361 1.194381 0.698603 0.560233 0.831993 0.739118 0.301566 0.905927 1.097181 0.937163 0.696919 0.522322 0.797625 1.203617 0.410703 0.895932 0.884302 0.531422 0.707522 1.187016 0.742446 0.242235 0.141527 0.297213 0.802243 0.739882 0.556719 0.702745 0.954641 1.161210 1.027611 0.831713 0.959406 0.992528 0.793231 0.542472 0.660505 0.673712 1.184419 0.772361 1.030989 1.087749 1.319373 1.129126 0.938715 0.685763 0.440128 1.406062 1.819286 1.740248 1.706509 1.439526 2.055485 2.004411 1.992847 2.124132 1.871184 1.934833 1.945278 2.132853 1.958721 1.215142 1.357032 1.576155 1.604511 1.544358 1.939343 1.868305 1.482226 1.193889 0.961263 1.040661 0.846530 0.784116 1.110482 1.038561 0.638511 1.254236 0.728954 1.102762 1.173135 0.910129 0.934216 0.648418 0.555248 0.494586 0.502859 0.467513 -0.252238 -0.447321 -0.324107 -0.113108 0.061468 -0.046164 -0.233915 -0.633706 -0.548809 -0.548345 -0.920898 -0.684212 -0.953418 -0.669891 -0.258231 -0.463164 -1.097014 -1.041619 -1.005935 -1.222856 -1.135863 -0.717784 -1.333177 -1.147456 -0.713133 -0.753263 -0.833040 -0.254998 0.104356 0.359418 0.441048 0.877383 0.999708 0.863655 0.825566 0.665334 0.791224 0.446071 0.901123 0.464691 0.181677 -0.287592 0.181608 0.065040 -0.335740 -0.462940 -0.620858 -0.514028 -0.508747 -0.859363 -0.782708 -0.191314 -0.397072 -0.112485 -0.000442 1.174152 0.721542 1.203762 1.701555 1.572681 1.098332 1.589276 1.202735 1.427986 1.659860 1.608316 1.546101 1.225631 0.971809 1.253633 1.343864 1.168196 1.673925 1.859083 1.007379 0.962379 1.371889 0.926620 0.563439 0.702386 0.953217 1.158364 0.864560 1.008060 0.338350 0.366318 0.526906 1.149356 0.353416 0.380610 0.226386 0.049299 0.654369 0.860614 0.913322 0.755402 0.792101 0.975911 0.849736 0.631659 0.589724 0.416187 0.909398 0.481675 0.757353 0.452201 0.249735 0.143367 -0.021760 0.084631 0.292060 -0.008115 0.461473 0.052500 0.339781 0.749621 0.731376 0.869096 0.771065 0.776547 0.760899 0.597733 0.729006 0.404687 0.698066 0.763564 1.176823 1.262296 0.787855 0.854768 0.720904 0.685063 0.457617 -0.115103 -0.456576 -0.171721 -1.029599 -1.089589 -0.918303 -0.838210 -0.696213 -0.240694 -0.648727 -0.187742 -0.039925 -0.149420 -0.205870 -0.337888 -0.373753 -0.200698 -0.691136 -0.818052 -0.650482 -0.771501 -1.016812 -1.605818 -1.368225 -1.315428 -1.118063 -1.085930 -1.207687 -1.415998 -1.628936 -1.494401 -1.464553 -1.270053 -1.215142 -1.354230 -1.380997 -1.179268 -1.675640 -1.436989 -1.549354 -1.185525 -1.683483 -1.389801 -1.144919 -1.044583 -1.614816 -1.339453 -0.892811 -0.962950 -1.386850 -1.261871 -1.211016 -0.847100 -1.519794 -1.477046 -1.290593 -1.027295 -1.027172 -0.808317 -0.556419 0.074583 -0.879331 -0.732136 -0.512566 -0.233707 -0.635441 -0.683849 -0.512812 -0.649161 -0.163670 0.333818 -0.267251 -0.440727 -0.261078 -0.018122 -0.216087 -0.438284 -0.302763 -0.079708 -0.231397 0.085698 -0.190933 0.117915 -0.386907 -0.111768 -0.090705 -0.235578 0.045000 0.335454 0.216853 0.544210 0.840572 1.110740 1.720027 2.652521 2.154125 1.686678 2.340319 2.172302 2.063655 1.832058 1.654971 1.935631 1.827078 1.978293 2.190354 1.910899 1.821217 1.628306 1.592827 1.177297 0.894717 0.994195 1.209982 1.240330 1.246866 0.898819 1.009283 0.660974 0.388724 0.661763 0.195626 0.422052 0.471035 -0.035658 -0.400939 -0.083517 -0.383038 -0.124037 -0.252099 -0.056492 -0.233651 -0.235897 -0.634718 0.030813 -0.382515 -0.100481 -0.067115 -0.171420 -0.261541 -0.618852 -0.156860 0.316176 0.257620 0.396839 0.668402 0.942077 0.796750 0.963521 0.822500 0.606723 0.900396 0.236725 0.608139 0.490756 0.118485 0.318538 0.607291 0.085119 -0.269299 0.040610 0.489872 0.171289 0.267044 0.124773 0.288796 0.279386 0.103168 -0.159225 -0.220477 -0.065349 0.511065 0.262343 0.198729 0.553045 0.859765 0.515789 0.425383 0.225625 -0.202182 0.020425 0.256767 -0.076328 -0.384872 -0.255865 0.337515 0.261695 0.420263 0.272072 0.077355 0.365628 0.255600 0.206965 0.546589 0.276734 -0.006987 0.660915 0.094747 0.478778 0.171117 -0.225884 -0.416598 -0.235353 -0.233414 -0.260618 0.102808 -0.555375 -0.358542 -0.144456 -0.251921 -0.162521 -0.305346 -0.532132 -0.623079 -0.832707 -0.725080 -1.100537 -0.824400 -0.977524 -0.627144 -0.401328 -0.318235 -0.522947 -0.940941 -1.060115 0.584535 0.040118 0.816645 0.413600 1.184479 0.115674 1.804937 3.271614 -0.409542 -1.117602 -0.477229 0.489676 0.652626 1.146021 0.909545 1.048394 2.173337 3.039591 3.236165 2.523452 2.192233 2.086293 2.029256 2.693947 3.215927 2.220122 1.954342 1.881469 2.228410 0.713168 -0.412976 -0.946012 -0.710232 -0.207058 -0.108409 -0.091387 0.100641 -0.031500 -0.657244 -0.089452 -0.151517 -0.189382 -0.439887 0.278148 0.412927 0.258422 0.561730 1.601662 1.464845 1.046917 1.305685 -4.066359 -2.066984 -0.571747 2.807480 2.891538 4.318673 4.316515 4.215735 4.521338 5.560280 4.995460 4.854471 4.447868 5.303123 5.244046 5.406502 2.933169 3.905452 4.837572 4.982477 4.372189 3.548391 2.373652 2.223517 1.915190 1.392582 1.215241 1.153997 1.667814 1.553164 1.705630 2.102080 2.762249 3.265956 3.383010 3.794414 3.509021 2.659122 2.232800 2.858958 3.127513 3.135277 3.319314 3.178658 2.922346 3.974681 3.621503 3.694583 3.505156 3.656375 4.006884 3.309548 3.490382 2.748672 3.114565 2.747085 2.260389 2.463831 2.315449 2.598656 3.016326 2.911716 2.090791 2.082476 2.240656 2.023791 2.109369 1.353909 1.908706 2.572237 2.131721 2.171202 2.391757 1.845403 1.848683 1.831857 1.792440 1.730159 1.126379 1.329217 2.489764 3.112822 2.271850 1.705870 1.387482 0.870499 2.007096 2.235555 2.064959 2.398334 2.498813 1.513720 1.436062 1.590465 1.183850 1.021525 0.777803 1.452294 1.369371 1.704537 0.986801 -0.349964 0.055437 0.303575 0.851735 0.929635 0.379910 -0.551115 -0.022724 0.812872 0.748690 1.076340 0.974323 0.351283 0.727461 0.785509 0.933012 0.917172 0.901006 0.659045 0.757195 0.734340 0.491885 0.578358 0.178601 0.033690 -0.244242 0.032046 -0.153050 0.146563 -0.401216 0.010839 -0.129244 0.187283 0.397685 -0.335195 -0.180323 0.215117 0.263116 0.021199 -0.242951 -0.340075 -0.219965 -0.047569 -0.239984 -0.895602 -0.313249 -0.600628 -0.522562 -0.738743 -0.993738 -0.721329 -0.297444 -0.618602 -0.721547 -0.373781 0.262553 -0.589200 -1.001092 -0.534815 -0.644261 -0.920155 -0.609695 0.037312 -0.227192 -0.496272 -0.560957 -0.785563 -0.487640 -0.824095 -0.335565 0.347205 -0.074771 0.593564 -0.213380 -0.410564 -0.871617 -0.404508 -0.139209 -0.468312 -0.355046 -0.127114 0.304028 -0.186978 -0.098252 -0.275719 0.066454 1.106804 -0.008866 0.136015 0.171583 -0.409737 -0.766756 -0.064493 -0.108241 0.267436 0.174864 -0.411965 0.619349 0.667880 0.880128 -0.034011 0.366726 0.833967 0.752519 0.541498 -0.069986 0.375970 0.667160 0.743365 0.382545 0.320117 0.896806 -0.136680 0.017710 0.059698 0.082412 -0.314773 -0.382792 -0.000753 0.491709 0.228822 0.389049 0.450066 0.878450 0.005496 0.418823 0.920406 0.083831 0.092804 -0.073203 -0.284206 0.063416 0.177266 0.826378 0.415703 0.174692 0.735267 0.508299 0.684900 0.167818 0.492314 0.193554 0.369758 0.638986 0.951288 0.276299 -0.022455 0.337655 0.067736 0.441920 0.380299 1.019273 0.028208 0.650597 0.635172 0.699676 0.553213 0.984057 0.936038 0.985874 1.050818 -0.456056 -3.340786 -0.020068 -0.810583 -0.889411 -1.930255 -2.626831 -1.595463 -0.684103 -0.207078 -0.046052 -0.129537 0.310001 -0.536408 0.132058 -1.482904 -1.578207 -0.995205 -1.168340 -0.585925 -0.592957 -0.120236 -0.785327 -0.263203 0.904250 -0.783283 -2.153675 -3.440277 -3.655634 -2.696900 -4.254311 -5.775504 -4.501299 -5.753286 -6.390728 -5.563102 -5.271966 -4.762292 -4.627431 -3.720017 -5.308372 -5.410123 -5.448325 -5.153630 -5.494826 -4.908882 -2.112815 0.027543 1.394736 2.539401 2.880666 3.015919 1.854777 1.234742 -1.352953 -2.494128 -2.788796 -2.962164 -2.982754 -2.747181 -3.054064 -2.674399 -3.166767 -2.408980 -2.211664 -2.702313 -2.809492 -2.998610 -2.168226 -2.551627 -2.583240 -2.584341 -2.724173 -2.315925 -2.178557 -2.094558 -2.251519 -2.654773 -2.104717 -2.135355 -1.475084 -0.890361 -0.486484 -0.161243 -0.454263 -0.486964 -0.466986 -0.412056 0.042085 -0.626452 -0.543526 -0.302312 -0.592011 -0.839292 -0.463650 -0.125799 -0.207993 -0.203501 -0.582476 -1.045463 -0.929479 -0.864048 -1.013163 -1.435606 -1.102212 -1.197348 -1.588941 -1.672704 -2.071323 -2.339919 -1.977873 -2.264405 -2.305237 -1.694662 -1.304897 -0.777566 -0.639616 -1.192123 -1.111785 -1.481524 -1.938978 -2.454198 -1.529833 -0.666091 -0.207288 -0.101846 -0.671835 -0.585954 -0.344764 -0.652248 -0.306892 -0.003189 0.317232 0.607050 0.292816 0.646503 0.746289 0.812992 0.835069 0.664620 1.260453 1.631004 1.143727 1.234603 1.274760 1.125970 1.098988 1.528219 1.251143 1.004375 1.361493 1.282252 1.702850 1.193891 1.317954 1.960544 1.552195 1.264314 1.396528 1.474828 1.311734 1.490467 1.556658 1.806592 1.881520 1.310511 1.183199 1.168204 0.997601 1.377986 1.489754 1.750825 1.409422 0.529087 0.930910 1.054149 1.333870 1.595361 1.889513 1.969944 0.768971 0.685810 -0.359359 -0.562491 -0.840892 -1.885480 -2.148546 -2.208883 -2.386937 -2.230487 -1.776706 -3.089805 -2.992431 -2.175428 -1.505626 -1.152395 -1.487962 -1.362716 -0.925201 -1.422389 -1.544640 -1.589593 -1.577923 -0.757403 -0.973447 -1.013769 -1.463804 -1.346964 -1.950138 -1.459216 -1.571091 -1.979179 -1.486234 -1.159698 -1.888723 -1.873654 -1.886900 -1.448028 -1.359145 -1.327119 -1.126972 -0.869005 -1.632091 -1.402359 -1.780918 -1.834521 -1.253706 -1.716101 -1.403491 -1.357670 -1.725099 -1.414918 -1.134296 -1.457077 -1.749912 -1.825946 -1.620634 -1.769850 -1.382628 -1.710808 -1.351163 -1.284061 -1.650506 -1.127278 -0.999730 -0.729515 -0.889834 -1.119252 -0.971063 -1.337501 -1.200641 -1.177036 -1.143157 -0.723459 -0.821151 -1.036690 -0.892083 -1.050633 -1.071130 -1.289816 -1.325037 -0.709616 -0.548546 -0.699019 -1.373380 -0.489938 -1.111998 -1.828715 -1.639153 -1.360576 -1.261856 -1.037176 -0.777322 -1.119935 -0.993961 -0.975409 -1.153641 -0.995584 -0.750783 -0.470209 -0.197577 -0.753837 -0.267747 -0.790737 -1.295906 -1.245451 -0.806347 -1.513599 -0.644691 0.354205 0.439214 -0.390959 0.412511 0.790317 0.517890 0.215018 0.527708 0.189342 0.333595 -0.701997 -1.148534 -2.330592 -1.559571 -1.389825 -1.501745 -2.184686 -2.583723 -2.069705 -1.931516 -1.666464 -1.840833 -1.474833 -1.612768 -1.633774 -1.664982 -1.259514 -0.956369 -0.046587 -0.670908 -1.022600 -2.418627 -2.745943 -2.848300 -3.033716 -3.073599 -3.098737 -2.893262 -2.845359 -3.041089 -2.480589 -2.149926 -1.837823 -1.784998 -2.202075 -1.902163 -1.641280 -1.963457 -2.680160 -2.471587 -2.217724 -2.112794 -2.313837 -2.589935 -2.254992 -1.967572 -2.084080 -1.924564 -1.289716 -0.500310 -0.716655 -0.375116 0.895985 1.446668 0.560678 0.056356 -0.531196 -0.220484 -0.148370 -0.108412 -0.750263 -1.544815 -1.355408 -1.302388 -1.461803 -1.537426 -1.366946 -0.910355 -0.595920 -0.531785 -0.544769 -0.158930 -0.281248 0.097909 -0.054606 0.327110 0.588987 0.453942 1.008550 0.290704 0.120913 -0.609279 -1.179616 -1.973882 -1.962226 -1.139825 -1.531474 -1.639009 -1.531647 -1.899731 -2.001947 -1.650542 -1.966037 -2.050391 -2.323777 -2.178566 -2.779034 -2.104152 -1.346560 -0.912706 -0.843511 0.169739 1.854201 -1.648861 -2.143841 -2.659238 -1.762067 -0.936989 -1.962855 0.434883 0.970736 0.787157 2.077158 2.774330 2.993319 2.353320 1.944133 0.784757 0.710565 0.471116 0.856699 1.356020 1.478467 0.663542 0.841532 1.064012 1.143180 1.154670 0.920062 1.054668 0.866867 1.024531 0.629778 0.936439 0.787328 1.372466 0.874183 1.156124 1.191417 1.617821 1.498125 1.239446 1.145028 1.313693 1.141314 1.503249 1.566131 1.363633 1.284760 1.655628 1.530363 1.696250 1.702070 1.687326 1.453344 1.371118 1.538969 1.151984 1.667179 1.557878 1.527711 1.902069 1.974868 2.192685 2.005362 0.892020 0.791047 0.532631 0.492292 0.679834 0.917227 0.967698 0.957298 0.719171 1.055616 0.709253 0.822294 0.405674 -0.128464 0.554873 1.136200 1.508971 2.194757 1.700179 1.135697 1.155550 1.367395 1.855098 1.754988 1.288354 1.341987 1.339873 1.768197 0.815863 0.973982 0.973286 1.209600 1.466588 2.135840 1.452881 1.889323 1.736759 2.138225 2.213123 2.008112 2.559921 2.046289 1.920427 2.053056 1.878302 2.252585 2.318728 2.121369 1.621401 1.887785 1.734911 0.864171 1.242576 0.886902 0.830188 1.201971 1.488810 0.506021 0.220457 -0.741838 -1.178048 -2.557875 -2.482229 -4.151708 -3.913795 -4.104811 -3.269787 -2.655052 -2.727767 -3.209817 -2.565954 -0.956545 0.311482 0.404544 0.331286 0.013934 -2.173296 -1.517656 0.277672 1.072875 1.669907 1.258840 0.898561 0.549055 0.448570 0.624286 0.449713 0.179108 0.487902 0.968237 0.884001 1.248503 1.073955 0.611044 0.237826 -0.088980 0.464137 0.386033 -0.670215 -1.207134 -1.379853 -1.161509 -1.097742 -1.091423 -1.325567 -1.185407 -1.374997 -1.621991 -1.497997 -1.890012 -1.761894 -2.389232 -3.784498 -3.953051 -3.568286 -3.595540 -2.967649 -2.850908 -3.424323 -3.606745 -3.463189 -0.438060 -0.297070 0.225864 0.583501 -3.098602 0.205523 -4.166143 -7.193010 -6.178766 -6.592834 -8.121137 -9.068251 -8.891085 -8.751964 -8.452234 -8.618372 -8.869757 -7.661632 -6.946655 -5.665863 -6.266583 -6.422502 -6.744306 -3.616633 -4.110351 -4.157986 -4.344582 -4.393443 -5.002545 -5.581133 -5.950611 -5.177620 -5.180520 -4.730682 -4.880898 -4.287716 -4.376063 -4.612157 -4.273481 -5.065048 -4.604852 -4.746055 -4.766124 -4.790601 -4.613890 -4.577820 -4.798614 -4.240574 -3.708652 -2.943320 -1.512543 -1.425668 -0.586672 -0.677843 -0.303704 1.239844 1.364843 1.816620 2.262711 2.120575 0.162351 -0.149213 -0.684649 -0.334219 -1.510124 -0.103307 -0.439577 -0.055892 -0.442538 -0.139532 -0.504183 -0.167404 -0.322033 -0.789513 0.151798 -0.925032 -0.732867 -1.590166 -2.212282 -2.782200 -3.560822 -5.000189 -5.985844 -6.212976 -6.434094 -6.659265 -6.502357 -4.550146 -2.993482 -2.821707 -3.925085 -3.849583 -3.849056 -4.015727 -3.408863 -3.498236 -3.723156 -3.373442 -2.663634 -2.260747 -1.960315 -2.349090 -1.612695 -2.303893 -1.603144 -2.744213 -2.372608 -3.586298 -3.861884 -4.144336 -3.344421 -3.125468 -3.716581 -3.894297 -3.545562 -3.873147 -3.513577 -4.108610 -3.823859 -3.778125 -3.982770 -3.398746 -3.720497 -3.366293 -3.536802 -2.944130 -3.255362 -3.346326 -3.402288 -3.000629 -2.694216 -2.207275 -1.258506 -0.633948 -1.163241 -0.691881 -0.840172 -0.438464 -0.794693 -0.684434 -1.324048 -0.834489 -0.077731 0.540586 0.239607 0.986840 -0.163704 -0.219903 -0.682104 0.085825 0.505777 0.385131 0.988909 0.883065 0.429958 0.744948 1.024893 0.676970 0.375423 -0.363527 0.347174 0.747092 0.862413 0.230204 -0.160717 -0.029823 -0.192735 0.229213 0.107872 -0.787782 -0.559489 0.363741 0.611152 0.245436 0.561909 0.185887 0.339448 0.160073 0.558227 0.007654 -0.333038 0.456057 -0.221032 0.303488 0.619181 0.701085 0.724068 0.705985 0.701977 0.702100 0.265523 -0.054361 0.524219 0.014023 -0.310917 0.247798 -0.060864 0.103774 0.551568 0.210085 0.129944 0.084012 0.072010 0.071351 0.278605 0.317621 -0.118287 -0.015003 0.215578 0.493643 0.113548 0.006973 0.404016 0.717060 0.791612 0.133044 0.183728 -0.901558 -0.255050 -0.759551 -0.853788 -0.654059 -0.179464 -0.053881 -0.471436 -0.577925 -1.043369 -0.691190 0.057503 0.237143 0.062003 0.220484 0.030894 0.444105 0.762346 -0.040491 -0.211222 -0.034752 0.030165 0.294837 0.133400 -0.117280 -0.604151 -0.479819 -0.869447 -1.151132 -0.976497 -0.703933 0.482896 1.853846 2.370434 2.242647 2.176993 1.711316 1.845573 1.234998 1.558661 1.209561 0.925303 1.103483 0.707941 1.087543 2.062008 2.726746 3.098982 3.594508 3.461277 3.203581 2.699058 3.250427 2.723774 3.282227 3.183270 3.593462 3.689580 3.469581 3.198739 2.461455 2.301761 2.495472 2.768119 2.395229 2.958866 2.844674 2.589218 2.308075 2.439959 2.031134 2.601618 2.939954 2.775863 2.953398 2.510699 2.403508 2.595475 2.401576 2.804547 2.651563 2.381559 2.754935 2.591514 2.557864 2.759052 2.336919 2.245529 2.654575 2.955104 2.138867 2.386415 2.417315 2.428144 2.665778 2.692195 2.032087 2.102472 2.776057 2.709915 2.709207 2.244145 2.128659 3.004440 2.537019 2.673825 2.691651 2.460357 2.441359 2.874947 2.981818 3.020414 2.584991 2.487452 2.038140 1.960375 2.636407 1.244726 -0.801513 -1.678046 -1.838943 -2.000089 -2.412795 -2.038068 -1.717845 -2.287067 -2.166154 -1.917272 -1.621598 -1.299918 -1.453083 -1.478128 -1.918392 -1.773469 -1.713684 -1.234335 -1.773055 -1.213794 -1.078253 -0.818097 0.160708 0.581841 1.129349 1.686929 2.235347 2.358046 3.047729 2.748146 1.122724 1.247540 1.511756 1.609851 1.914870 2.413092 1.628689 1.254878 0.067981 -2.186270 -2.369135 -3.266856 -3.845289 -3.199526 -3.074857 -2.786542 -2.258581 -2.395041 -1.965169 -2.098345 -2.586511 -2.661607 -2.459714 -2.398277 -2.139782 -2.751738 -3.780070 -3.745306 -3.504925 -4.097117 -4.405132 -4.913979 -4.343582 -4.179667 -4.373309 -4.157109 -3.905403 -3.841902 -3.586367 -3.308820 -3.250464 -2.551732 -2.180948 -2.783843 -2.891242 -2.691690 -2.644208 -3.270132 -2.707640 -2.581933 -2.326396 -1.551379 0.615913 1.285613 1.620770 2.137808 3.087115 2.387366 1.335817 2.056913 1.748822 2.172511 2.538107 3.031057 2.261691 1.190618 1.917447 1.398646 1.997804 2.867146 1.635667 0.745888 1.501015 -0.618973 -2.347239 -2.842053 -0.205850 -0.286893 0.390480 0.544890 -0.422095 -2.382643 -5.040672 -3.461663 -3.281765 -3.234750 -2.911723 -2.460703 -2.117230 -1.367310 -0.763502 0.245154 -0.243225 -0.154632 -1.243274 -2.184925 -1.602096 -0.562618 -0.348178 -0.309903 -0.078549 -0.742919 -0.866980 -1.543134 -1.683005 -1.191385 -0.876886 -1.952317 -0.774495 0.871472 1.578572 1.498985 1.447934 1.196331 1.379212 1.672691 1.493673 1.476294 0.797410 -0.019852 0.104303 -0.538876 0.274480 0.031339 0.401245 0.312248 0.250139 0.289031 0.290060 0.544723 0.837076 1.129481 1.656450 2.910909 4.067826 3.339106 3.875183 3.089281 3.345404 1.890046 3.166477 2.850080 2.916749 2.837514 2.516919 3.210278 3.120243 3.328829 4.103691 4.454835 4.990614 5.101873 4.410147 4.067638 3.567220 3.026266 2.746023 2.488537 2.239127 2.680527 3.017122 3.308833 2.922152 3.527637 2.749792 2.338987 2.107638 2.725752 2.665200 3.552486 5.137581 5.613232 4.537146 3.397461 3.649054 3.730420 2.835833 2.005653 1.872673 2.331293 1.754176 2.106059 1.752857 1.878212 2.419999 2.497074 2.981283 4.462823 4.262129 5.105860 4.374939 4.389284 3.552323 3.577173 3.899073 4.162946 4.479353 3.611469 4.132433 5.203921 4.451173 5.238719 3.361640 0.628346 -1.124360 -2.795149 -3.244859 -3.212759 -2.490734 -1.617661 -1.689775 -2.398917 -2.756074 -2.799269 -1.640882 -1.380854 -0.911578 -1.926028 -2.630138 -1.998864 -2.553234 -3.116385 -2.933917 -2.894292 -2.641091 -2.562421 -2.324564 -2.258468 -2.249006 -2.685205 -2.766864 -2.520156 -2.238123 -2.395900 -2.197034 -1.910327 -1.863296 -1.614728 -0.876399 -2.104524 -2.142655 -1.843318 -1.150176 -0.962445 -0.961306 -1.406155 -1.056171 -1.184740 -0.552775 -0.615933 -0.905827 -1.158997 -0.772203 -0.446611 -0.624932 -0.203071 -0.347395 0.048061 -0.526663 -0.458900 -0.400704 -0.200470 0.094117 -0.322325 -0.189447 -0.375326 -0.214436 -0.152875 0.285835 -0.067242 0.053568 -0.349700 -0.241381 -0.181288 -0.198413 -0.185216 -0.649557 -0.291990 0.026036 0.743157 -0.006353 -0.887819 -0.797574 -0.329440 0.007018 0.074947 -0.377673 -0.027287 0.063673 -0.169351 -0.645816 -0.749571 -0.521922 -0.243724 0.048795 -0.121482 -0.392417 0.018433 -0.343633 -0.200173 0.096936 -0.321272 -0.389452 -0.155360 -0.564812 -0.408536 -0.119389 -0.074669 -0.272723 -0.311747 -0.079494 0.202990 -0.183179 -0.035725 0.021924 -0.207296 -0.223428 -0.444052 -0.482711 -0.236162 0.046392 0.114174 0.583684 0.234987 -0.080735 -0.334778 -0.619795 -0.644226 -0.629248 -0.161073 -0.047961 -0.035720 -0.243474 -0.521403 -0.785402 -0.826871 -0.587256 -0.527116 -0.737263 -0.771580 -0.544885 -0.948073 -1.027004 -0.790189 -1.207325 -0.599230 -0.450896 -0.687728 -0.930629 -0.770914 -0.953287 -0.767924 -0.934881 -0.993172 -0.980919 -0.766961 -0.486106 -0.893947 -0.531185 -0.668823 -0.735472 -0.939092 -0.556105 -0.909474 -1.238630 -1.043736 -0.798131 -0.742675 -0.959432 -1.012334 -1.022639 -0.802635 -0.749557 -0.524938 -0.474725 -0.484836 -0.708826 -0.765623 -0.766326 -0.999031 -0.812263 -0.764868 -0.543221 -0.483504 -0.719302 -0.762493 -0.769690 -0.320041 -0.443357 -0.946557 -0.803773 -0.547563 -0.502169 -0.254186 -0.663838 -0.312770 -0.437990 -1.186582 -1.074730 -1.272136 -1.326311 -0.841315 -0.759241 -0.980477 -1.018854 -1.261507 -1.086891 -0.576270 -0.715238 -1.207160 -1.299674 -0.639436 -0.954504 -1.038872 -1.477747 -1.611646 -1.594881 -1.154557 -0.817871 -0.777149 -1.683301 -1.435704 -1.575505 -1.199517 -0.607505 -1.908645 -2.188262 -1.966100 -2.204572 -1.759466 -1.437849 -0.282117 -0.033811 -0.521757 -0.378691 0.076047 -0.310260 -0.399462 -0.175454 -0.168501 -0.847272 -0.546159 -0.460936 -0.271352 -0.647481 -1.004673 -1.507991 -1.636860 -1.631945 -0.966761 -0.812381 -0.831026 -1.276020 -1.184827 -1.139239 -1.391722 -1.652899 -1.717517 -2.184521 -1.606958 -1.228247 -1.888032 -1.555264 -1.250058 -0.788410 -1.113778 -1.009044 -0.503571 -0.900646 -0.531838 -0.657372 -1.205015 -1.276315 -1.529637 -1.816820 -1.396363 -1.306793 -0.633683 -1.607254 -1.435880 -1.532295 -2.344221 -2.432105 -1.088493 -1.036518 -1.309735 -1.779756 -1.718684 -1.211053 -0.214469 -0.238371 -0.071627 -0.479236 -0.404118 -0.799099 -2.531804 -0.099944 -0.442125 -0.959190 -3.826701 -4.386995 -3.800348 -1.513253 -0.434327 0.988621 2.916818 5.646921 5.930100 6.276827 5.452215 5.329066 4.029620 3.198289 1.567991 2.068822 1.872248 1.243376 1.483559 2.378916 5.535799 4.810864 4.432091 5.891710 6.910287 6.654986 7.021712 6.643212 6.457563 6.950314 6.538519 6.432350 6.217622 6.342429 6.629753 5.965507 6.505184 5.741528 5.712194 6.048772 6.707119 6.649130 6.115748 5.343187 5.621259 5.947704 6.193037 5.353269 4.902944 4.868951 4.600091 4.334775 4.516108 4.098506 4.438049 4.553286 4.281233 4.479548 3.827193 3.656584 3.906219 4.595150 4.522288 4.225517 3.960889 3.875824 3.869723 3.858569 3.400544 3.519399 3.568215 2.397320 2.166772 1.948247 2.076134 2.152411 1.898151 1.167648 1.913943 1.653178 1.271643 1.721817 1.315472 1.194698 1.208114 1.617135 1.032842 0.852621 1.089160 0.860356 0.125125 0.192542 -0.001581 -0.771098 0.219533 0.224734 0.337413 0.196881 -0.824410 -0.803348 -0.993439 -0.869141 -1.255151 -0.495988 -0.294748 0.316931 -0.192350 0.491506 0.483240 0.342736 0.146080 0.264423 0.529404 0.543750 0.302565 0.907845 0.581750 0.664153 0.956265 0.947648 0.717129 0.873550 0.905335 0.877023 0.874312 0.627957 0.789335 0.608384 0.985331 0.870985 0.787848 0.354476 0.227489 0.464993 0.727065 1.008267 0.608921 0.499610 0.286506 0.445068 0.517722 0.961103 0.856406 0.793508 0.591497 0.529750 0.548868 1.001931 0.445516 0.737910 0.203521 0.244642 0.576756 0.379370 -0.095201 0.042574 0.105412 -0.120580 0.304125 -0.479696 -0.246108 -0.541490 -0.456980 0.099669 0.183961 0.420761 0.262634 0.425369 0.721562 0.762560 0.548820 0.952350 0.837604 0.546866 0.747085 1.015837 1.288476 1.346366 1.115190 0.613253 0.733750 1.012979 1.048507 1.053448 1.046351 0.807389 0.521087 0.914062 0.779403 0.928137 0.760712 0.896397 0.946169 0.686139 0.851382 1.107226 0.676134 0.557359 0.320953 0.455489 0.499952 0.466651 0.004294 0.098518 0.361229 0.149286 0.087674 0.520133 0.589531 -0.109039 -0.047873 -0.238480 0.346791 0.508947 0.018099 0.144322 0.395530 0.418131 0.416930 0.851486 0.263222 0.537048 0.651723 0.381897 0.124464 0.504554 0.599524 0.359508 0.316280 0.078948 0.239669 0.520646 0.110955 0.006576 0.233945 0.267553 0.493711 0.770750 0.809369 0.581756 0.301207 0.468431 -0.152164 0.128711 0.257194 0.447728 0.076276 0.175259 0.239142 0.216134 0.228008 0.441670 0.043994 -0.072718 0.160500 0.192687 0.637710 0.295426 0.164549 0.175294 -0.078034 0.314461 0.637043 0.439317 0.158237 0.088631 0.067232 -0.172006 0.430380 0.130851 0.206279 0.269933 0.217099 0.434232 0.459721 -0.235973 -0.188685 -0.149862 -0.191664 0.253646 -0.113604 0.194685 0.076979 -0.249940 -0.073734 -0.274585 -0.571876 -0.182182 0.123394 -0.070622 -0.350591 -0.641473 -0.267360 -0.391202 -0.241255 -0.179333 -0.431587 -0.482072 -0.043864 -0.173815 -0.682877 -0.555651 -0.959463 -0.852234 -0.110228 -0.197023 -0.251451 -0.686355 -0.586225 -0.297378 -0.257909 -0.694291 -0.575646 -0.295166 -0.254965 -0.688418 -0.791526 -0.563499 -0.518041 -0.287563 -0.673341 -0.785628 -0.323914 -0.454042 -0.502726 -0.708516 -0.997901 -1.038820 -1.482591 -1.142684 -1.021052 -1.706003 -1.846423 -1.400966 -1.088258 -1.030163 -1.028660 -0.818251 -0.776503 -1.009922 0.709584 1.122879 1.079846 0.890315 0.333524 -0.004113 -0.290681 -0.136397 -0.310679 -0.159677 -0.110763 -0.361671 0.020197 -0.558450 -0.301675 -0.191468 -0.238003 -0.451433 -0.531384 -0.324862 -0.512476 -0.798467 -0.638347 -0.385553 -0.567770 -0.625905 -0.414663 -0.822541 -0.715957 -0.660109 -1.125726 -1.004612 -0.515127 -1.086661 -0.582766 -0.629805 -0.721780 -0.689404 0.169628 0.830462 0.704500 0.885167 0.713729 0.202555 0.551176 0.000386 0.488170 0.466041 0.161769 0.145232 -0.086454 -0.135025 -0.341561 -1.054789 -0.544093 -0.371410 -0.381320 -0.128935 -0.743115 -0.024509 -0.008776 -0.086430 -0.266125 -0.119821 0.166146 0.217832 0.667448 0.341057 0.443085 0.514171 0.054940 -0.257649 -0.093632 -0.706530 -0.648453 -1.019832 -0.497337 -0.094214 -0.287977 0.110507 0.200017 -0.266017 -0.151376 0.101746 0.347502 0.620194 0.434867 0.577915 0.833884 0.194682 0.458444 0.332316 0.223149 0.014480 0.133804 0.610145 0.243180 0.333852 0.153914 0.039607 -0.185074 -0.282885 -0.302592 0.098611 -0.253500 0.038463 -0.081472 -0.200940 -0.419889 -0.526288 -0.108321 0.184551 0.209501 0.408536 0.646395 