5.549839 5.433713 5.321238 5.212365 5.107041 5.005215 6.396586 5.304211 5.825001 7.537514 5.933803 6.461878 7.593790 6.456383 5.481059 5.975389 4.844887 6.090677 5.770748 6.353395 5.454602 4.762506 5.329115 5.067140 1.818822 0.192781 -0.906081 -2.916472 -5.118103 -4.277035 -2.484761 -2.754233 -0.891074 0.462816 0.227792 0.280684 1.270610 1.873074 3.566295 3.018279 2.955032 2.149191 1.987234 2.580952 3.957982 4.315816 3.280063 4.319715 3.332231 3.786001 2.772290 4.255660 3.561603 3.110917 4.970603 6.291163 5.822496 4.205176 3.587497 4.024463 1.391186 -1.300299 -2.106897 -2.733296 -2.770158 -4.074190 -3.980173 -1.907290 -0.744533 0.188598 3.121725 1.977499 3.942922 5.073644 5.048206 6.824968 7.074318 7.125966 7.674757 5.813245 5.441702 6.272152 6.105544 5.161809 5.442865 5.395750 5.800364 4.698755 4.130646 6.130620 6.676467 5.304993 6.537018 7.290305 4.572386 3.305756 5.318615 4.547241 4.865462 4.589329 3.582993 3.199961 4.005831 4.139992 4.717351 4.926508 5.840787 5.700565 5.737893 5.458069 5.601159 6.668322 5.604436 5.718684 5.990372 4.501716 5.634975 5.755557 4.017323 5.241641 5.536965 4.907943 5.082011 4.536625 4.063602 5.044157 3.729429 2.729168 3.298119 3.645160 3.176946 4.610785 5.383976 4.369974 5.461330 4.299814 3.545841 3.473777 3.666642 4.618504 5.675091 6.098149 6.315710 8.019588 7.011010 7.038607 7.060247 5.976994 6.307507 7.519095 6.829528 6.541662 6.613707 7.199568 6.828549 7.146195 7.562563 7.350612 7.775324 6.987022 6.570202 7.305974 7.498082 7.674227 6.582176 6.626128 6.049793 5.122450 5.703404 6.784593 6.316632 5.970485 7.170247 7.414251 6.094629 6.135769 5.445586 6.062232 6.030755 4.771830 5.011916 5.710538 6.061490 6.645507 5.776627 5.934927 5.499603 5.046790 7.160284 5.617264 5.520509 6.251267 6.394945 5.848648 4.246841 6.456426 7.116262 6.382344 6.489788 5.771080 6.136990 7.262614 7.492870 6.752904 6.703709 6.548851 5.868424 5.992834 5.740893 6.134008 6.058695 5.550946 5.402587 6.069024 6.226621 7.594319 6.650553 6.246331 6.812594 7.114337 6.869511 6.213026 6.913474 7.353679 8.044838 8.661187 8.200388 8.454382 9.809197 9.872647 9.026191 8.393697 7.672286 8.761681 9.086926 7.345794 8.094787 8.198194 8.857384 9.080804 9.121567 9.356684 8.943517 8.952458 8.202235 8.280649 8.671480 8.780677 9.792103 9.068309 8.732579 7.821613 8.985759 9.583281 7.920735 8.153086 8.146543 8.147907 8.834329 9.320737 9.083839 7.963575 8.465788 7.907673 7.824731 9.791811 9.284688 8.355717 9.621175 8.542620 8.224055 8.581158 7.769149 7.210955 7.938613 7.775956 6.897986 7.839263 7.739767 8.218045 7.997653 6.767146 7.522841 9.207624 8.150404 7.664777 8.881432 7.855051 7.730938 8.449751 9.344560 9.053881 8.293196 8.795586 8.533715 8.871745 7.242508 8.301917 7.370229 7.628753 7.726063 6.574125 7.916132 8.487896 7.765038 8.397156 9.455601 9.255646 9.029538 8.017455 7.792921 8.438639 8.409963 8.686210 8.363801 8.811732 8.670422 8.570227 8.192251 7.679338 7.671728 7.753251 8.483209 8.789828 8.333380 8.869261 9.646858 9.194963 7.728374 8.324334 7.881018 7.651772 7.374218 7.691220 7.722881 7.868335 7.505383 6.910286 7.978647 7.617032 7.606896 7.216096 7.480883 7.896628 6.830809 7.012481 8.205065 7.685307 7.555384 7.582547 8.017133 9.060676 10.826081 11.379370 10.462385 10.005799 9.524221 9.896101 10.677241 10.216824 10.793616 10.921179 9.849730 9.680954 9.451612 10.535653 9.956406 9.319411 9.520052 9.766883 9.481041 8.934480 8.958968 9.127114 9.260350 9.106548 8.860711 8.418776 9.261793 8.099852 8.730705 8.646371 6.947500 7.678859 7.386583 7.610565 8.464220 8.532636 8.107727 8.269701 7.980923 7.109117 7.202149 7.808643 7.703624 7.436114 7.480450 7.365777 6.701587 7.475332 8.083208 7.021253 7.851031 7.880464 8.705439 8.119019 7.290584 8.012647 7.164813 6.955880 7.535273 6.668339 5.982981 6.567790 6.761960 7.177327 7.770888 7.282541 7.998218 7.420739 6.452894 6.493907 7.002670 8.141395 8.379019 8.721045 8.679332 8.342953 7.633151 7.010495 7.892587 7.532224 7.492073 7.137722 7.397979 7.793377 8.082221 8.657066 7.557873 7.027334 6.801317 7.058114 7.619490 7.907411 7.385533 6.919470 6.360393 6.134824 7.306070 6.906859 5.728389 6.065145 6.699301 7.008060 7.210905 8.339921 7.823956 6.756884 7.669881 7.793372 6.924174 6.605386 6.925879 6.790666 6.475355 5.467649 5.944264 6.112203 6.889743 6.019954 5.613378 6.124081 6.025293 6.155433 5.860206 6.535184 5.282123 5.061336 4.904372 5.216644 4.819052 4.717338 4.875948 4.212228 3.955726 4.245256 4.637962 3.762576 4.366582 4.538213 4.092014 3.107620 3.463339 4.697181 3.686205 2.877753 3.970828 4.443552 3.876379 4.381904 4.795748 4.692853 4.563583 3.115080 3.615545 4.759144 4.653779 4.036437 3.585028 3.158102 2.676043 3.231390 4.014946 3.380672 3.648159 3.865940 3.674074 3.496391 3.555466 4.969142 4.136804 3.763657 3.892346 4.629147 4.772052 4.384400 5.481442 4.423551 3.807332 4.308471 4.194714 4.796598 4.712707 5.968633 5.598020 5.481459 5.621678 4.927679 5.986825 5.042716 3.838649 4.084050 3.569316 4.063552 4.883939 3.713928 3.979233 3.846114 3.959657 4.256784 4.163341 4.441468 4.567217 4.023331 3.923882 4.576982 4.556499 4.887151 4.255028 4.710082 3.650829 4.352380 4.317258 4.293284 4.415859 2.722359 3.110200 3.828080 3.960349 3.175284 3.589828 4.072247 3.360373 3.874204 4.012483 4.187504 4.043256 3.099990 4.331719 4.488527 3.351130 3.270886 3.339938 4.065124 4.467452 2.811138 3.597140 4.318976 3.346090 2.711313 3.167784 4.388435 3.181128 3.106590 3.235113 3.906945 3.687022 3.709773 4.254009 4.162720 4.431787 4.981690 5.830011 5.737346 5.514948 4.998322 5.295411 5.982449 5.611145 5.606548 4.455448 4.748185 4.838608 4.425429 5.261898 5.838496 5.414517 6.116010 5.670316 4.914880 5.129331 5.078336 5.384054 4.970403 3.958208 4.684023 5.513560 5.377373 5.577534 4.751137 4.713925 4.479543 5.595226 4.877335 5.226904 6.208630 4.659513 5.411478 6.223127 6.668857 5.707856 4.998356 4.466387 4.062929 4.332344 4.862350 4.684827 4.685692 4.010456 3.613503 4.424545 4.937466 5.209307 3.747485 3.722649 3.671655 4.022480 5.024151 3.992676 4.016955 4.911410 4.553345 5.001470 4.577566 5.571037 5.600258 5.105695 4.866110 4.873055 5.551952 5.607524 5.654605 6.505918 6.627613 6.394835 6.671466 6.791084 6.898945 5.992559 6.146805 5.736918 5.326237 5.542859 5.697933 6.191045 5.641078 5.579759 6.708685 6.030754 6.685555 5.455581 5.472919 5.521170 4.647462 4.197739 4.670699 5.742752 5.552434 5.009216 5.209466 6.296048 6.962303 6.565836 5.882879 7.232579 7.298700 6.276796 7.053033 6.994671 6.816495 8.131925 7.752292 7.721161 8.234125 7.986789 7.792590 6.810139 7.276890 7.134788 6.810484 6.833477 7.374176 7.381008 7.192101 7.483453 8.118542 7.534400 8.189418 8.225227 7.906982 6.994268 6.936729 7.980855 7.031223 6.620489 6.464431 6.289837 6.522668 5.499100 6.560722 6.514482 6.951801 6.395404 6.830717 6.205788 6.333859 6.530924 5.828667 5.569854 6.025941 5.613532 5.404336 4.742976 5.795239 5.579174 4.146162 3.502310 3.600526 4.419474 3.419380 2.663046 2.901323 2.831461 3.926747 4.611541 3.771301 3.837485 3.544745 3.774249 3.736872 2.650307 2.234314 2.336896 1.964698 1.031103 1.601855 1.846945 2.970547 1.967438 2.484672 3.722156 3.240394 3.634909 3.357415 4.329515 3.765901 2.374524 3.424183 3.682385 4.778938 3.293625 3.690213 4.533741 4.220595 3.596406 3.407599 4.800728 4.093512 4.073390 3.691492 3.907174 3.854916 4.097162 3.978952 4.664691 3.874636 4.487568 5.741096 5.250696 6.073952 4.718618 4.101654 5.015275 4.748044 5.858849 5.432499 5.100364 4.595512 4.687314 5.182019 5.117333 4.702339 6.111108 5.503915 4.394218 5.845926 4.994513 4.360969 4.363032 4.984298 4.633436 4.361777 3.547406 3.574152 5.743693 4.633220 4.381392 4.250864 4.155753 4.793872 4.523871 4.788081 4.860096 4.967877 4.505227 4.732870 5.525834 5.269288 5.238673 5.251032 5.000260 5.752393 4.140179 5.017015 5.550851 4.719821 3.817368 3.946857 3.809011 3.879747 3.735245 3.791299 2.648796 2.308152 2.613276 3.421696 2.873229 1.866362 2.180745 3.295254 3.970452 2.716143 3.237220 2.900156 3.511504 4.016136 3.834735 3.716139 4.022252 4.003483 4.362570 3.800710 4.572223 3.155692 3.285160 3.761712 3.158525 4.569930 4.983572 4.488923 4.681859 4.584038 4.716946 4.579579 5.242055 4.695789 4.197080 4.955512 5.478885 4.744367 4.493374 4.490179 4.757408 4.709491 3.480552 4.593352 4.461715 4.451511 5.581310 4.799874 4.341286 3.840005 5.336136 5.569730 4.660163 5.353730 4.951509 4.890787 5.121901 4.969570 4.938232 3.660766 3.343942 3.851204 4.447599 3.822885 4.323008 3.604630 2.954388 2.828877 3.833234 4.644924 3.870616 5.037786 4.203655 5.591991 5.291829 5.119621 4.867111 4.406023 5.494791 5.429069 4.195634 4.647554 4.398382 4.794029 3.961901 3.178177 4.461875 3.439504 3.711573 3.914536 3.725950 3.578662 4.003872 3.888904 4.924768 3.721936 3.593232 3.961639 4.594795 3.799407 4.076193 6.004323 5.591311 4.847101 5.341828 5.716785 6.246354 5.671585 4.822449 5.811115 5.924317 6.065680 6.423364 6.211919 7.579809 7.195741 6.255145 7.156294 6.841365 7.626172 6.412938 6.873902 7.162356 6.435036 7.854409 7.188874 7.018210 7.626437 7.356634 6.524382 7.843547 6.593090 6.521810 7.258834 7.013099 6.933017 6.566419 7.078561 6.528356 6.632597 6.527647 6.514733 6.488718 5.986135 6.736756 6.074250 5.985628 6.236192 5.874526 6.252495 7.259161 6.893233 5.880327 6.032397 6.134356 7.653553 6.120296 6.193857 6.679120 6.953669 6.430976 6.369242 7.274639 7.502240 6.408420 6.519527 5.486615 7.224391 7.646137 6.151864 7.188315 6.160874 6.904191 5.565875 6.522571 6.785190 7.002411 6.471545 4.777686 5.936947 5.448221 6.446869 5.493496 5.625484 4.838563 6.218507 6.254823 4.925571 6.329370 6.740113 5.366831 5.692592 6.292974 5.670089 6.243638 5.841281 4.571978 4.707669 4.197041 5.107410 4.240462 4.583090 4.850047 4.642513 4.799992 5.424983 5.854188 5.559555 4.612346 5.268178 3.823866 4.624531 4.415628 5.150778 6.385253 5.643013 5.304103 5.143383 4.802836 5.976549 4.960833 4.710405 4.171041 5.259838 6.189097 7.144160 6.333347 6.317798 5.299868 5.031052 4.796282 5.935633 6.599175 5.011453 4.478896 4.664099 5.438516 4.628087 4.437095 3.422942 4.670138 3.540101 4.545019 4.680913 5.237780 5.271540 3.795754 5.069551 4.638764 5.214558 5.926445 6.446429 6.735394 5.477914 4.907280 5.174918 5.515449 5.357326 5.947041 4.382132 4.809030 4.685104 5.156897 5.330244 5.447204 4.848785 3.923379 3.643267 5.134179 5.016897 5.028211 4.407311 4.506354 4.813625 4.631874 4.576463 5.790002 4.790300 4.381262 4.466916 4.502704 5.661760 5.050276 4.698151 4.204785 4.478726 5.053803 4.607507 4.499936 5.256038 4.259981 5.145201 4.032380 6.342351 4.499126 5.624678 6.592652 7.048319 6.386894 6.601761 4.092401 4.727887 6.790462 9.128538 7.155061 7.563787 6.108841 5.715213 6.087253 3.343213 2.266422 2.000160 1.642422 -0.518258 -0.134734 -1.558489 -0.901305 -1.263510 -1.094868 -0.708016 -1.252177 -1.647642 -0.428300 -0.664991 -0.919946 0.748340 -0.892506 0.430070 1.044296 0.510512 0.885829 -1.104132 -1.201127 -1.589624 0.026628 -0.160000 -0.892035 -0.632500 -1.647268 -1.478142 -1.975030 -1.203862 -1.963442 -1.553633 -2.180045 -2.098638 -1.189878 -2.106219 -0.506134 -0.506520 -1.446201 -1.663259 -1.635278 -0.909504 -0.818174 -0.363415 0.341651 -1.186823 0.058366 -0.647460 -0.771759 0.325296 -2.057644 -2.074305 -1.940256 -2.711817 -2.716977 -1.881877 -2.402974 -1.126051 -2.744109 -2.692568 -1.544074 -1.308207 -0.830376 -2.930341 -3.265075 -4.700158 -2.608923 -4.503068 -3.497253 -1.343563 -1.842883 -1.722320 -0.858794 1.138313 0.640864 0.052219 2.131977 1.906742 0.879887 -1.456388 0.378512 0.665034 1.076398 -1.195673 -0.543098 0.920796 0.517292 -0.507506 -1.116256 -0.171187 -0.377553 -1.973638 0.435394 -0.097815 0.001044 -2.534078 -0.587961 -1.289217 -0.632792 1.604711 4.509275 3.950224 5.596940 1.325742 2.394044 1.004175 -1.038362 -2.116686 -2.336039 -2.775570 -1.980253 -1.503661 -1.036140 5.277272 6.043829 5.002043 1.776139 0.193568 -0.122059 -0.263494 -0.148103 0.336636 -1.357483 -0.639406 -0.231307 2.167331 0.165537 -0.000592 0.090881 1.974447 1.770174 1.343150 1.225805 -0.690652 -2.315398 -0.683960 -0.441701 -0.142817 -1.753638 -3.394619 -3.017183 -1.708036 -3.432943 -3.301694 -3.535004 -3.760816 -4.053177 -4.244766 -4.798759 -6.556234 -5.617932 -1.497440 -0.137221 0.773914 2.759749 2.318628 2.007505 3.638164 4.111135 3.449130 4.677600 3.475613 4.071717 3.775903 3.406741 4.697273 2.925282 2.782323 4.282350 1.300287 3.857669 4.074321 3.111300 0.111015 -1.010570 -2.631975 -3.222964 -4.036532 -3.789108 -3.752093 -3.614098 -2.589505 -1.715800 -1.256089 -2.027324 -4.652797 -2.103259 0.199303 -0.478842 0.253597 -1.015289 -0.870635 0.193424 -0.956504 -0.757216 -1.930193 -2.529529 -3.051534 -2.722925 -0.756225 -0.578912 -0.216500 -1.168922 -2.691800 -1.895237 -1.899768 -2.305280 -1.641237 -1.800308 -2.163046 0.119944 -1.197015 -0.702815 0.992172 -0.011538 -0.819173 -0.870268 0.330259 0.028481 -0.462519 1.821645 0.631074 0.138792 1.463949 -0.826050 -1.489011 -1.826186 -3.142109 -4.350128 -4.437334 -3.488221 -5.272881 -5.707783 -5.680219 -2.285424 -0.967437 -1.021719 1.593308 2.099511 0.676561 -0.015586 0.681440 -1.290364 -3.406758 -1.853801 -1.565957 -1.649257 -0.852408 -1.484810 -1.429061 -1.626297 -2.160403 -2.971411 -2.184204 -2.653827 -3.648757 -1.975760 -1.069696 0.571882 2.073029 2.933992 3.413022 1.103592 1.026872 -0.011693 2.393204 2.061169 2.580779 1.989491 3.882167 2.051427 0.814652 1.998773 0.348134 2.500737 1.679679 2.101708 1.777252 0.062656 -0.274224 -1.608584 -1.499848 -1.382187 0.992801 -1.024040 -1.623242 -1.228186 -0.284715 -0.318016 -0.721660 -2.360916 -1.256464 0.401377 -0.482410 -0.252181 0.395875 -0.179132 -1.071249 -1.894031 -0.668210 -1.022931 -3.003068 -0.160333 -1.910499 -3.014458 -4.756281 -4.630826 -6.484452 -6.275888 -7.238713 -6.185151 -9.809613 -7.950308 -6.653075 -7.376441 -7.829826 -7.514510 -4.168077 -0.779605 -1.080160 1.012874 0.935594 3.136387 3.044168 4.886932 2.250680 1.643912 -0.361411 0.971845 3.679821 3.454611 2.969030 2.946697 2.868938 -0.692993 2.147473 2.063561 2.806902 2.205268 -2.176859 -0.044649 0.361697 1.623627 0.877490 1.332914 -3.199887 -1.182196 1.822716 0.345321 0.814905 -0.253549 0.481967 -0.006925 0.343163 -0.194914 0.115078 1.030116 -1.644964 -3.651696 -1.595853 -2.180108 -3.710518 -3.430924 -2.380715 -2.716891 -3.824986 -2.204476 -3.144398 -3.851704 -3.492790 -2.393887 -2.842626 -2.830018 -3.418721 -0.832766 -2.714251 0.605315 -0.231546 0.916392 0.914883 1.439516 0.262131 -1.266730 -2.741730 -1.208144 -2.276414 -1.152354 -0.811958 -0.758985 -0.571394 -2.244391 -3.739395 -3.804816 -3.832303 -2.519559 -3.455178 -3.205952 -2.650150 -1.582090 -1.549201 -1.229231 -0.229496 -0.693011 0.160097 -1.230278 -0.480283 -2.168365 -2.425025 -3.659772 -2.052835 -1.931883 -1.949169 -3.879413 -4.317312 -3.716438 -2.838732 -4.809104 -4.968757 -3.509427 -5.314931 -6.327913 -8.329324 -8.500524 -8.442779 -7.561241 -6.081022 -4.411965 -3.748444 -1.753622 -3.409542 -2.561914 -3.951384 -2.158372 -3.031326 -2.668195 -2.732708 -3.512221 -0.758538 -0.848864 0.257928 -2.772315 -2.288447 -2.432787 -5.857643 -7.227841 -6.293416 -7.478394 -8.766494 -7.997157 -7.275698 -8.331059 -7.823160 -8.172372 -7.581064 -9.148178 -8.514095 -6.975175 -7.432449 -6.961474 -5.942772 -5.437093 -3.239054 -4.177789 -2.048484 -2.747393 -1.556427 -3.326531 -5.953417 -5.373263 -5.444648 -4.307559 -6.530756 -6.003963 -5.784766 -4.306385 -1.850265 0.452480 1.136977 3.824855 4.568008 7.455817 8.191527 9.737484 11.113557 12.812291 11.932070 12.490167 12.981074 13.409822 12.855327 12.172350 13.396615 12.959764 12.190586 10.078414 10.476316 10.366948 9.530059 9.269781 9.508355 10.539898 11.572590 10.451687 9.797892 10.746881 8.967701 10.780538 12.104808 11.228403 9.910397 10.882162 10.448912 11.508236 12.841708 13.006836 12.408968 10.680722 11.484638 11.225849 11.716622 12.190967 10.554797 6.815316 3.282494 2.167825 2.113151 0.967822 -0.217150 0.558067 -1.295289 0.189655 0.618539 2.139086 1.876537 0.639573 -0.331316 0.146056 -0.455897 -0.129833 -0.583181 -0.716562 0.275078 -0.829719 0.215537 0.131163 1.297765 1.556842 0.423482 -0.985514 0.331544 0.103076 0.645889 -0.281073 -0.560124 -0.261015 0.601479 -0.920916 -1.872023 -1.363747 -1.064336 -2.652092 -2.179646 -2.617836 -2.682225 -2.298314 -3.630153 -3.266366 -1.364297 -2.802581 -3.418897 -2.479042 -2.722624 -2.315222 -1.498452 -1.846665 -1.345571 -3.260003 -4.100977 -3.960697 -2.748330 -2.535848 -2.171341 -1.087705 -0.431553 0.863837 0.326915 1.267143 -0.092543 0.123460 -0.665816 -0.111500 -0.331705 -1.667895 -1.965048 -1.301737 -2.843939 -5.149010 -7.590759 -8.180132 -6.328040 -6.184473 -4.586597 -3.719185 -3.230879 -3.671096 -4.667153 -3.744382 -3.747074 -3.404045 -3.783346 -5.394746 -5.133240 -4.236547 -3.673849 -3.927038 -3.323723 -3.161724 -1.856877 -0.914029 -0.970867 -2.691005 -1.570959 -1.203509 -0.581015 -2.567652 -3.702486 -3.274928 -4.513171 -3.281007 -4.107058 -2.451137 -3.360461 -4.544274 -5.438821 -4.182875 -2.684206 -2.796743 -4.670141 -3.070270 -1.754343 -2.531801 -3.363309 -4.105816 -3.987822 -4.897096 -3.300391 -5.879759 -4.807520 -3.795975 -4.837811 -4.620984 -3.937080 -3.634430 -5.875346 -3.689029 -3.307996 -3.118790 -3.215541 -3.442893 -4.448889 -4.972118 -3.928152 -4.992902 -2.903319 -1.917406 -2.021676 -2.164817 -3.443989 -3.278306 -3.409629 -2.697596 -1.889679 -1.423309 -2.978190 -3.876707 -4.361748 -5.580543 -6.256271 -8.106766 -8.491581 -9.107321 -7.838291 -7.928381 -6.314685 -6.737084 -6.240269 -6.600031 -5.531628 -5.807117 -1.002792 0.369084 -1.665854 -1.324531 0.228303 3.197358 3.117943 3.304984 3.057910 4.178129 2.478062 3.385838 1.514834 -0.823165 -0.248970 1.131697 -0.784594 0.243321 -0.934970 -3.086157 -3.315346 -0.291346 -0.295490 -1.301532 -0.626012 -1.792540 -3.417943 -3.938780 -3.922294 -3.922932 -4.410841 -4.738644 -4.787525 -2.723356 -2.306939 -2.275880 -1.555612 -0.725556 -0.373600 -1.685849 -1.348290 -1.551364 -0.287396 -0.622213 1.117874 2.049428 1.373005 1.138183 0.672051 0.231350 -0.279984 -0.193275 -2.170879 -5.194834 -3.879102 -4.831519 -7.725803 -8.123040 -7.999766 -7.596144 -9.190709 -8.167119 -7.463903 -8.876913 -7.316457 -5.489879 -6.565602 -6.697992 -4.733627 -3.975374 -4.548087 -3.753538 -5.407950 -7.293713 -4.836301 -4.846937 -3.288858 -2.919376 -1.865581 -3.786107 -2.040251 -4.717951 -4.186698 -5.170595 -6.370692 -6.063274 -4.898537 -5.188603 -3.557601 -3.363041 -3.823682 -3.353865 -5.566592 -6.378953 -6.350071 -6.775286 -8.332582 -8.676274 -10.737361 -10.302877 -11.399996 -9.819534 -11.268590 -10.837339 -10.680766 -10.389843 -10.602484 -8.759820 -8.920101 -9.527619 -9.662957 -8.745798 -7.796592 -8.847270 -6.599844 -4.659504 -4.595943 -4.296435 -3.705904 -2.875560 -4.276002 -6.723913 -6.662144 -7.564631 -7.744150 -9.232029 -9.735874 -10.632869 -10.728552 -10.219005 -11.049939 -10.571311 -12.042528 -10.119285 -12.166408 -9.834763 -8.039166 -3.957507 -0.616241 -3.687199 -4.571789 -5.562314 -6.163351 -4.591927 -5.479643 -8.041884 -5.243173 -2.499390 -2.563441 -1.960470 -2.621172 -2.745471 -3.008503 -3.969519 -5.417945 -6.028869 -3.825367 -1.936109 -2.373269 -0.378664 -0.260809 -3.749913 0.047208 4.258909 2.450615 2.337463 2.674682 4.417282 5.402772 2.842337 1.740673 0.275923 2.373129 4.295503 5.041248 6.038153 6.842764 7.822083 6.478068 8.246026 8.697133 6.013757 6.525349 7.484953 7.481449 5.131685 7.432254 7.252546 7.312400 7.535855 6.631908 6.182965 6.776803 6.145658 4.463161 4.695808 4.397661 4.061055 3.464087 1.166155 -2.333127 -2.728982 -3.075107 -3.152162 -4.248904 -4.768313 -4.779510 -3.765214 -2.946989 -4.129815 -4.142810 -3.357958 -1.700537 1.444454 -0.202016 -0.957178 -2.489120 -4.850055 -3.490605 -2.607232 -2.915782 -4.122372 0.759367 1.339453 2.972135 3.381763 3.516926 1.828380 0.297829 0.723244 0.057795 0.155807 -0.910569 -1.614695 0.741741 -1.040482 -0.942720 -0.159230 0.616456 0.713287 -0.679378 0.967838 1.222037 1.187615 1.603586 1.174050 1.470984 2.802446 3.579597 2.602385 1.706563 1.996294 3.016021 2.339199 4.299332 4.006128 2.715875 4.399337 4.243698 4.210948 3.682108 3.593031 1.911372 2.424795 0.814998 -0.202365 0.405547 -0.331368 -1.855489 -0.855799 -1.008700 -0.741112 -3.207287 -5.041829 -6.058165 -5.446460 -5.818096 -6.612294 -6.898254 -6.828058 -8.725581 -6.385505 -5.736744 -6.733725 -5.837904 -5.864534 -4.631445 -4.655524 -4.615220 -4.735077 -4.836162 -5.807784 -6.261807 -6.092387 -6.979048 -6.116313 -6.503516 -6.891847 -5.387298 -4.374058 -5.356945 -5.137804 -5.909446 -6.772252 -7.587375 -7.286477 -8.563674 -9.241351 -12.204120 -10.087380 -9.349814 -10.027516 -10.091384 -9.006835 -7.631093 -7.244199 -7.362878 -6.666713 -9.441536 -8.180141 -7.317104 -7.066933 -7.132699 -8.071247 -8.423423 -9.181589 -8.172332 -8.965690 -8.778036 -7.862319 -7.132256 -7.593152 -7.249708 -7.554200 -6.289193 -5.725686 -7.913334 -7.400017 -5.984696 -6.673946 -6.896110 -7.390294 -7.656785 -7.574945 -6.405231 -7.304367 -8.646819 -8.536844 -8.571337 -9.664485 -9.730637 -9.390791 -10.627237 -11.135372 -9.473862 -7.984220 -6.880767 -8.061518 -7.977849 -8.488939 -8.530210 -8.155000 -7.347052 -7.386261 -8.156592 -7.934807 -6.854570 -5.187067 -6.267769 -6.726733 -7.021838 -8.152198 -8.255598 -7.623940 -7.099132 -6.761711 -6.557558 -6.280183 -6.481279 -4.351287 -5.688686 -5.050052 -5.327808 -4.755119 -3.425769 -3.020545 -1.927764 -1.630914 -2.367095 -2.886603 -0.924539 -1.555418 -2.041038 -2.009581 -2.915765 -3.657299 -2.765828 -2.102869 -2.336505 -2.374841 -2.677544 -3.150320 -1.156432 -1.720772 -4.347881 -4.384476 -3.925022 -4.791071 -5.409255 -4.477011 -3.013883 -2.814413 -3.595385 -1.977997 -3.189423 -4.020844 -4.646073 -4.749648 -5.215668 -3.938837 -3.728885 -2.826897 -4.328136 -4.589119 -3.518614 -3.329620 -2.970700 -2.808414 -2.616400 -3.182374 -3.487139 -1.428818 -4.020874 -3.753151 -4.024134 -3.269772 -2.693548 -2.815440 -2.170264 -2.551857 -1.501449 -0.841656 -1.174825 -1.651168 -2.215729 -1.990461 -0.696603 -0.267623 -0.976906 -1.966205 -2.220232 -1.886759 -1.982904 -3.970887 -2.722253 -1.513615 -2.027209 -3.108052 -1.734204 -2.594601 -1.526393 -2.325984 -3.237323 -2.943661 -2.548338 -4.538461 -3.878045 -5.177530 -5.042258 -5.806796 -5.559920 -6.556787 -5.069508 -5.099958 -6.093059 -6.358737 -6.040522 -4.640199 -4.147603 -3.595201 -3.871956 -4.669661 -3.696953 -4.588869 -5.622399 -5.706392 -4.970005 -4.192418 -3.924272 -3.303828 -2.771226 -2.840229 -2.441296 -2.255277 -3.430225 -5.660993 -3.837064 -3.449621 -3.154834 -2.982458 -3.916391 -3.676052 -2.752522 -1.718949 -0.906309 -0.880268 -0.188905 0.359001 0.217547 -1.541984 -1.550956 -2.819556 -3.214516 -2.381884 -4.041804 -3.290898 -2.292732 -1.904742 -2.525679 -3.466342 -3.075608 -4.037477 -4.789500 -4.456900 -4.715577 -4.871107 -4.936329 -4.532226 -5.455920 -5.951157 -5.053006 -4.211118 -5.496423 -6.091920 -5.444605 -5.861247 -5.076100 -4.833764 -5.796793 -4.958217 -4.110430 -3.729318 -4.736714 -3.624364 -4.119141 -4.375942 -4.253998 -3.747540 -4.711454 -3.259605 -2.518602 -3.226559 -4.753215 -4.586450 -4.121045 -4.888443 -5.148905 -4.758160 -5.229547 -4.724380 -3.696689 -3.943419 -4.440684 -5.353473 -4.589299 -5.070191 -5.513500 -6.153336 -6.382012 -4.616938 -6.440389 -6.322720 -5.671181 -4.967307 -4.386337 -2.870545 -1.640433 -1.903900 -1.928947 -3.288936 -2.123202 -1.369380 -1.174545 -2.252814 -3.217538 -2.465071 -3.306074 -2.488714 -4.872752 -4.381894 -4.192197 -3.309627 -3.169315 -3.627872 -3.001477 -3.628824 -2.901031 -1.132786 -2.167291 -3.005862 -4.330597 -3.019662 -2.283201 -4.446540 -4.773854 -5.012390 -4.798699 -4.182902 -4.010303 -5.363399 -4.660340 -5.037057 -4.913948 -6.156726 -4.896852 -3.949879 -5.331312 -4.495171 -4.952529 -5.169834 -5.809496 -5.456877 -4.645786 -5.731022 -6.632961 -6.885308 -6.664278 -6.839147 -5.958874 -4.370808 -5.648214 -4.973974 -6.292029 -5.025099 -4.784556 -4.329896 -6.074556 -7.664948 -6.566080 -5.477026 -5.351223 -5.706646 -5.838588 -4.525203 -5.029346 -5.365249 -5.267119 -4.378105 -3.670926 -3.694849 -4.267953 -4.374082 -3.668194 -4.914347 -4.929494 -4.333872 -4.256857 -3.947005 -3.787752 -3.105229 -2.381373 -2.368008 -1.927763 -3.458937 -3.418311 -3.569425 -4.401615 -3.982531 -2.034029 -1.601222 -0.948583 -0.103001 0.050112 0.150601 0.041739 0.416082 0.482803 0.443848 1.198313 1.673185 0.181702 1.226945 -0.369628 -1.066007 -0.833781 -0.606570 -0.200163 -0.980605 -1.384022 -1.132973 -1.382027 -0.927065 0.189280 -0.547290 -0.483759 -1.134341 -0.818822 -0.573293 -1.302829 -0.975542 -1.911696 -2.541894 -1.998418 -2.807086 -1.802271 -2.673767 -2.730733 -2.555899 -1.674077 -1.903834 -3.201310 -2.358788 -2.601233 -3.338932 -3.068114 -2.873816 -1.443992 -1.041929 -1.965188 -2.910204 -3.780319 -3.832481 -4.592939 -3.916323 -4.707121 -4.131122 -4.626792 -2.885542 -2.055204 -2.866484 -2.979990 -2.644644 -1.821878 -2.377574 -3.510499 -2.628672 -4.422452 -2.376565 -2.392236 -1.918761 -2.262477 -1.909306 -1.679340 -3.124047 -4.096574 -4.332904 -4.123820 -4.291977 -4.168178 -3.905249 -2.910673 -2.999237 -3.639921 -3.719786 -3.688893 -4.043831 -3.228246 -2.717242 -2.545045 -2.565341 -3.663678 -3.821045 -4.136597 -4.382120 -4.446472 -5.172068 -5.123066 -4.430303 -3.627496 -4.826823 -4.969921 -5.533326 -6.047187 -5.748360 -6.007907 -5.409764 -5.780127 -6.156631 -5.675972 -6.320575 -6.769848 -6.623057 -5.781913 -6.515027 -6.825671 -6.247837 -5.953474 -5.632386 -6.337818 -5.840667 -5.500237 -5.993923 -6.344829 -5.340431 -5.181104 -5.824160 -6.410426 -6.481068 -5.742118 -6.290754 -6.695585 -6.238942 -7.046443 -6.603598 -6.235969 -5.820667 -5.678846 -5.986613 -5.866219 -5.800219 -6.157879 -5.514574 -5.185375 -5.530411 -6.123917 -6.343161 -5.379280 -5.655127 -5.331489 -5.816187 -5.748904 -6.713690 -5.430847 -5.409137 -5.685283 -5.477463 -4.711697 -4.644070 -4.583297 -3.915637 -3.878079 -3.977929 -4.799001 -4.698106 -4.452418 -5.057305 -5.186782 -4.986335 -4.021763 -4.160502 -4.875649 -4.887988 -4.743782 -5.038841 -5.847555 -5.371511 -6.512331 -6.544520 -5.323160 -5.487981 -5.078242 -5.131247 -4.793581 -4.996611 -5.707826 -4.695208 -6.430665 -6.821858 -6.996853 -6.069234 -5.225899 -4.998152 -5.061701 -5.208692 -4.819547 -3.995406 -4.709851 -4.958415 -4.726161 -4.601230 -4.723397 -3.985188 -3.656485 -4.078492 -4.429293 -3.467271 -3.182530 -2.670565 -3.368437 -4.002883 -3.481630 -3.184111 -2.839973 -3.258367 -2.932704 -3.428517 -3.125802 -3.369883 -2.558269 -2.898089 -1.805388 -2.893243 -3.927399 -4.109614 -3.125457 -3.451971 -4.418448 -4.457354 -3.963588 -3.789575 -4.006633 -4.041411 -5.150083 -5.561530 -5.568121 -5.547772 -5.572481 -5.615434 -6.266482 -5.706571 -4.769077 -4.747136 -3.580570 -4.197150 -4.416762 -4.223140 -4.728508 -4.116785 -5.914443 -6.134085 -7.275967 -5.985571 -6.764810 -6.342910 -5.956537 -6.557881 -6.522363 -6.308645 -5.553573 -5.863628 -5.853873 -5.805145 -4.728088 -5.113245 -5.291537 -4.661585 -3.107782 -2.855630 -3.192080 -3.727851 -3.876653 -3.349558 -3.330544 -4.017781 -3.719638 -2.899901 -3.569072 -3.491823 -3.074925 -2.678016 -3.607590 -3.561494 -3.478500 -2.903351 -4.606378 -3.770051 -3.567238 -1.993921 -1.905437 -2.339550 -2.917669 -3.442859 -2.066515 -2.466019 -3.245312 -3.325457 -3.779582 -4.025010 -3.881986 -4.939150 -3.789043 -4.255643 -4.482109 -4.529664 -3.662968 -3.927622 -4.185040 -4.285799 -4.636364 -4.223026 -3.466648 -2.893338 -3.767573 -3.058136 -2.374886 -1.464997 -0.650220 -1.103719 -2.129595 -1.813356 -1.393205 -1.813719 -2.256519 -1.691355 -1.890681 -2.367528 -2.298002 -3.054394 -2.823063 -3.993145 -3.225674 -2.652871 -1.839948 -1.841401 -3.162781 -2.411592 -2.063236 -1.325637 -2.675261 -2.660158 -2.036240 -2.320171 -2.347388 -2.766595 -3.999506 -3.179532 -3.220190 -2.336400 -2.311063 -1.314218 -1.610424 -2.878311 -2.954473 -2.328544 -2.290178 -3.041928 -4.406530 -4.250774 -3.628631 -3.923248 -4.263129 -4.987128 -3.470518 -4.523957 -5.124802 -4.017774 -4.030941 -4.264968 -4.643007 -3.464525 -3.421869 -3.494763 -3.080875 -2.522786 -3.522798 -3.909010 -3.750030 -3.009121 -3.290738 -4.045830 -3.298504 -3.295762 -2.420877 -2.874732 -2.835404 -3.702153 -2.391392 -1.424039 -2.636244 -3.525182 -2.309871 -1.122233 -1.350446 -2.140603 -1.581253 -0.737431 -0.848537 -1.366450 -1.313866 -1.400673 -2.393554 -1.462257 -2.340607 -2.399275 -2.042348 -1.918652 -2.678254 -3.340739 -2.692016 -1.704459 -1.882918 -2.192406 -1.447611 -1.659379 -0.993320 -2.117013 -2.508177 -2.709457 -2.709974 -2.489262 -3.563968 -3.297574 -4.349672 -3.342950 -3.718497 -4.036387 -3.601519 -3.382293 -3.594929 -3.873837 -3.443741 -2.465484 -2.833465 -3.288361 -2.781810 -3.780534 -3.933227 -3.183272 -3.561667 -3.523325 -5.478975 -5.616862 -5.535220 -4.315264 -4.457701 -4.072519 -4.017556 -3.526515 -2.853105 -3.993360 -4.198419 -3.864842 -3.941153 -3.774854 -4.640307 -4.716610 -4.974415 -5.103405 -4.103428 -3.894262 -4.261037 -3.900934 -3.909527 -4.206307 -5.134758 -4.037945 -2.409200 -3.131032 -3.680860 -3.226724 -2.157437 -2.465132 -2.073637 -2.318422 -2.440334 -1.986130 -1.796601 -2.186358 -2.946726 -2.781721 -3.317433 -3.306215 -3.903967 -3.906563 -3.678647 -3.429379 -2.723175 -2.913875 -2.581078 -2.955641 -2.822026 -1.317229 -1.884355 -1.864845 -2.329609 -1.830701 -1.220865 -1.673973 -0.965954 -1.723061 -2.318272 -2.515387 -2.778892 -2.251883 -2.509324 -3.969670 -3.505547 -3.357593 -2.452900 -3.048091 -3.494014 -2.883684 -2.784668 -2.783518 -2.487242 -1.669246 -2.072620 -1.371630 -2.320916 -2.130704 -3.326765 -2.568884 -1.764750 -1.787233 -2.122825 -3.375719 -1.970555 -2.070027 -2.215749 -1.615640 -1.948067 -1.927315 -2.098472 -1.158441 -1.760144 -2.779356 -2.756349 -2.040977 -1.064488 -1.396050 -1.168885 -1.302678 -1.938567 -1.593771 -0.752076 -0.856521 -0.425406 -0.564007 -0.529325 -0.641335 -0.698418 -0.691644 0.774224 1.249844 0.570004 2.079491 2.770962 2.626575 0.467230 0.128975 -0.366048 -1.095934 -2.149517 -1.191443 -0.602495 -0.083530 -0.697100 -1.116528 -0.059706 -0.303180 -1.759279 -2.195575 -2.112896 -1.600974 -1.647997 -1.317421 -1.931661 -1.151540 -0.735224 -0.556613 -0.724034 -0.606053 -0.083435 -1.384735 -1.845327 -2.406934 -1.509180 -2.295610 -1.865516 -0.872258 0.094609 0.752510 -0.541507 -0.149514 0.116929 -0.340801 -1.666152 -2.875261 -2.015522 -1.889146 -0.913109 -0.176851 0.232506 1.463872 1.169122 1.582567 3.468727 4.417021 4.147414 4.258017 5.122103 5.933337 5.919004 5.193149 5.071427 4.719941 5.414026 5.722220 6.165427 5.975521 6.463800 7.303546 6.882981 6.725251 6.602338 6.249687 5.373511 5.872096 5.658740 5.557935 5.066954 5.062986 5.068437 4.513880 3.713111 1.846963 0.339801 -0.085782 -0.972048 -1.792297 -3.319613 -4.063455 -4.181393 -3.784804 -3.215722 -2.662111 -2.981631 -4.024905 -4.697183 -3.341611 -3.870050 -3.567434 -3.793355 -3.564167 -3.393231 -2.756568 -3.341961 -3.366131 -3.138646 -3.700210 -2.593725 -1.850621 -1.292519 -1.317820 -0.592451 -0.225037 0.088412 -0.210326 -0.929956 -1.189535 -2.519994 -2.907542 -3.571734 -3.984507 -4.231915 -4.518329 -4.144186 -3.158996 -2.666521 -3.249325 -3.110282 -2.773209 -2.880575 -3.292679 -2.375449 -1.723706 -2.307827 -2.561473 -2.464035 -2.057044 -3.257439 -2.709202 -3.223627 -3.846362 -3.699678 -2.815088 -2.867695 -3.953974 -3.314213 -3.685454 -3.386455 -3.439912 -2.550641 -2.270879 -1.878616 -1.441186 -1.136228 -1.857428 -1.857040 -2.381398 -3.032705 -3.963800 -4.232013 -3.997679 -4.852622 -4.299547 -4.675194 -3.907321 -3.591798 -2.680707 -2.579882 -2.958495 -2.718094 -2.304759 -3.547164 -4.001458 -3.315682 -2.645682 -1.566807 -1.847110 -1.321993 -1.005272 -0.789196 -0.430025 -0.377422 -0.768706 -0.492932 -0.261131 0.844617 1.115963 1.065229 1.379378 1.428152 1.169567 0.421116 0.912236 0.716980 0.727885 -0.244844 -0.326264 -0.385846 -1.125116 -2.017495 -2.364962 -1.141102 -1.688210 -1.602309 -1.474003 -1.833636 -1.471045 -1.705943 -1.202243 -1.607559 -1.684679 -0.988556 -2.420559 -1.865043 -0.749599 -1.421863 -2.399192 -2.443324 -1.888602 -1.908876 -1.689308 -1.903586 -1.509096 -1.348201 -1.552474 -1.067954 -1.671586 -1.229246 -2.153677 -2.230610 -1.741699 -1.162199 -1.380821 -2.325727 -1.694849 -1.446619 -1.811096 -2.076704 -1.634317 -1.179694 -1.505539 -1.619460 -0.939526 -0.792728 -1.433601 -1.343908 -1.641156 -1.198234 -0.965328 -1.515662 -0.963006 -1.294955 -0.854789 -1.540608 -1.326178 -1.027757 -1.587163 -1.662962 -1.736543 -1.211135 -0.886128 -0.641467 -0.337489 -0.757777 -0.942939 -0.808559 -0.421312 -0.305664 -1.786790 -2.326288 -1.992208 -1.636318 -1.587633 -1.441686 -1.620051 -1.828168 -1.776371 -0.646313 -0.424283 -0.811636 -0.271539 -0.190428 -0.148207 0.032889 -0.126783 0.013556 -0.184459 -0.791560 0.392952 0.229100 0.617412 0.138362 -0.639125 -0.640618 -1.445822 -0.807008 -0.466191 -0.487844 -0.367058 -1.078110 -0.424463 0.085547 0.636116 -0.316917 -0.687636 -0.727799 -1.140599 -1.991884 -1.919334 -0.613036 -0.228871 0.173869 -0.520923 0.317699 0.148852 0.174408 0.234100 -0.564427 -0.237395 -0.334728 0.563985 -0.274421 -1.228084 -1.294320 -0.664190 -1.533663 -2.338990 -2.285146 -2.098969 -2.037110 -2.328079 -2.820871 -2.787416 -3.086224 -2.766148 -2.101487 -2.724703 -2.096141 -2.980414 -2.292101 -1.563800 -2.281379 -2.972310 -4.035364 -3.395760 -2.789163 -3.144183 -3.783812 -3.295792 -3.337689 -3.485264 -3.739733 -3.141889 -3.875690 -3.050890 -2.631390 -2.652631 -2.586110 -2.239887 -1.128440 -1.103150 -2.556892 -2.414232 -2.025131 -1.683905 -1.578288 -1.639898 -1.607262 -2.150021 -1.448078 -0.937586 -1.667801 -2.173919 -2.476327 -1.743747 -1.361478 -1.877388 -1.230565 -0.710550 -0.891422 -0.303036 -0.906606 -0.424453 -0.284788 0.157524 0.826871 0.264734 0.282886 0.736820 0.598350 0.055408 -0.550080 -0.220243 0.060260 -0.610210 -1.273055 -1.154475 -0.369403 -0.406599 0.253162 0.193563 -0.627263 -1.286484 -1.236544 -0.389057 0.230281 0.338067 0.608823 -0.079746 -0.362479 -0.455674 0.030682 0.062070 0.599218 0.398572 1.033032 1.988819 1.735803 1.706518 0.694104 0.660745 1.323195 1.994972 1.726609 1.601569 1.497217 1.365884 1.275653 0.484832 0.613024 0.228476 0.053171 0.023352 0.334838 0.757042 0.560140 0.831725 0.153924 -0.133535 -0.167593 -0.493900 0.544907 0.394514 0.009313 -0.154748 -0.166856 -0.164777 0.286755 -0.688640 -0.706779 -0.991322 -1.216491 -0.165165 -0.465529 0.860212 0.155856 0.433453 0.572604 0.891721 0.882864 0.001987 0.709384 0.129334 -0.430013 0.408526 0.545281 0.547558 0.219922 -0.426183 -0.889135 -0.843148 -0.280074 -0.594539 -0.958286 -0.873809 -0.629537 0.854780 0.472372 0.596527 0.327523 0.858416 0.891456 -0.037291 0.026253 1.334747 1.636951 0.836916 1.014650 1.560163 2.396128 1.277244 0.825075 1.210047 2.020358 1.107063 0.394844 0.916257 1.578681 1.217628 0.845380 0.835000 2.082034 2.696672 2.143950 2.109211 1.087722 2.059782 1.835035 2.037690 1.780692 1.809535 2.114411 1.929307 2.315739 2.555830 3.037277 2.465568 1.982778 1.468846 1.232728 0.130278 0.142133 -0.850946 -0.578363 -0.734561 -0.381094 -0.763529 -0.471313 0.723234 0.629975 0.885541 0.948484 1.814569 1.251075 0.493971 0.125617 0.899232 -0.576180 -1.343452 -0.129988 0.623846 0.206748 -0.548212 -0.117294 0.931452 0.955964 0.480988 0.439153 0.057991 0.227336 -0.161772 -0.068661 0.558954 1.116459 0.406448 -0.545140 -1.286821 -0.736265 -0.412214 -0.299840 -1.193124 -1.866059 -1.208673 -1.560437 -1.023754 -0.784785 -1.238825 -2.094706 -2.369999 -1.482380 -1.887963 -2.146877 -1.873515 -1.724497 -2.597235 -2.855505 -1.775782 -1.150821 -1.550309 -2.477538 -1.649448 -1.701296 -1.253097 -0.502508 -0.705675 -0.289981 -0.930998 -0.927378 -0.555229 -1.052428 -1.172283 -1.285533 -1.043548 -1.148372 -1.962474 -2.139070 -1.855452 -0.665969 -0.150443 -0.160560 -0.572945 -0.849701 -0.438683 -0.492738 -1.773841 -1.810779 -1.445946 -1.385317 -1.392857 -2.335398 -1.353619 -1.337267 -1.336762 -0.883775 -0.609507 -0.018283 -0.054806 -0.385905 0.456755 0.618235 -0.513512 0.049254 0.775662 1.086563 0.195010 0.178360 0.203091 0.287594 0.059245 0.794201 0.443223 0.632103 1.404637 1.368651 1.930365 1.307300 1.978907 2.079098 1.744316 1.429418 1.333139 2.181515 2.800994 2.024697 2.496912 2.999172 2.734065 2.851745 2.503303 3.086258 2.261598 1.011491 1.011439 0.456770 0.807212 -0.446065 -0.464737 -0.891131 -0.926072 -0.702966 -0.941620 -0.952760 -1.156470 -1.319599 -1.969199 -1.930563 -2.008977 -2.895769 -3.599621 -3.766176 -3.897040 -4.202075 -3.589579 -3.583485 -3.193713 -2.772473 -3.521922 -3.113649 -2.044006 -1.308056 -1.217034 -2.019897 -2.082739 -1.381469 -0.983920 -0.030641 -0.755358 -2.391483 -3.355384 -3.508712 -3.228071 -3.071714 -3.449785 -4.277311 -5.025707 -5.243944 -4.537821 -4.667987 -5.321938 -4.895614 -4.912308 -4.819931 -4.895385 -4.839342 -4.679358 -4.955085 -4.600541 -4.646472 -5.015705 -3.760610 -4.553329 -4.495695 -3.698575 -2.962577 -1.771491 -3.216594 -2.838096 -2.859045 -2.870612 -2.641303 -3.435675 -3.535709 -3.803383 -3.240029 -2.870589 -4.184264 -4.070181 -3.026237 -2.874354 -3.212519 -3.760737 -3.257411 -3.296296 -3.439462 -3.824105 -3.524889 -2.962647 -3.119739 -3.652947 -3.679651 -3.371333 -4.105042 -3.521322 -3.753590 -4.424031 -3.939246 -3.992881 -3.109293 -3.776703 -3.756175 -3.478164 -4.539299 -4.707763 -4.402914 -4.197919 -5.176561 -5.628532 -4.614691 -3.818668 -4.361990 -4.735930 -4.584523 -4.595093 -5.455650 -4.933099 -4.385525 -5.142447 -4.802161 -4.134380 -4.452028 -4.106086 -3.443502 -2.785338 -2.994358 -3.528337 -3.226868 -2.858296 -3.796631 -3.886807 -3.997653 -3.742858 -4.383341 -4.740204 -3.749167 -3.631208 -3.933044 -5.021996 -5.676419 -5.294247 -4.391832 -3.645622 -3.941831 -3.956294 -3.787703 -3.383016 -3.541648 -4.703516 -4.447918 -3.388882 -3.862182 -4.143797 -4.196140 -3.858732 -3.681941 -3.222360 -2.888796 -3.483730 -3.010937 -2.795353 -2.752146 -3.227137 -3.193141 -3.194816 -3.759206 -4.058659 -4.236050 -5.069010 -4.323170 -3.920409 -3.560500 -3.386781 -3.418133 -3.656121 -4.372273 -4.974576 -4.920518 -4.155931 -3.998297 -3.555092 -3.443019 -3.351986 -3.306748 -4.136467 -4.275755 -3.977993 -3.687503 -3.779414 -4.278827 -3.397954 -2.976077 -3.268998 -3.757032 -2.640483 -2.293810 -3.087721 -2.518946 -2.934231 -2.803890 -2.586464 -2.885909 -2.868112 -3.501489 -2.611928 -2.498052 -2.859020 -2.262968 -1.329511 -0.542806 -0.198048 0.894847 0.926822 -0.070869 -0.616252 -0.152110 -0.284165 -0.930876 -1.449584 -2.119472 -1.690936 0.512031 1.102554 0.306964 0.515059 0.815323 0.234788 -0.112574 0.744994 0.171158 0.598994 0.211871 0.007048 0.112880 0.499362 0.180562 -0.928334 -0.333830 -0.340785 -0.193161 -0.079758 1.165160 1.397402 0.858548 -0.673099 -1.749633 -2.196254 -2.146794 -3.022614 -3.740279 -3.087700 -3.298553 -2.922065 -2.566169 -2.254898 -2.915429 -2.724514 -2.067354 -2.280498 -2.056133 -1.688445 -1.353221 -1.289009 -0.903301 -0.524105 -0.167577 -0.149965 -0.936021 -1.692000 -1.278358 -1.258155 -1.704580 -1.686527 -1.074427 0.108379 -0.011240 -0.434885 -0.184855 -0.353801 -0.797540 -1.228321 -2.152487 -2.357276 -2.087084 -1.186353 -1.022581 -0.435449 -1.213423 -0.785349 -0.947919 -0.949910 -0.798941 -1.484435 -2.143273 -1.467645 -1.197682 -1.876453 -2.100072 -1.959813 -1.808468 -1.896401 -2.626446 -2.423599 -1.514699 -0.759238 -2.140298 -1.942273 -1.574500 -0.705042 -0.764078 -1.750229 -1.846642 -1.683833 -1.745587 -1.302546 -1.632935 -2.607403 -1.953942 -1.014849 -0.648798 -1.113466 -1.662133 -2.280460 -1.849643 -2.077989 -1.686254 -2.271777 -2.661623 -2.352905 -1.403177 -1.384171 -2.471949 -2.759917 -2.766660 -1.834190 -2.349914 -2.783334 -2.035936 -1.349413 -1.891828 -1.724314 -0.836074 -0.554431 -1.087881 -1.482081 -1.072714 -0.305493 -0.555055 -0.979176 -1.062708 -0.703091 -0.675099 -1.922682 -1.923131 -1.203826 -0.359766 -0.867509 -0.674948 -0.025249 -0.040320 -0.347213 -0.113575 -0.164095 -0.847747 -1.041033 -0.852627 -1.017422 -0.940939 -0.641558 -1.052968 -1.239112 -1.479800 -1.294358 -1.016959 -1.278451 -1.623556 -0.909570 -0.603420 -0.529412 -0.916400 -0.354960 0.016804 -0.173189 -0.601918 -0.252438 -0.056173 0.160129 0.295770 0.277918 0.087184 -0.677170 -1.442330 -0.597610 -0.652639 -1.515168 -1.203201 -0.405793 -0.618951 -0.347617 0.203084 0.220811 0.758032 0.509432 0.121227 0.110003 0.295402 0.289202 0.011302 -0.260280 -0.398149 0.280462 -0.113293 -0.107170 -1.026005 -0.333435 -0.143210 -0.097249 -0.508344 -0.126941 0.125772 -0.451895 -0.794093 -0.916878 -0.205290 -0.094401 -0.081171 -0.082772 0.130411 -0.430790 -0.924265 -0.166658 0.011150 -0.749346 -1.347977 -1.239740 -1.955956 -2.391598 -2.198761 -1.255093 -1.391033 -2.024718 -1.588600 -1.272600 -1.385584 -2.044672 -2.017700 -2.800891 -2.491450 -2.081413 -2.123740 -2.048720 -2.226110 -2.025034 -2.290085 -2.442818 -2.546297 -1.637589 -2.488948 -2.903285 -3.092044 -3.116355 -3.843262 -3.941796 -3.648779 -2.572234 -2.078315 -1.737284 -0.498191 0.656639 0.241214 -0.548446 0.347743 0.257593 -0.106393 -0.741068 -0.312612 -0.605527 -0.178522 -0.841358 -0.823900 -0.663700 -0.656424 -0.333452 -0.706125 -0.850162 -0.603959 -0.223207 -0.497783 -0.905128 -1.652861 -2.028832 -0.996955 -1.042039 -2.280633 -1.838043 -1.609529 -1.410263 -1.441855 -0.600918 -1.046881 -0.822187 -0.460128 -0.540466 -0.912780 -0.283522 -0.131875 -0.658652 -0.699343 -0.205901 -0.338854 -0.348181 -0.929561 -0.930013 -1.290584 -1.197520 -1.832048 -0.862561 -1.600590 -2.505238 -2.397845 -1.078443 -1.890666 -1.265289 -1.089875 -1.575241 -2.016103 -0.780925 -1.010025 -0.441226 0.522391 0.658963 0.226400 0.880967 0.612799 0.610542 0.937398 0.534196 0.242608 0.469781 -0.649866 -1.876101 -2.397893 -2.557354 -3.554570 -4.012210 -4.204782 -3.931558 -4.134695 -4.234993 -4.172666 -4.483685 -4.024343 -4.276899 -3.364148 -2.653843 -2.384975 -2.656092 -3.209903 -3.268192 -3.584024 -3.462886 -3.807141 -2.314973 -2.189674 -2.382340 -2.165870 -2.610666 -3.254969 -3.975035 -3.628029 -3.242766 -3.007075 -3.249613 -3.104234 -2.590002 -2.801339 -3.374039 -3.835913 -3.340420 -2.922458 -2.666055 -2.928586 -2.307163 -2.104323 -2.704158 -3.269128 -3.992733 -3.969180 -3.361567 -3.584732 -3.504467 -3.110670 -2.791706 -3.306640 -3.426081 -4.661536 -4.414986 -3.878613 -3.909651 -4.546814 -3.918173 -2.974189 -2.902676 -2.877214 -3.236357 -3.024882 -3.525088 -3.686611 -4.113121 -3.731589 -3.418268 -3.342513 -2.731764 -2.006349 -2.973510 -2.741582 -1.837266 -1.746002 -2.215872 -3.169309 -3.289967 -2.383331 -2.471029 -2.487587 -1.768290 -2.827357 -2.820823 -1.592958 -1.315565 -2.232504 -2.002706 -0.675026 0.838724 0.179555 0.069979 0.698229 0.669653 -0.524727 -0.456065 0.178999 -0.302534 -0.321742 -0.314709 -0.154435 -0.417166 -0.306721 -0.094322 0.119281 -0.924049 0.515838 0.508818 0.421442 -0.055509 -0.502266 0.022939 0.189653 -0.014099 -1.077845 -0.989260 -0.573238 -0.442400 -1.444670 -0.274256 -0.821360 -1.411475 -1.367711 -1.510136 -1.023189 -1.550517 -2.235203 -1.746391 -1.031718 -1.284440 -0.939810 -0.715922 -0.796964 -1.508102 -1.233397 -1.085564 -1.176947 -0.613696 -0.392051 -0.323864 -0.131687 1.002505 1.180016 0.819065 -0.023290 1.413873 0.400851 0.653833 -0.214129 0.471602 -0.139814 -0.674070 0.238904 0.646425 -0.347916 -0.123032 -0.001126 -0.097659 -0.746930 -1.335679 -1.130264 -0.302392 -0.426870 0.239187 -0.572080 0.720210 1.098829 1.072015 0.544390 1.209942 1.003115 0.877486 0.133356 0.811243 0.713937 -0.386582 -0.711843 0.554018 0.019615 -0.375686 -0.351410 0.495958 -0.256986 -0.294699 -0.073936 -0.175269 -0.197883 0.142117 0.609395 0.635011 0.510755 0.649147 1.957041 1.152979 0.756621 1.001566 1.039941 0.763170 -0.350259 0.263170 0.593957 -0.263581 -0.090009 0.713542 0.088216 0.250249 1.360929 0.712064 0.638429 0.766971 0.143517 0.366414 0.337811 