0.128338 -0.446592 -0.452638 -0.458663 -0.180235 -0.037975 -0.027485 0.232733 0.669215 0.086763 0.656367 -0.117202 -0.051788 -0.016064 -0.000711 0.261571 0.214754 1.018288 0.393170 -0.518420 -0.216230 -0.690467 1.195270 -0.687176 1.117065 0.464557 -0.450745 -0.589430 -0.520739 0.938217 0.268602 0.286943 0.011514 0.368920 0.149056 0.437127 0.327049 -0.271227 -0.684096 -0.107956 -0.120682 0.183118 -0.120201 -0.007091 0.553675 0.058008 0.048342 0.098214 -1.057075 0.439933 0.816901 -0.073394 0.881265 -0.145433 0.166098 -0.753733 0.446337 -0.664230 0.517074 -0.268355 1.057768 0.325724 -0.787948 -0.481867 0.288322 -0.270989 0.142515 0.205951 0.138527 0.627248 -0.419380 0.052670 0.613921 -0.199929 -0.402033 0.139266 0.607896 -0.243327 0.241225 -0.648873 -0.411032 -0.048486 -0.316545 0.900558 -0.807470 -0.178082 0.129363 0.330307 -0.761582 -0.332908 -0.268317 0.592891 1.421601 -0.461773 -0.177422 0.199456 -0.265290 1.152557 -0.025092 -0.497398 -0.840728 0.614885 0.461727 0.659201 0.532121 -0.105835 0.480862 0.012051 -0.815953 -1.023909 0.253109 -0.538605 0.824037 0.000008 0.963760 0.264181 0.009412 0.247700 -0.616249 -0.408114 0.617341 0.671978 0.157826 0.266847 -0.624748 -0.400872 0.002606 -1.410766 0.864993 0.519478 -0.497348 0.313766 1.173936 -0.277068 0.214242 -0.316343 0.657793 -0.250139 -1.142070 0.185797 0.659290 -0.818988 0.776536 0.818952 -0.661762 0.218376 -0.061340 0.180518 0.377209 0.928374 -0.574867 -0.199731 -0.979256 -0.598737 -0.174655 -0.059251 -0.046859 0.040757 -0.548247 -0.065429 -0.659891 0.152790 -0.263003 0.438108 -0.655191 0.522341 0.197800 0.413476 -0.360442 -0.121474 -0.171126 -0.144677 0.145740 0.384263 0.217251 0.999404 -0.546139 -1.405037 0.557114 0.165238 0.300245 0.020631 -0.434677 -0.371247 0.856574 0.690672 0.189373 0.815040 0.217027 -0.192162 1.044314 0.058954 -0.194366 -0.305923 0.143368 -0.592506 -0.842621 0.094219 1.434235 0.799948 -0.206391 0.350416 1.029801 -0.636185 0.311094 -0.284376 0.415779 -0.665418 -0.229522 0.106354 0.382824 -0.365936 -0.071239 -0.309576 0.643925 0.622759 0.757766 -0.589071 0.071613 0.818405 -0.693887 -0.055600 0.387910 -0.367693 -0.240426 -0.017314 0.814644 0.466007 0.127098 -0.108045 0.272501 -0.194015 0.773179 -0.057846 -0.197654 -0.651137 0.506821 0.747403 -0.034524 -0.159295 0.030298 0.511353 -0.886742 0.168625 0.121127 -0.213414 0.138034 -0.076233 -0.078657 0.535808 -0.792020 0.976300 -0.268609 0.165449 -0.486835 -0.164723 0.027704 0.351644 -0.384095 0.442704 -0.028687 0.252139 -1.001597 0.347048 0.654603 -0.470169 0.342100 1.173282 -0.535189 -0.267652 0.806847 0.087460 -0.556465 0.142224 0.071221 0.231935 -0.101834 0.323932 -0.667696 -0.074603 0.476744 0.275192 -0.391053 0.491118 0.547076 -0.005527 0.919859 -1.065375 -0.021114 0.520151 -0.282257 0.094072 0.553621 -0.280652 -0.157768 -0.009629 -0.038489 -0.038766 0.338405 -0.065368 0.292041 1.053852 -0.781945 0.772992 -0.926433 0.035326 0.501886 0.123771 0.888371 -0.411679 -0.196166 0.154659 0.088491 -0.293865 -0.860895 0.377454 -0.433759 0.590709 0.387601 0.349327 -0.086209 -1.080785 -0.411229 0.531897 0.222717 -0.940410 0.213918 -1.089310 -1.335140 -0.285894 0.926287 -0.750020 0.288333 0.776766 0.333346 -0.173403 0.035356 0.232178 -0.809382 -1.044178 0.500370 -0.132060 -0.703178 0.247743 -0.163217 0.885992 -0.921713 0.983987 -0.106429 0.240603 -0.807335 -0.049405 -0.232782 0.131846 -0.271712 0.486878 1.080427 -0.516161 -0.799201 -0.139623 0.597388 -0.676865 0.331587 -0.037587 -0.070618 0.155523 0.145128 0.315873 -0.345524 -0.739907 0.103342 -0.316302 0.883680 -0.303422 0.504142 -0.586924 -0.026256 -1.009566 0.026055 -0.402638 -0.205557 0.398715 -0.018408 -0.914680 -0.486805 0.197997 -0.916866 0.038958 -0.813841 0.031810 1.013666 -0.291337 0.395370 -0.817246 0.301186 -0.018364 0.557187 -0.309924 -0.899615 -1.167129 -0.782641 -0.117003 0.673003 -0.474665 -0.478544 -0.018146 -0.484485 0.674453 -0.777864 -0.434023 0.235183 0.294375 -0.874547 0.445487 0.441110 0.109529 0.026999 -0.776423 0.583616 0.178768 -0.255249 -0.130049 -0.034575 -0.199415 0.673366 -0.515275 -0.283923 0.098018 -1.185260 -0.228290 0.681542 0.813988 0.704022 -1.142716 -0.898214 -0.385372 0.380938 -0.239196 0.012890 0.036173 -0.334802 -0.035843 -0.354213 0.597838 -0.018672 -0.559728 -0.044662 -0.359498 0.215397 0.927279 -0.320100 -0.130409 -0.316339 0.573033 -0.689424 -0.573372 0.802387 -0.480879 1.096785 -0.748198 0.536323 0.182097 -0.121676 0.128096 0.488168 -0.363104 -0.714006 -0.071837 0.152144 -0.268847 -0.644302 -0.573588 -0.394680 0.237284 0.651431 -0.444772 0.997362 -0.022404 -1.155069 1.633946 -0.267975 0.107220 1.039432 0.124326 -1.460047 -0.051635 -0.426898 0.464394 0.553805 -1.505689 1.221048 -0.526875 -0.071942 0.515994 -0.113668 -0.476514 0.432312 -0.394826 1.451879 -0.316369 0.545555 -0.261054 0.232631 0.265305 -0.601349 -0.318323 1.003488 -0.388415 0.687102 -0.082126 -0.272197 -0.211848 -0.064406 -0.707743 0.225505 0.378846 -0.100386 0.269359 0.777548 0.093201 -0.195927 -1.166750 -0.081196 -1.061240 0.509340 0.487153 0.338155 -0.652589 1.199573 0.488143 0.545288 -0.180425 -1.071206 -0.094893 -0.447147 -0.622445 -0.034215 0.310824 0.083965 -0.200617 0.509681 0.226453 0.965907 0.546018 0.130495 -0.723061 0.524595 -0.135249 0.505384 -0.238098 0.024704 -0.021460 0.016725 0.259247 0.777218 -0.675493 0.041520 0.036892 0.266730 0.392305 0.359362 -0.597481 -0.226849 -1.002810 1.690351 -0.335441 -0.550834 -0.175418 0.519516 1.171928 0.745182 -1.947627 -1.126682 0.111013 0.603977 -0.885194 0.420918 -0.311343 -0.526533 1.610712 0.007708 0.082727 -1.237836 0.245464 -0.450647 0.333669 0.151048 0.501146 -0.059358 0.026605 1.108097 -0.579407 -0.523176 0.042644 0.224436 0.838638 -1.164613 0.364737 0.396798 -0.148808 -0.393546 -0.914237 -0.010007 0.707917 -0.812847 0.795063 0.442165 -0.931312 0.074127 0.053075 -0.112290 -0.357036 0.183339 0.582150 -0.002846 0.047820 0.357908 -0.405959 -0.514951 0.302457 0.092517 0.879233 -0.897747 -0.060180 0.462501 -1.525918 -0.244821 -0.976224 0.528184 0.399018 0.330582 0.192155 0.490422 -0.101042 0.810409 -1.000917 -0.156945 0.135394 0.029539 -0.611566 -0.188635 -0.440200 0.272709 0.081563 0.369651 -0.357275 -0.412585 -0.276066 0.642504 0.247492 -0.364730 -0.107744 -0.363576 0.846253 0.084803 -0.150673 -0.593183 0.561068 -1.012940 -0.211803 1.269166 -0.244889 0.466417 -0.223597 -0.116061 -0.183876 -0.363720 0.309462 -0.138935 -0.644615 0.227363 0.341348 -1.328893 1.059433 0.467374 -0.377047 -0.444192 0.140120 -0.122990 -0.400906 0.660485 0.018962 0.570519 -0.843136 -0.374118 -0.309116 0.339749 0.059796 0.103868 0.064669 -0.252612 -0.181119 0.721797 0.037393 0.336101 0.220489 0.143436 0.606328 -0.224479 0.211591 -1.007194 -0.201217 0.649885 0.307956 0.180441 0.247529 -0.691314 0.199001 -0.222145 -0.401548 -0.484298 0.081038 0.809297 0.975938 -0.558750 -0.126153 0.227398 -0.255075 -0.160889 0.289202 1.003506 0.796406 -0.330318 -0.024368 -0.265429 -0.182915 0.167038 -0.425349 -1.309582 1.080163 0.153059 0.360037 -1.134799 0.719277 0.187613 0.668770 0.358151 -0.210428 -0.100853 -0.323416 0.637331 0.574671 -0.199765 0.560936 0.051168 -0.272417 0.159330 -1.020290 0.603315 0.253769 -0.130841 -0.043179 -0.490143 0.526324 -0.645297 -0.008673 -0.036440 0.277436 0.339085 -0.053523 -0.869706 -0.144708 0.392831 -0.472360 0.345489 0.766448 -1.068328 -1.090730 0.282772 0.520747 0.704282 -0.403114 -0.088429 -0.114742 0.135643 -2.024865 0.177676 0.485035 0.412423 0.156801 -0.332808 -0.220188 -1.055997 -1.178269 1.278531 0.201478 0.379084 -0.312049 1.048797 -0.233071 0.209759 -1.352081 -0.052616 0.357868 -0.160686 1.020091 -0.290005 0.174315 0.041227 0.318278 0.070878 0.383834 -0.098832 -0.297637 0.701666 0.315766 0.462064 -0.276093 -0.324343 0.096997 0.026341 0.283424 1.039294 0.274377 -0.625090 0.080478 -0.539426 -0.011260 -0.298559 0.199659 0.077276 -0.761088 0.792555 -0.783328 -0.059236 -0.624258 0.593212 -0.407849 1.306714 0.019956 -0.152747 0.792156 -0.432794 -0.506551 0.086052 0.033684 1.381608 0.697536 -0.104063 0.355525 0.521497 0.507866 0.309065 -0.571547 0.678174 0.044430 -0.205805 0.256546 0.786580 -1.042938 -1.782854 -1.081201 -0.357258 -0.355168 -1.031940 0.410503 0.122235 0.002157 -0.874548 1.050273 -0.210611 -0.669444 0.526364 0.234158 0.001389 -0.543152 -0.217222 0.083301 -0.315174 0.379722 -0.974266 0.396899 -0.484553 0.892001 0.593334 -0.206253 0.190615 0.413881 0.407108 -0.391841 -0.392710 -0.199130 0.135549 -0.571583 0.038952 -0.857545 -0.419941 -0.292952 -0.187597 0.958773 0.713197 0.925683 -0.933825 -0.614860 -0.082737 -0.432514 0.547877 0.270787 -0.702179 1.113876 -0.081849 -0.062018 0.272610 -0.673132 -0.093798 -0.907717 -1.305042 0.724868 -0.053038 0.188927 0.677862 0.648620 -1.461836 0.532225 -0.134580 -0.424887 0.599066 -0.527743 -0.015759 -0.603252 -0.295354 0.019725 -0.309978 0.071688 -0.564511 -0.584504 0.489182 0.127098 0.559002 -0.311898 -0.110457 -0.132329 0.164972 0.261938 -0.459202 0.351444 0.392194 -1.571423 0.693701 0.224397 0.306413 -0.186332 0.309335 0.615465 -1.161871 -0.227441 -0.729055 -0.139119 0.361367 -0.129496 1.045337 -0.099704 -0.578179 0.852064 0.625410 0.230095 0.461276 0.290671 -0.441580 0.395556 0.169097 -0.198615 -0.629614 -0.519481 0.840499 0.596803 0.028668 0.119072 -0.151367 0.476803 -0.089402 -0.266790 -0.659857 0.583351 0.470437 -0.040194 -0.229205 -0.020847 0.243260 0.088752 0.360686 -0.644126 0.338921 0.692822 -0.810423 0.255997 0.155019 0.062049 0.296368 -0.064790 -0.008488 0.305061 -0.414609 0.405881 0.477873 0.246728 -0.130192 0.606666 -0.864241 -0.048498 -0.325738 0.150432 -0.558157 -0.177938 -0.399666 0.381004 0.389222 0.768905 -0.483753 -0.118782 0.213934 0.347527 -0.448592 -0.121862 -0.053744 -0.051951 0.512980 -0.045073 -0.267792 -0.378898 0.114168 -0.303238 0.430317 0.457224 -0.055707 0.005043 0.324749 -0.445809 -0.186385 0.203742 0.068487 0.013887 -0.524432 0.359446 0.679168 0.007032 0.052254 0.095873 -0.522505 -0.520814 0.334884 0.380540 -0.130051 -0.564777 0.653083 -0.061161 0.258955 0.131135 -0.446940 -0.486092 -0.206379 0.425635 -0.153710 0.535056 0.244313 -0.990691 -0.127987 0.200647 0.867135 -0.232061 0.014783 0.312246 0.136385 -0.538186 -0.465980 0.358490 0.376215 -0.706404 0.607923 -0.316595 -0.425148 -0.493605 0.363325 0.337943 -0.143440 -0.602983 0.901116 0.018019 0.287431 1.275773 -1.114669 -0.423584 -0.749485 0.771535 -0.403016 -0.390682 0.102119 1.177862 0.687957 -0.503239 -0.116961 -0.885932 -1.289148 0.212322 -0.006995 -0.941001 0.441870 0.715690 -0.070663 -1.463660 -0.289185 -0.551252 -0.668798 -0.411464 0.050701 0.453775 0.953561 0.358231 -0.126262 -1.191094 0.024358 -0.438372 -0.297833 -0.231784 0.436602 0.063623 0.554741 0.757065 0.310395 -1.297650 0.057906 -0.933275 -0.209371 -1.361111 -0.013745 0.663970 -0.648188 0.230586 -0.482536 0.022676 1.007763 0.386026 0.695826 -0.230637 0.235929 0.612993 0.821034 -0.523055 0.457311 0.493955 1.350254 -0.289619 -0.510053 -0.706040 0.587850 -0.430409 0.436579 -0.062872 -0.220077 0.195243 0.416379 -0.116464 0.870493 0.705449 -0.203166 0.591996 -0.220116 0.818565 -1.048672 0.277039 -1.021372 0.229590 0.306040 -0.363073 0.152067 -0.696364 0.306307 -0.190881 -0.605773 0.600163 -0.013323 0.271156 0.712399 -0.774807 0.287640 -0.991606 0.739107 -0.347117 -0.084924 0.224858 0.430796 0.129100 0.671350 -0.545811 0.678480 -0.861922 -0.030723 -0.341212 0.160534 0.273347 -0.145154 0.223009 -0.464910 -0.195041 1.020474 0.097556 -0.245701 -1.747138 -0.113606 0.946297 -0.585164 -0.255457 0.236767 1.178128 0.668161 1.177160 0.264354 -0.365766 0.752064 0.890492 -0.200519 -3.110444 0.550394 -0.471045 0.554530 -0.666529 -0.432995 2.041001 -1.190912 -1.306592 0.105255 -0.885265 0.051444 0.572466 -0.656778 -0.850667 0.797006 -0.080233 0.179604 0.655165 0.553743 0.197588 -0.444133 -0.439690 0.077953 -0.316139 0.690822 -1.731047 0.757644 0.503897 0.435644 0.158385 -0.405213 0.110812 -0.838823 -0.647247 -0.312412 -0.191214 0.686816 -0.054431 0.832688 -0.534161 -1.324637 0.859379 0.229421 -0.278055 0.770818 -0.542900 0.031821 -0.303277 -0.441766 0.031813 -0.036537 -0.937792 -0.407538 0.890388 -1.199975 1.761896 0.338871 -0.723567 -0.576367 -0.517932 -0.092009 1.269082 3.558008 1.690712 0.592633 0.203751 0.488894 0.474305 0.259402 -0.630465 0.734603 0.346872 -0.065091 0.094182 -0.405748 0.471439 -1.181689 -0.943191 -0.351160 -0.730581 0.230371 0.662005 0.276611 -0.403836 -0.074912 -0.307245 0.145547 -0.523989 -0.181447 0.486255 0.177710 -0.209123 0.254832 0.115712 -0.526006 -0.469161 0.100761 -0.009152 -0.312364 -0.109915 0.234624 -0.510446 0.077232 -0.558961 1.179058 0.969141 0.418029 0.242256 -0.367948 0.441312 -0.121561 0.262246 -1.010465 0.799423 0.269297 -0.154496 -0.021315 0.340019 0.398694 -0.103000 0.017230 -0.243314 -0.366884 0.703420 -0.022735 -0.265717 -0.632305 0.045077 0.521262 0.177349 -1.045372 0.484810 -0.437051 0.925318 0.043889 -0.220218 0.201730 -0.488909 -0.228391 0.167769 -0.255174 -0.696999 -0.286804 0.390871 -0.212093 0.176777 -0.232914 0.168000 0.863389 -0.256671 0.766341 -0.267339 -0.085865 -0.625688 0.608368 -0.686072 0.028187 -0.874114 0.496470 0.104026 0.602911 0.221314 0.129740 -0.518061 0.377532 0.106088 -0.530813 -0.482409 0.371221 0.936915 -0.785358 -0.528054 0.075912 -0.034481 -0.353639 -0.129493 -0.357627 -0.749987 -1.195088 -0.822775 -1.018771 -1.384517 -0.681547 -0.154369 0.614713 -0.183638 -0.419951 -0.259919 0.330642 -0.606684 -0.050366 -1.284312 0.800210 -0.472862 0.283812 -0.315896 -0.487461 -0.636639 -0.102122 0.053766 -0.984780 0.061680 -0.151930 -0.798235 0.381795 -1.157595 1.099548 -1.499484 -0.390428 -0.672184 0.407444 0.447811 0.331714 0.282082 0.288609 0.826929 -0.095667 0.171350 1.955788 0.640962 2.516783 1.285872 -0.241319 -2.279440 -1.100937 1.657441 -0.144325 0.505410 1.135256 -0.386767 -0.435558 0.149270 0.562024 0.714922 0.594759 1.151678 -0.351259 -0.321737 -0.092507 -0.611517 0.583629 -0.645819 -0.209202 0.192183 0.354297 0.099049 1.511426 0.028215 0.398378 -0.060550 0.054541 0.300389 -0.119676 0.000304 0.335744 0.448628 -0.070842 -0.506343 0.727946 -0.570917 -0.728314 0.616062 0.517661 0.768297 -0.464175 -0.318657 0.482346 -0.382835 -0.118554 0.009910 0.041190 -0.261373 0.236935 0.392694 -0.387550 0.196336 -0.740236 -0.253392 0.445195 -0.119384 -0.603535 0.963775 0.351615 -0.131729 -0.263682 -0.315316 0.420773 0.707016 -1.128414 0.794962 0.018036 -0.546487 0.367915 0.753261 -0.587051 -0.719008 -0.226639 0.150442 0.839735 0.041663 -0.189358 0.268908 0.397567 0.419899 -0.081796 -0.243845 0.224720 0.084698 -0.245760 -0.344376 0.176761 0.044123 0.869075 -0.510555 0.454285 0.179172 0.390009 -0.143171 -0.254708 -0.366241 -0.415329 1.519260 0.820167 0.105030 0.166761 -0.385436 1.002495 0.085680 0.120729 0.401147 -0.314086 0.208736 0.131090 0.391670 -0.093131 -1.068887 0.232038 0.363720 0.134400 0.096514 0.716664 0.029046 -0.476325 -0.381577 -0.383935 0.127481 -0.241380 -0.051688 0.575723 -0.038380 -0.538089 0.997439 -0.757757 0.619554 0.244944 -0.394649 0.152857 -0.439617 -0.152955 -0.058552 0.003695 -0.002658 -1.102799 -0.380506 0.101839 0.266161 0.342958 -0.112443 -0.285412 -0.662493 0.025932 -0.054616 -0.619482 0.326469 -0.474507 0.368129 0.657985 -0.318113 -0.962188 -0.039807 -0.091329 -0.407838 0.096817 0.581658 -0.971530 0.214973 0.599988 -0.117265 -0.075993 0.857884 0.564771 0.490075 0.235014 0.722068 0.285429 -0.121698 0.013977 -0.232691 0.211760 -0.483028 0.715618 -0.592237 -0.439400 -0.724013 0.600231 -0.151230 -0.600827 -0.196788 -0.350166 0.096652 -0.005071 -0.573453 0.068020 0.851756 -0.300728 0.482340 0.206871 1.811196 -0.490691 0.826284 0.924621 -0.129734 -0.556837 0.784256 -0.545989 0.423925 0.498110 -0.002722 0.064739 -0.425573 -0.372806 0.466973 0.202586 -0.154323 0.892686 0.405273 -1.183479 -0.028558 0.604294 -0.639339 -0.459167 0.207923 0.373009 0.426314 -0.327909 0.270166 -0.991193 -0.017192 0.259090 0.971531 -1.053462 0.046351 -0.246045 -0.357284 0.976189 0.389427 0.201091 -0.118583 0.056323 0.320524 -0.131792 -0.274689 -0.041831 -0.270127 0.770326 -0.563120 0.445986 -0.386541 -0.354277 -0.140693 -0.308013 0.151967 0.340166 -0.426170 0.737112 -0.576038 0.411508 0.702839 0.018412 0.331080 -0.080881 0.027584 0.032824 -0.224914 0.234085 -0.454262 0.451117 0.170362 0.686794 0.287054 -0.637735 0.135574 -0.200876 -0.051666 -0.284467 -0.894094 -0.589167 0.338208 -1.351383 -0.191292 0.171250 0.018401 0.241468 0.687329 -0.602246 0.678532 0.237190 -0.175254 -0.045816 -0.253741 -0.101580 0.238922 -0.767180 -0.256480 0.175123 -0.256649 -0.399880 -0.987748 0.190148 -0.027524 0.223904 0.046182 -0.250917 -0.394333 -0.451434 0.064677 -0.051433 0.221215 0.044376 -0.277754 -0.121953 0.205416 -0.834026 0.246156 -0.262657 0.432123 -0.772202 0.306632 0.308579 0.074055 -0.870074 0.277647 0.578888 -0.145332 -0.638094 0.075312 -0.045472 0.475864 -1.023301 -0.064534 0.177982 0.276005 0.011992 0.294856 0.358289 0.956877 -1.384147 0.134605 0.267264 0.327032 -0.526259 -0.130534 0.195895 -0.266350 0.716186 0.792156 -0.850717 -0.257531 0.192308 0.288877 -0.246828 -0.341675 0.156555 0.297093 -0.218694 0.493676 -0.400299 0.437384 -0.732317 0.334101 0.052028 -0.260034 0.447535 0.445653 -0.134513 0.548148 0.500916 0.485188 1.065033 1.590715 -0.481735 -0.553911 1.050068 -0.173122 -0.005298 -0.180798 -0.232890 0.514240 -0.049257 0.345711 0.481272 -0.296972 -0.014533 -0.206023 -0.009609 -0.539276 -0.404279 0.166781 0.355904 0.144376 0.118347 -0.452701 0.184131 -0.490866 -0.422710 0.422604 -0.699627 0.339351 0.116759 -0.781850 -0.556106 0.381319 -0.501905 0.369304 -0.171553 0.243251 -0.234754 -0.055857 -0.621044 0.916602 -0.601472 0.381097 0.099044 -0.219196 -0.115788 -0.595911 0.612800 0.717232 -0.043249 0.296120 0.437080 0.445038 -0.118659 0.304808 -0.153396 -0.304529 0.471669 -0.968885 0.538222 -0.128164 -0.590843 0.338462 0.410419 -0.744607 -0.520360 0.388956 0.633519 -0.399376 0.188535 -0.207041 0.204029 0.024176 -0.266833 -0.391152 -0.144947 0.184499 0.866410 -0.295113 -0.062607 0.553707 0.467727 -0.423867 -0.095810 -0.305652 -0.690469 0.290595 0.336921 -0.483679 -0.450310 0.127462 0.836629 -0.056229 0.289039 -0.168893 -0.320031 0.428676 -0.158893 -0.063736 0.538869 -0.384547 -0.414103 0.992295 -0.828461 0.575775 -0.392454 -0.669116 -0.287713 0.171685 -0.025471 -0.043493 0.536306 -0.981308 0.229069 0.299781 -0.215855 0.158675 -0.232789 -0.392313 -0.183755 -0.395803 0.079331 -0.616476 0.308102 -0.272660 0.428650 0.341511 0.093961 -0.295868 -0.682918 -0.288441 2.366463 -0.725139 1.215986 -0.439934 1.074094 -1.430745 2.454391 2.443150 -5.310133 -1.089750 0.725921 1.192724 0.479310 0.853936 -0.239906 0.249164 1.784862 1.481012 0.582439 -0.784253 -0.388402 -0.089614 -0.016074 1.146350 1.018270 -1.242438 -0.278644 -0.044730 0.565297 -2.088634 -1.742485 -0.931963 0.138923 0.725599 0.191761 0.062611 0.299678 -0.206977 -0.958189 0.775342 -0.106709 -0.074376 -0.350595 1.008045 0.260468 -0.188254 0.505617 1.594966 -0.043347 -0.504946 0.452241 -8.084704 2.377351 2.054717 5.080423 0.817824 2.410139 0.383780 0.070986 0.709938 1.795616 -0.412126 0.121405 -0.337993 1.458986 0.287238 0.598378 -3.294388 1.421325 1.553302 0.587287 -0.445265 -1.007546 -1.641269 -0.218011 -0.388794 -0.686412 -0.201499 -0.062479 0.813108 -0.024722 0.334156 0.709741 1.125185 0.991914 0.445712 0.854529 -0.169187 -1.065385 -0.544154 0.975329 0.588758 0.275125 0.506525 -0.007354 -0.196642 1.720683 -0.230544 0.361478 -0.041577 0.386809 0.759077 -0.774413 0.446667 -0.916858 0.633344 -0.346040 -0.591872 0.419420 -0.112538 0.560803 0.802729 0.057068 -1.019447 0.042661 0.292298 -0.193296 0.265130 -1.000945 0.849551 1.105425 -0.453971 0.228439 0.430871 -0.685495 0.102759 0.056918 0.031137 0.027884 -0.805873 0.323935 1.784748 1.150008 -0.938389 -0.709604 -0.471530 -0.765645 1.698539 0.517931 -0.039179 0.655830 0.277754 -1.289857 -0.065612 0.250868 -0.518370 -0.158119 -0.327013 1.007190 0.000537 0.604078 -0.917603 -1.955813 0.468726 0.297190 0.851149 0.251146 -0.732548 -1.373712 0.641215 1.196081 0.020955 0.598292 -0.070084 -0.878218 0.540726 0.106654 0.274674 0.068371 0.025011 -0.302816 0.163692 0.005374 -0.316612 0.149662 -0.566446 -0.227579 -0.428067 0.357723 -0.263994 0.429011 -0.784765 0.555565 -0.201496 0.447086 0.354885 -1.053038 0.189270 0.544244 0.090264 -0.300166 -0.400076 -0.192654 0.132907 0.242034 -0.269125 -0.983408 0.757516 -0.445076 0.076454 -0.335179 -0.451374 0.325769 0.576773 -0.460131 -0.181808 0.448502 0.913887 -1.183382 -0.653472 0.575673 -0.209709 -0.418009 0.394782 0.906987 -0.338193 -0.386127 -0.143775 -0.388989 0.380248 -0.509558 0.658356 1.002447 -0.553154 0.988122 -1.119709 -0.329041 -0.715958 0.584168 0.388265 -0.458146 0.144096 0.304910 0.636413 -0.656538 0.111283 -0.268603 0.471877 1.546882 -1.488597 0.192685 0.045414 -0.844981 -0.548772 0.946142 -0.039541 0.574915 -0.082526 -0.839777 1.457896 0.147172 0.388835 -1.239092 0.535509 0.711464 -0.031742 -0.225646 -0.858250 0.616768 0.466037 0.186188 -0.446994 -0.073737 0.854987 -1.414695 0.201870 0.062361 0.035971 -0.539234 -0.124842 0.530153 0.736071 -0.305102 0.263505 0.125785 0.657436 -1.167917 0.584976 0.768692 -1.125257 0.027221 -0.232966 -0.316362 0.500399 0.191592 0.971821 -0.487814 -0.316826 0.824174 -0.256641 0.305277 -0.672234 0.467920 -0.369442 0.271487 0.439146 0.515426 -0.871931 -0.417166 0.516138 -0.345721 0.561538 -0.027295 0.958642 -1.314727 0.887350 0.054834 0.145507 -0.127314 0.664919 0.027267 0.153553 0.182554 -2.078507 -4.189482 4.463975 -1.051833 -0.180789 -1.443506 -1.175351 1.308322 1.210571 0.663686 0.266326 -0.099942 0.631053 -1.152570 0.909021 -2.242523 -0.267022 0.756944 -0.320329 0.779869 -0.014069 0.633832 -0.905541 0.682950 1.652100 -2.291554 -1.959079 -1.944759 -0.593077 1.108531 -2.346949 -2.433911 1.424064 -2.065088 -1.322239 0.796367 0.027091 0.362575 -0.089869 0.969762 -2.441163 -0.512343 -0.354833 0.023343 -0.784835 0.464920 3.631781 2.881906 1.934458 1.760218 0.670852 0.384979 -1.401357 -0.753449 -3.490825 -1.700520 -0.503300 -0.436877 -0.207189 0.154280 -0.593592 0.338819 -0.837385 0.849533 0.148625 -0.845073 -0.297500 -0.417837 0.965889 -0.660957 -0.220800 -0.132529 -0.359321 0.405770 0.053755 -0.027563 -0.340149 -0.696428 0.615499 -0.163870 0.774905 0.738046 0.491994 0.426464 -0.414066 -0.067836 0.017691 0.050126 0.616031 -0.924336 0.079620 0.331565 -0.428663 -0.374181 0.490501 0.447109 -0.128117 0.000329 -0.527615 -0.672969 0.118075 0.044786 -0.263327 -0.642279 0.388869 -0.190055 -0.625803 -0.197123 -0.645995 -0.496392 0.375717 -0.521251 -0.201430 0.725397 0.431428 0.642240 0.146228 -0.814029 0.053626 -0.565068 -0.733838 -0.814995 1.152581 1.111702 0.562618 0.134111 -0.794228 0.090714 0.319935 -0.459282 0.448079 0.418355 0.430475 0.426070 -0.400838 0.514216 0.192661 0.125171 0.090915 -0.183012 0.873431 0.594829 -0.596137 0.208509 0.150608 -0.140990 0.040784 0.669583 -0.295606 -0.270131 0.578235 -0.030694 0.649892 -0.591674 0.233868 0.995056 -0.469083 -0.313648 0.289938 0.188738 -0.143255 0.334713 0.186110 0.434143 0.213638 -0.685550 -0.085934 0.069519 -0.172278 0.594280 0.240399 0.438936 -0.365798 -1.137638 0.619716 0.240823 0.424113 0.450059 0.493343 0.218619 -1.549906 -0.046959 -1.369373 -0.308589 -0.375240 -1.505310 -0.447994 -0.173143 -0.386378 0.086057 0.507537 -1.929054 -0.039712 1.007222 0.764899 0.384617 -0.533080 0.090658 0.537397 -0.750870 -0.251679 -0.127928 -0.081939 1.044723 -0.344440 -0.128531 -0.657526 0.076205 -0.894913 0.560360 -0.216360 -0.674845 0.584947 0.374797 -1.091105 -0.079247 -0.095827 0.484902 0.044828 -0.045036 0.206649 0.290516 -1.105254 0.226990 -0.570906 -0.191216 0.717266 -0.714783 0.319021 0.009460 -0.601669 0.338688 0.317513 -0.526893 -0.482967 -0.184072 0.182924 -0.299836 0.425661 -0.522595 0.382663 0.031596 -0.595457 0.633499 0.119764 0.286389 -0.258301 -0.372270 0.151877 -0.554751 0.106638 -0.019638 -0.032621 0.512993 -0.180524 -0.356694 0.153776 -0.264856 -0.096015 -0.349797 -0.121115 0.777219 0.171421 -0.264668 -0.958304 1.147157 -0.865321 -1.088134 0.205584 0.308293 0.037242 0.230145 0.296733 -0.525525 0.107572 -0.012782 -0.310605 0.156727 0.287250 0.330478 0.337353 -0.786163 0.625165 -0.713101 -0.758535 0.030810 0.548261 -1.030230 1.096815 1.362575 0.075515 -1.151606 1.095711 0.571068 -0.381762 -0.400443 0.464144 -0.424981 0.189863 -1.384829 -0.642237 -1.626661 0.968555 0.188387 -0.275044 -1.025741 -0.636588 0.606385 0.083038 0.220008 -0.338671 0.395463 -0.263954 -0.134878 -0.122595 0.468895 0.339424 1.165719 -0.889927 -0.558033 -1.920785 -0.532484 -0.212771 -0.402336 -0.224309 -0.191727 0.110618 -0.102020 -0.441468 0.600473 0.317341 0.264051 -0.055122 -0.683905 0.294898 0.272229 -0.564773 -1.103227 0.174910 0.243235 -0.018278 -0.415415 -0.506716 0.330185 0.271456 -0.308782 0.083587 0.768594 0.978052 -0.389445 0.386271 1.741540 0.744773 -1.238509 -0.647769 -0.723533 0.421222 0.098386 0.013655 -0.892734 -1.117855 0.231319 0.027095 -0.325760 -0.182338 0.161138 0.542366 0.352492 0.019806 -0.063089 0.499523 -0.190422 0.480688 -0.203326 0.497320 0.379043 -0.188470 0.778500 -0.935320 -0.239032 -0.944121 -0.804363 -1.108840 -0.051576 1.053182 -0.643674 -0.273010 0.098170 -0.598623 -0.250874 0.400116 -0.539985 -0.244063 -0.463449 0.075326 -0.941959 0.777712 0.937855 0.446669 -0.004975 1.330420 2.290832 -4.814982 -0.760034 -0.566295 1.070170 1.009772 -1.538294 3.168882 0.754935 -0.365918 1.792599 1.055421 0.342235 -0.746050 -0.406486 -1.435475 -0.007715 -0.234042 0.558131 0.725210 0.209614 -1.066920 0.300404 0.390264 0.151065 0.055019 -0.257962 0.243808 -0.192736 0.261722 -0.482877 0.462339 -0.147513 0.835743 -0.622255 0.424877 0.122454 0.635050 -0.097264 -0.283994 -0.047829 0.307990 -0.168645 0.548566 0.162131 -0.210125 -0.032980 0.589029 -0.092330 0.291016 0.098534 0.065920 -0.230714 -0.023784 0.315762 -0.448079 0.765101 -0.061555 0.020821 0.593067 0.192097 0.377321 -0.151110 -1.411878 -0.039771 -0.248615 -0.015289 0.284693 0.357103 0.095542 0.021216 -0.276362 0.507388 -0.420860 0.187284 -0.516986 -0.691326 0.958697 0.822627 0.504367 0.963742 -0.596286 -0.691334 0.136986 0.381123 0.717837 -0.074477 -0.563303 0.167781 0.094243 0.645378 -1.224893 0.276551 0.098703 0.364115 0.392520 0.969105 -0.857614 0.658864 -0.081832 0.619707 0.198268 -0.181140 0.856954 -0.568515 -0.075436 0.314087 -0.123988 0.598336 0.202453 -0.170059 -0.563867 0.482267 -0.091664 -1.100072 0.599946 -0.371814 -0.041123 0.558972 0.445631 -1.289862 -0.334080 -1.213755 -0.563903 -1.862782 0.056929 -2.323608 0.169280 -0.383376 0.914651 0.617394 -0.313224 -0.841154 0.746534 2.061326 1.557029 -0.028265 -0.154356 -0.398724 -2.959018 0.901355 2.487635 0.943152 0.683198 -0.516307 -0.423239 -0.380873 -0.064711 0.287054 -0.205984 -0.348404 0.458909 0.687311 -0.108550 0.514111 -0.164518 -0.587700 -0.437179 -0.375364 0.778823 -0.083512 -1.451165 -0.701712 -0.185875 0.251509 0.014741 -0.066091 -0.372539 0.131705 -0.305858 -0.412330 0.108780 -0.593106 0.075557 -0.912436 -1.997112 -0.321742 0.412387 -0.259116 0.620041 -0.008391 -0.978186 -0.403818 0.064631 3.905283 0.029535 0.460521 0.509932 -4.963678 4.411080 -5.715182 -4.467925 1.407655 -0.739900 -2.596906 -1.633176 -0.113040 -0.286218 -0.137132 -0.717764 -0.832807 1.128105 0.491444 1.200860 -1.215815 -0.613679 -0.741240 3.847479 -0.986888 -0.493883 -0.447629 -0.263144 -1.070487 -1.034029 -0.744597 0.756865 -0.307386 0.256392 -0.487083 0.505941 -0.383483 -0.592742 0.197657 -1.294692 0.332841 -0.430467 -0.309253 -0.310422 -0.023928 -0.224139 -0.569132 0.479580 0.464257 0.758836 1.672771 -0.070159 0.952691 -0.198891 0.432951 2.021717 0.165810 0.582034 0.671862 -0.085449 -2.529436 -0.312405 -0.594652 0.485429 -1.595035 1.833682 -0.448231 0.435953 -0.536676 0.399621 -0.490588 0.425449 -0.212388 -0.642412 1.232245 -1.429844 0.202417 -1.140175 -0.863744 -0.821834 -1.115929 -2.054024 -1.477531 -0.500942 -0.566832 -0.638297 -0.136447 2.259140 1.722029 -0.125825 -1.726251 -0.060272 -0.141832 -0.432673 0.581558 -0.315349 -0.515926 0.272398 0.770545 0.339717 0.215743 -0.659193 0.861481 -1.018718 0.803800 -1.610343 0.376733 -1.709305 -0.504100 -0.522145 0.888043 0.077281 -1.006729 -0.428346 0.304499 -0.627854 0.252809 -0.976856 0.169250 -0.134234 -0.484014 0.553501 -0.620530 0.248312 -0.412614 0.588490 -0.596037 -0.307970 -0.240226 0.361444 0.221242 0.461009 1.089510 0.687819 -0.811227 0.550842 -0.224715 0.473494 -0.515140 0.108387 -0.871325 0.606430 0.956045 0.755079 -0.444110 0.983647 -1.480061 -0.053924 -0.574390 1.018746 0.529447 -0.179776 0.790251 -0.100977 -0.566159 0.454462 0.423332 -0.425315 -0.360973 -0.911221 0.967556 0.543950 0.147214 -0.817742 -0.465868 0.213978 -0.196495 0.540454 -0.160462 -1.171130 0.299325 1.214885 0.297944 -0.511916 0.429164 -0.449627 0.217366 -0.214147 0.540448 -0.704835 -0.432790 1.051187 -0.870495 0.664519 0.428475 0.116158 0.036882 0.015703 0.034700 0.038674 -0.531339 -0.381247 0.788836 -0.647173 -0.426567 0.745520 -0.389142 0.195992 0.591462 -0.434654 -0.103240 -0.033669 0.001303 0.002067 0.275763 0.057071 -0.562174 0.146982 0.317238 0.360587 -0.496355 -0.125701 0.540950 0.420276 0.099958 -0.834319 0.103137 -1.374321 0.845028 -0.657461 -0.154658 0.223308 0.592734 0.119421 -0.572768 -0.151999 -0.610221 0.429145 0.936199 0.194292 -0.262184 0.205754 -0.228057 0.540187 0.421850 -1.023065 -0.208613 0.258688 0.094839 0.327413 -0.208230 -0.317403 -0.621442 0.164290 -0.514225 -0.394131 0.187069 0.312102 1.477057 1.727837 0.656826 -0.128668 0.014612 -0.473185 0.292191 -0.680299 0.513921 -0.364178 -0.285515 0.296653 -0.437510 0.539096 1.308660 0.913662 0.543052 0.748401 -0.023870 -0.168472 -0.474174 0.887937 -0.513631 0.868194 0.025958 0.693197 0.281199 -0.102366 -0.171001 -0.758813 -0.028011 0.408553 0.490682 -0.360399 0.855292 -0.004129 -0.186518 -0.228375 0.323653 -0.391233 0.856219 0.555046 -0.083229 0.349469 -0.413003 0.013438 0.388683 -0.104148 0.642188 -0.061567 -0.209229 0.613625 -0.059925 0.088094 0.391183 -0.393378 0.014796 0.661714 0.524459 -0.925675 0.448371 0.190657 0.150535 0.415916 0.171107 -0.714690 0.224893 1.004002 0.043370 0.108097 -0.460256 0.005828 1.261283 -0.464329 0.292190 0.161243 -0.133984 0.105486 0.702641 0.279433 0.183991 -0.411026 0.037810 -0.419171 0.045369 0.992495 -1.657694 -2.523853 -1.028166 -0.132667 -0.236627 -0.624208 0.378016 0.308848 -0.843109 0.032495 0.218313 0.276474 0.288118 -0.294866 -0.118369 -0.638678 0.109671 -0.011483 0.521455 -0.787261 0.628723 0.093451 0.266329 1.167860 0.497395 0.668954 0.714027 0.748883 0.223855 0.977615 -0.258028 -1.926872 0.289649 0.471101 0.228279 0.435522 0.719743 -0.896393 -0.377211 -1.406974 -2.762025 -0.206072 -1.144325 -0.799521 0.647506 0.016422 0.190272 0.484354 -0.315007 0.402891 -0.299235 -0.723085 -0.223360 0.147511 -0.043189 0.190910 -0.909801 -1.424460 -0.100496 0.160515 -0.921623 -0.602088 -0.850879 0.523635 -0.034041 -0.469289 0.022283 0.104429 -0.132929 0.102790 0.146924 -0.114938 0.696133 0.298409 -0.908657 -0.288326 0.121351 -0.059955 -0.942107 0.556098 0.012935 0.191311 0.809018 2.614113 0.751739 0.387192 0.641830 1.283640 -0.782102 -1.198641 1.012195 -0.256096 0.642611 0.525173 0.750309 -0.858465 -1.204906 1.025808 -0.532412 0.861551 1.137504 -1.416683 -1.016856 1.032163 -2.545924 -2.111368 -0.646611 3.282023 -0.187148 0.767153 0.109339 -1.163685 -2.453529 -3.319200 1.916238 0.069731 -0.093854 0.159239 0.420106 0.267904 0.791476 0.623553 1.170015 -0.679945 0.104343 -1.395391 -1.149439 0.655755 1.220608 0.190858 -0.014020 0.241595 -0.833633 -0.159823 -0.879534 -0.193723 0.524856 0.327749 -1.398544 1.394158 1.933961 0.868281 -0.111414 -0.019559 -0.240223 0.308990 0.424187 -0.139603 0.054008 -0.766843 -0.925725 0.191950 -0.769074 1.028683 -0.336270 0.493395 -0.142907 -0.035520 0.045313 0.025456 0.328181 0.377538 0.389447 0.685954 1.601387 1.505073 -0.768998 0.833716 -0.819276 0.556388 -1.669787 1.797609 -0.311063 0.310834 -0.019199 -0.203344 0.991557 0.034722 0.430060 1.095530 0.625719 0.863879 0.348329 -0.596252 -0.169283 -0.376305 -0.425805 -0.150767 -0.136916 -0.146337 0.688905 0.548314 0.511908 -0.333551 0.920879 -0.808541 -0.302002 -0.163153 0.933332 0.042026 1.250975 2.080427 0.789440 -1.099108 -1.151851 0.565294 0.322061 -0.888843 -0.839473 -0.001264 0.708621 -0.595180 0.559037 -0.353295 0.292976 0.745388 0.212809 0.714143 1.946435 -0.093663 1.255470 -0.714846 0.312084 -0.827967 0.305891 0.578380 0.554261 0.588600 -0.851328 0.884463 1.516231 -0.677598 1.228617 -2.102730 -3.053565 -2.010166 -1.947082 -0.543510 -0.076360 0.762476 0.911567 -0.227961 -0.991032 -0.548101 -0.172636 1.311092 0.171130 0.498416 -1.374554 -0.910512 0.665321 -0.800859 -0.797024 0.068807 -0.095512 0.167315 -0.068019 0.155421 -0.064979 -0.113879 -0.675310 -0.222563 0.159685 0.213134 -0.338083 0.118851 0.218580 -0.054564 0.195760 0.812741 -1.620619 -0.097230 0.235420 0.798707 0.114127 -0.065818 -0.628810 0.391137 -0.237807 0.748773 -0.163644 -0.381656 -0.373629 0.450298 0.349188 -0.260195 0.487050 -0.219726 0.492467 -0.757750 0.099501 0.029435 0.253005 0.334211 -0.532517 0.164825 -0.256231 0.210150 0.045184 0.548296 -0.463541 0.169663 -0.524315 0.159119 0.046617 -0.017536 -0.004302 -0.590039 0.439746 0.363494 0.895993 -0.961234 -1.066972 0.097438 0.575069 0.390910 0.054557 -0.581546 0.441229 0.092755 -0.280092 -0.612747 -0.132455 0.260202 0.322093 0.334067 -0.236522 -0.343710 0.503642 -0.467946 0.187221 0.337385 -0.518899 -0.090535 0.272672 -0.519280 0.185986 0.325869 0.048766 -0.268059 -0.057427 0.278827 0.343995 -0.494204 0.189674 0.055599 -0.273029 -0.030309 -0.285088 -0.050948 0.285632 0.336956 0.067773 0.582136 -0.443062 -0.365748 -0.321549 -0.339186 -0.041588 -0.004761 0.561317 0.105116 0.003740 -0.281458 -0.346945 -0.342568 -0.068028 0.268044 0.038202 -0.297026 -0.077999 0.249138 -0.538554 -0.128052 0.242048 -0.557493 0.718454 0.115242 -0.313283 -0.357284 0.173008 -0.268808 0.199718 -0.268942 -0.101408 -0.043063 0.228683 0.298279 -0.552717 0.422354 -0.226781 -0.091346 -0.311546 0.458347 -0.496215 -0.430074 0.180674 0.267365 0.018940 -0.323707 -0.109625 -0.059289 0.233013 0.010724 0.239957 0.013392 -0.038582 -0.314473 -0.091862 -0.036251 -0.320976 0.195350 0.007951 0.244527 0.022582 -0.321714 -0.085926 -0.042619 0.533666 -0.200091 -0.645235 0.142867 0.285035 0.029381 0.268994 -0.547271 0.431814 -0.203139 -0.930704 0.102776 -0.293115 -0.095394 0.527870 0.043001 -0.323487 -0.102355 -0.348644 0.178059 0.571766 -0.224003 -0.654811 -0.164020 0.780415 -0.450329 -0.137200 -0.623962 -0.187712 -0.056825 0.491843 0.332073 -0.008965 -1.192265 0.277372 -0.260577 0.441607 0.627435 -1.678780 -0.385822 0.169489 -0.346381 0.451161 0.280207 1.370013 0.203130 -0.625563 0.134958 0.548615 -0.487363 -0.113622 0.247304 0.010494 -0.862603 0.372174 0.058242 0.244706 -0.526374 -0.447167 -0.671157 -0.179961 -0.062993 0.773723 0.097130 -0.068392 -0.629478 0.089359 -0.012140 -0.352181 -0.393870 -0.142159 -0.655600 0.655761 0.353943 -0.886510 0.333915 0.277566 0.533408 -0.504737 0.097593 0.554399 -0.527125 0.431738 -0.228476 -0.678697 -0.137881 -0.357789 -0.395639 0.453687 0.026516 0.783519 -1.318488 0.217172 -0.245449 -1.009201 -0.204215 1.583235 -0.051925 -0.395560 -0.698566 0.048372 0.548469 1.170666 -0.118481 0.181459 -0.562835 0.120192 -0.533158 -2.138951 2.996757 -0.583442 -0.536775 -3.728887 -0.589020 0.527548 2.772104 1.040248 1.653779 2.207227 3.392680 0.362612 0.632350 -0.868421 0.223967 -1.376416 -0.663025 -1.840106 0.910369 -0.176978 -0.566983 0.328585 1.208418 3.993023 -0.887990 -0.180459 1.887666 1.548734 -0.055522 0.752070 -0.199829 0.162637 0.901405 -0.175656 0.220994 0.027893 0.512518 0.657912 -0.496639 1.007261 -0.683498 0.351507 0.652452 1.156597 0.201483 -0.321503 -0.653321 0.676387 0.671205 0.617811 -0.776485 -0.232259 0.207068 -0.054273 -0.080668 0.458323 -0.302577 0.673220 0.323035 -0.087263 0.458593 -0.603656 0.038037 0.482381 1.075296 0.091129 -0.131325 -0.129970 0.123553 0.197365 0.192041 -0.377294 0.353303 0.222327 -1.261060 -0.102905 -0.169882 0.319596 0.177819 -0.197215 -0.811033 1.041933 -0.288983 -0.328917 0.604695 -0.431654 -0.043151 0.059252 0.595802 -0.685929 -0.121564 0.322663 -0.219216 -0.865081 0.132758 -0.241339 -0.923162 1.245479 -0.052968 0.202549 -0.218576 -1.240056 0.041133 -0.289112 0.160468 -0.557798 0.940695 0.156179 0.782796 -0.707667 0.913823 -0.079968 -0.097151 -0.266424 0.189476 0.330597 0.040942 -0.282145 0.788471 -0.409006 0.178799 0.358804 0.045453 -0.250737 0.244781 0.069944 0.020827 0.032951 -0.263758 0.253279 -0.205000 0.533651 -0.137567 -0.031726 -0.524622 -0.097093 0.309794 0.353478 0.373851 -0.476979 -0.077221 -0.250802 0.249348 0.094418 0.595215 -0.127118 -0.016115 -0.230584 -0.020820 0.049299 0.607966 -0.688988 0.446105 -0.689423 0.139837 0.393802 -0.211935 -0.572509 0.197431 0.070579 -0.265837 0.539754 -1.012103 0.350947 -0.441382 0.148272 0.642149 0.094677 0.303619 -0.209212 0.241313 0.370514 0.081325 -0.237640 0.550839 -0.131887 -0.297034 0.281908 0.369063 0.386783 0.115211 -0.227092 -0.565879 0.218198 0.378585 0.094492 0.052731 0.040145 -0.246275 -0.302283 0.540890 -0.149942 0.254325 -0.195010 0.239397 0.085067 -0.268887 0.254825 0.352375 -0.494738 -0.086696 -0.275922 0.220955 0.062193 -0.006637 -0.566590 0.155900 0.322006 -0.248937 -0.060402 0.547141 0.092303 -0.852148 0.109772 -0.256180 0.768133 0.164072 -0.584914 0.173238 0.315165 0.048525 0.011335 0.567645 -0.733138 0.411853 0.126666 -0.283054 -0.307556 0.509526 0.120870 -0.266486 -0.033853 -0.281904 0.233505 0.351316 -0.504007 -0.099423 0.284619 0.052785 0.299407 0.353711 0.072900 -0.253757 -0.314046 0.247569 -0.776234 0.409989 0.125901 0.278623 -0.484050 0.168460 0.065959 -0.001647 0.017369 0.285599 -0.501666 -0.109218 0.286131 0.046470 0.575977 -0.445880 -0.112445 0.008638 -0.297337 0.513002 0.391996 -0.229068 -0.330937 -0.066122 -0.013853 -0.295247 0.777958 -0.413505 0.149438 0.052288 -0.033688 0.280768 0.040455 -0.861758 0.094803 0.023937 -0.038361 0.549041 -0.488075 0.425515 -0.189215 -0.377352 0.213262 -0.267369 -0.370139 0.477678 0.354976 -0.251541 -0.357510 -0.376555 0.469591 -0.201568 0.195073 0.034464 -0.321596 -0.078113 0.533372 -0.196248 -0.641292 0.146880 -0.553753 0.130681 0.873630 -0.155271 -0.070330 -0.586054 0.132516 0.316529 0.027832 -0.579955 0.141759 0.308760 0.029772 -0.577559 -0.142168 0.247481 0.021705 0.263038 -0.533866 -0.145607 0.538029 -0.205666 -0.073173 -0.306698 -0.383318 -0.092183 -0.618721 0.394896 0.055471 -0.919557 -0.235374 0.472393 0.309025 -0.006926 -0.069235 0.208449 -0.008285 -0.341908 2.158379 0.429146 0.004991 -0.248371 -0.640727 -0.382391 -0.344132 0.211082 -0.244159 0.197395 0.028711 -0.322719 0.478682 -0.775013 0.353919 0.078639 -0.049885 -0.305806 -0.110004 0.237240 -0.270276 -0.382999 0.172240 0.282155 -0.268631 -0.099092 0.231710 -0.559218 0.123228 0.007748 -0.624888 0.118199 0.559939 -0.787911 0.632760 -0.158836 -0.114210 -0.023825 1.080719 0.790491 -0.154128 0.257571 -0.205604 -0.600534 0.482524 -0.715888 0.692135 -0.075750 -0.333375 -0.024119 -0.286765 -0.049607 -0.279810 -0.920762 0.651678 0.146980 -0.019658 0.280742 -0.818897 0.938987 -0.058171 -0.068176 -0.269431 0.199950 0.342997 0.061540 0.582739 -0.432284 0.181342 0.081384 -0.557311 -0.382156 0.214245 -0.804732 0.089818 -0.541075 0.678420 0.433908 -0.261401 0.492135 0.083211 -0.586965 0.150333 0.305601 0.321046 0.342539 -0.233054 0.216982 0.337434 -0.793921 0.390943 -0.181502 -0.080619 -0.282055 0.184011 0.605719 -0.468043 0.154136 -0.250775 -0.101167 -0.302076 -0.108568 -0.042254 0.514559 -0.487464 0.401411 -0.207168 -0.119450 -0.316612 -0.129795 0.513444 0.348037 0.023484 0.251511 0.305712 -0.247487 