4.63276812975542728879 7.90750504767133666206 4.63276812975542728879 4.63276812975542728879 5.72434710239406463472 10.09066299294861046576 4.63276812975542728879 5.72434710239406463472 10.09066299294861046576 5.72434710239406463472 7.90750504767133666206 8.99908402030997400800 6.81592607503270109248 4.63276812975542728879 6.81592607503270109248 4.63276812975542728879 8.99908402030997400800 5.72434710239406463472 7.90750504767133666206 4.63276812975542728879 4.63276812975542728879 6.81592607503270109248 5.72434710239406463472 -1.91670570607639056959 -3.00828467871502702735 -3.00828467871502702735 -5.19144262399230083105 -9.55775851454684577391 -6.28302159663093728881 -1.91670570607639056959 -4.09986365135366348511 -0.82512673343775422286 -0.82512673343775422286 -0.82512673343775422286 -0.82512673343775422286 1.35803121183951858164 2.44961018447815526144 5.72434710239406463472 1.35803121183951858164 2.44961018447815526144 0.26645223920088217939 2.44961018447815526144 3.54118915711679171920 5.72434710239406463472 4.63276812975542728879 1.35803121183951858164 5.72434710239406463472 2.44961018447815526144 5.72434710239406463472 0.26645223920088217939 6.81592607503270109248 2.44961018447815526144 3.54118915711679171920 6.81592607503270109248 8.99908402030997400800 6.81592607503270109248 1.35803121183951858164 2.44961018447815526144 5.72434710239406463472 -0.82512673343775422286 -6.28302159663093728881 -6.28302159663093728881 -4.09986365135366348511 -3.00828467871502702735 -8.46617954190820931615 -7.37460056926957285839 -1.91670570607639056959 0.26645223920088217939 0.26645223920088217939 4.63276812975542728879 -0.82512673343775422286 6.81592607503270109248 5.72434710239406463472 6.81592607503270109248 8.99908402030997400800 7.90750504767133666206 8.99908402030997400800 8.99908402030997400800 4.63276812975542728879 5.72434710239406463472 7.90750504767133666206 7.90750504767133666206 4.63276812975542728879 5.72434710239406463472 5.72434710239406463472 7.90750504767133666206 3.54118915711679171920 3.54118915711679171920 8.99908402030997400800 8.99908402030997400800 4.63276812975542728879 7.90750504767133666206 8.99908402030997400800 2.44961018447815526144 1.35803121183951858164 7.90750504767133666206 4.63276812975542728879 6.81592607503270109248 2.44961018447815526144 2.44961018447815526144 2.44961018447815526144 5.72434710239406463472 4.63276812975542728879 5.72434710239406463472 4.63276812975542728879 7.90750504767133666206 5.72434710239406463472 6.81592607503270109248 4.63276812975542728879 6.81592607503270109248 8.99908402030997400800 4.63276812975542728879 6.81592607503270109248 5.72434710239406463472 3.54118915711679171920 7.90750504767133666206 5.72434710239406463472 2.44961018447815526144 6.81592607503270109248 5.72434710239406463472 5.72434710239406463472 4.63276812975542728879 3.54118915711679171920 3.54118915711679171920 6.81592607503270109248 1.35803121183951858164 1.35803121183951858164 2.44961018447815526144 4.63276812975542728879 2.44961018447815526144 6.81592607503270109248 5.72434710239406463472 3.54118915711679171920 6.81592607503270109248 1.35803121183951858164 3.54118915711679171920 1.35803121183951858164 4.63276812975542728879 5.72434710239406463472 7.90750504767133666206 6.81592607503270109248 6.81592607503270109248 11.18224196558724692352 5.72434710239406463472 8.99908402030997400800 5.72434710239406463472 5.72434710239406463472 6.81592607503270109248 10.09066299294861046576 6.81592607503270109248 6.81592607503270109248 5.72434710239406463472 8.99908402030997400800 6.81592607503270109248 8.99908402030997400800 7.90750504767133666206 7.90750504767133666206 8.99908402030997400800 5.72434710239406463472 6.81592607503270109248 7.90750504767133666206 8.99908402030997400800 8.99908402030997400800 4.63276812975542728879 6.81592607503270109248 3.54118915711679171920 4.63276812975542728879 5.72434710239406463472 8.99908402030997400800 5.72434710239406463472 5.72434710239406463472 7.90750504767133666206 7.90750504767133666206 4.63276812975542728879 5.72434710239406463472 2.44961018447815526144 7.90750504767133666206 4.63276812975542728879 3.54118915711679171920 3.54118915711679171920 5.72434710239406463472 6.81592607503270109248 7.90750504767133666206 3.54118915711679171920 5.72434710239406463472 2.44961018447815526144 4.63276812975542728879 10.09066299294861046576 2.44961018447815526144 6.81592607503270109248 3.54118915711679171920 7.90750504767133666206 3.54118915711679171920 1.35803121183951858164 8.99908402030997400800 6.81592607503270109248 7.90750504767133666206 4.63276812975542728879 3.54118915711679171920 5.72434710239406463472 8.99908402030997400800 8.99908402030997400800 5.72434710239406463472 5.72434710239406463472 4.63276812975542728879 4.63276812975542728879 5.72434710239406463472 4.63276812975542728879 6.81592607503270109248 4.63276812975542728879 4.63276812975542728879 3.54118915711679171920 6.81592607503270109248 5.72434710239406463472 11.18224196558724692352 3.54118915711679171920 6.81592607503270109248 4.63276812975542728879 8.99908402030997400800 5.72434710239406463472 5.72434710239406463472 6.81592607503270109248 7.90750504767133666206 10.09066299294861046576 10.09066299294861046576 7.90750504767133666206 8.99908402030997400800 12.27382093822588338128 11.18224196558724692352 8.99908402030997400800 6.81592607503270109248 5.72434710239406463472 11.18224196558724692352 10.09066299294861046576 5.72434710239406463472 8.99908402030997400800 6.81592607503270109248 12.27382093822588338128 8.99908402030997400800 11.18224196558724692352 8.99908402030997400800 8.99908402030997400800 8.99908402030997400800 6.81592607503270109248 8.99908402030997400800 8.99908402030997400800 10.09066299294861046576 12.27382093822588338128 7.90750504767133666206 8.99908402030997400800 4.63276812975542728879 12.27382093822588338128 10.09066299294861046576 6.81592607503270109248 7.90750504767133666206 6.81592607503270109248 8.99908402030997400800 10.09066299294861046576 11.18224196558724692352 8.99908402030997400800 5.72434710239406463472 8.99908402030997400800 5.72434710239406463472 8.99908402030997400800 13.36539991086451983904 8.99908402030997400800 7.90750504767133666206 11.18224196558724692352 5.72434710239406463472 8.99908402030997400800 7.90750504767133666206 6.81592607503270109248 5.72434710239406463472 8.99908402030997400800 6.81592607503270109248 5.72434710239406463472 8.99908402030997400800 6.81592607503270109248 10.09066299294861046576 6.81592607503270109248 4.63276812975542728879 7.90750504767133666206 12.27382093822588338128 6.81592607503270109248 7.90750504767133666206 10.09066299294861046576 5.72434710239406463472 7.90750504767133666206 8.99908402030997400800 12.27382093822588338128 8.99908402030997400800 7.90750504767133666206 8.99908402030997400800 7.90750504767133666206 10.09066299294861046576 3.54118915711679171920 11.18224196558724692352 3.54118915711679171920 10.09066299294861046576 5.72434710239406463472 5.72434710239406463472 8.99908402030997400800 10.09066299294861046576 6.81592607503270109248 10.09066299294861046576 11.18224196558724692352 10.09066299294861046576 8.99908402030997400800 5.72434710239406463472 6.81592607503270109248 8.99908402030997400800 8.99908402030997400800 10.09066299294861046576 7.90750504767133666206 10.09066299294861046576 7.90750504767133666206 8.99908402030997400800 6.81592607503270109248 6.81592607503270109248 6.81592607503270109248 7.90750504767133666206 10.09066299294861046576 10.09066299294861046576 7.90750504767133666206 10.09066299294861046576 11.18224196558724692352 8.99908402030997400800 4.63276812975542728879 8.99908402030997400800 5.72434710239406463472 7.90750504767133666206 5.72434710239406463472 8.99908402030997400800 6.81592607503270109248 8.99908402030997400800 5.72434710239406463472 5.72434710239406463472 8.99908402030997400800 6.81592607503270109248 7.90750504767133666206 5.72434710239406463472 7.90750504767133666206 7.90750504767133666206 4.63276812975542728879 6.81592607503270109248 10.09066299294861046576 6.81592607503270109248 7.90750504767133666206 6.81592607503270109248 8.99908402030997400800 11.18224196558724692352 16.64013682878042743596 14.45697888350315452044 11.18224196558724692352 8.99908402030997400800 7.90750504767133666206 10.09066299294861046576 13.36539991086451983904 11.18224196558724692352 14.45697888350315452044 12.27382093822588338128 8.99908402030997400800 8.99908402030997400800 8.99908402030997400800 13.36539991086451983904 10.09066299294861046576 10.09066299294861046576 10.09066299294861046576 11.18224196558724692352 8.99908402030997400800 8.99908402030997400800 8.99908402030997400800 10.09066299294861046576 10.09066299294861046576 10.09066299294861046576 8.99908402030997400800 7.90750504767133666206 11.18224196558724692352 5.72434710239406463472 11.18224196558724692352 7.90750504767133666206 4.63276812975542728879 7.90750504767133666206 6.81592607503270109248 7.90750504767133666206 11.18224196558724692352 10.09066299294861046576 7.90750504767133666206 8.99908402030997400800 6.81592607503270109248 4.63276812975542728879 6.81592607503270109248 8.99908402030997400800 7.90750504767133666206 7.90750504767133666206 7.90750504767133666206 6.81592607503270109248 4.63276812975542728879 8.99908402030997400800 8.99908402030997400800 5.72434710239406463472 10.09066299294861046576 7.90750504767133666206 11.18224196558724692352 6.81592607503270109248 6.81592607503270109248 7.90750504767133666206 5.72434710239406463472 5.72434710239406463472 8.99908402030997400800 4.63276812975542728879 4.63276812975542728879 6.81592607503270109248 6.81592607503270109248 7.90750504767133666206 10.09066299294861046576 6.81592607503270109248 10.09066299294861046576 5.72434710239406463472 4.63276812975542728879 4.63276812975542728879 7.90750504767133666206 10.09066299294861046576 11.18224196558724692352 11.18224196558724692352 10.09066299294861046576 7.90750504767133666206 5.72434710239406463472 4.63276812975542728879 8.99908402030997400800 6.81592607503270109248 8.99908402030997400800 6.81592607503270109248 8.99908402030997400800 7.90750504767133666206 10.09066299294861046576 10.09066299294861046576 6.81592607503270109248 5.72434710239406463472 5.72434710239406463472 6.81592607503270109248 8.99908402030997400800 10.09066299294861046576 7.90750504767133666206 6.81592607503270109248 4.63276812975542728879 4.63276812975542728879 8.99908402030997400800 6.81592607503270109248 4.63276812975542728879 6.81592607503270109248 7.90750504767133666206 7.90750504767133666206 8.99908402030997400800 12.27382093822588338128 7.90750504767133666206 5.72434710239406463472 8.99908402030997400800 7.90750504767133666206 5.72434710239406463472 6.81592607503270109248 7.90750504767133666206 6.81592607503270109248 6.81592607503270109248 3.54118915711679171920 6.81592607503270109248 5.72434710239406463472 10.09066299294861046576 4.63276812975542728879 6.81592607503270109248 5.72434710239406463472 6.81592607503270109248 5.72434710239406463472 6.81592607503270109248 7.90750504767133666206 3.54118915711679171920 4.63276812975542728879 3.54118915711679171920 5.72434710239406463472 3.54118915711679171920 5.72434710239406463472 4.63276812975542728879 3.54118915711679171920 2.44961018447815526144 4.63276812975542728879 4.63276812975542728879 2.44961018447815526144 5.72434710239406463472 4.63276812975542728879 3.54118915711679171920 0.26645223920088217939 3.54118915711679171920 5.72434710239406463472 2.44961018447815526144 1.35803121183951858164 5.72434710239406463472 4.63276812975542728879 3.54118915711679171920 5.72434710239406463472 5.72434710239406463472 4.63276812975542728879 4.63276812975542728879 -0.82512673343775422286 3.54118915711679171920 5.72434710239406463472 5.72434710239406463472 3.54118915711679171920 3.54118915711679171920 0.26645223920088217939 0.26645223920088217939 2.44961018447815526144 5.72434710239406463472 2.44961018447815526144 5.72434710239406463472 3.54118915711679171920 3.54118915711679171920 1.35803121183951858164 3.54118915711679171920 6.81592607503270109248 3.54118915711679171920 3.54118915711679171920 3.54118915711679171920 5.72434710239406463472 4.63276812975542728879 4.63276812975542728879 7.90750504767133666206 2.44961018447815526144 2.44961018447815526144 3.54118915711679171920 3.54118915711679171920 5.72434710239406463472 5.72434710239406463472 10.09066299294861046576 5.72434710239406463472 6.81592607503270109248 4.63276812975542728879 3.54118915711679171920 6.81592607503270109248 3.54118915711679171920 1.35803121183951858164 3.54118915711679171920 1.35803121183951858164 4.63276812975542728879 6.81592607503270109248 2.44961018447815526144 4.63276812975542728879 2.44961018447815526144 3.54118915711679171920 3.54118915711679171920 4.63276812975542728879 4.63276812975542728879 5.72434710239406463472 2.44961018447815526144 3.54118915711679171920 4.63276812975542728879 4.63276812975542728879 5.72434710239406463472 3.54118915711679171920 5.72434710239406463472 0.26645223920088217939 5.72434710239406463472 2.44961018447815526144 5.72434710239406463472 3.54118915711679171920 0.26645223920088217939 1.35803121183951858164 4.63276812975542728879 3.54118915711679171920 2.44961018447815526144 4.63276812975542728879 4.63276812975542728879 1.35803121183951858164 4.63276812975542728879 3.54118915711679171920 4.63276812975542728879 3.54118915711679171920 1.35803121183951858164 5.72434710239406463472 4.63276812975542728879 1.35803121183951858164 2.44961018447815526144 2.44961018447815526144 4.63276812975542728879 5.72434710239406463472 0.26645223920088217939 4.63276812975542728879 4.63276812975542728879 1.35803121183951858164 0.26645223920088217939 3.54118915711679171920 5.72434710239406463472 1.35803121183951858164 3.54118915711679171920 2.44961018447815526144 4.63276812975542728879 2.44961018447815526144 4.63276812975542728879 4.63276812975542728879 4.63276812975542728879 4.63276812975542728879 6.81592607503270109248 7.90750504767133666206 6.81592607503270109248 5.72434710239406463472 3.54118915711679171920 4.63276812975542728879 6.81592607503270109248 5.72434710239406463472 6.81592607503270109248 2.44961018447815526144 4.63276812975542728879 3.54118915711679171920 3.54118915711679171920 6.81592607503270109248 8.99908402030997400800 5.72434710239406463472 8.99908402030997400800 4.63276812975542728879 2.44961018447815526144 3.54118915711679171920 4.63276812975542728879 5.72434710239406463472 5.72434710239406463472 2.44961018447815526144 5.72434710239406463472 6.81592607503270109248 5.72434710239406463472 6.81592607503270109248 3.54118915711679171920 3.54118915711679171920 2.44961018447815526144 7.90750504767133666206 3.54118915711679171920 7.90750504767133666206 8.99908402030997400800 2.44961018447815526144 5.72434710239406463472 7.90750504767133666206 7.90750504767133666206 4.63276812975542728879 4.63276812975542728879 1.35803121183951858164 1.35803121183951858164 3.54118915711679171920 6.81592607503270109248 5.72434710239406463472 6.81592607503270109248 2.44961018447815526144 1.35803121183951858164 3.54118915711679171920 5.72434710239406463472 6.81592607503270109248 2.44961018447815526144 3.54118915711679171920 1.35803121183951858164 3.54118915711679171920 6.81592607503270109248 3.54118915711679171920 4.63276812975542728879 6.81592607503270109248 3.54118915711679171920 5.72434710239406463472 3.54118915711679171920 7.90750504767133666206 5.72434710239406463472 5.72434710239406463472 3.54118915711679171920 4.63276812975542728879 5.72434710239406463472 6.81592607503270109248 6.81592607503270109248 10.09066299294861046576 7.90750504767133666206 6.81592607503270109248 6.81592607503270109248 6.81592607503270109248 6.81592607503270109248 4.63276812975542728879 6.81592607503270109248 4.63276812975542728879 4.63276812975542728879 5.72434710239406463472 6.81592607503270109248 7.90750504767133666206 5.72434710239406463472 5.72434710239406463472 8.99908402030997400800 4.63276812975542728879 8.99908402030997400800 2.44961018447815526144 5.72434710239406463472 3.54118915711679171920 3.54118915711679171920 1.35803121183951858164 6.81592607503270109248 7.90750504767133666206 7.90750504767133666206 4.63276812975542728879 5.72434710239406463472 6.81592607503270109248 8.99908402030997400800 6.81592607503270109248 5.72434710239406463472 10.09066299294861046576 7.90750504767133666206 4.63276812975542728879 8.99908402030997400800 6.81592607503270109248 6.81592607503270109248 12.27382093822588338128 8.99908402030997400800 8.99908402030997400800 10.09066299294861046576 7.90750504767133666206 6.81592607503270109248 4.63276812975542728879 7.90750504767133666206 6.81592607503270109248 7.90750504767133666206 7.90750504767133666206 10.09066299294861046576 7.90750504767133666206 7.90750504767133666206 7.90750504767133666206 10.09066299294861046576 6.81592607503270109248 11.18224196558724692352 8.99908402030997400800 8.99908402030997400800 4.63276812975542728879 6.81592607503270109248 8.99908402030997400800 6.81592607503270109248 6.81592607503270109248 6.81592607503270109248 5.72434710239406463472 6.81592607503270109248 3.54118915711679171920 8.99908402030997400800 6.81592607503270109248 10.09066299294861046576 5.72434710239406463472 8.99908402030997400800 3.54118915711679171920 6.81592607503270109248 5.72434710239406463472 5.72434710239406463472 4.63276812975542728879 7.90750504767133666206 4.63276812975542728879 5.72434710239406463472 2.44961018447815526144 7.90750504767133666206 4.63276812975542728879 2.44961018447815526144 0.26645223920088217939 2.44961018447815526144 4.63276812975542728879 2.44961018447815526144 1.35803121183951858164 2.44961018447815526144 1.35803121183951858164 5.72434710239406463472 6.81592607503270109248 3.54118915711679171920 3.54118915711679171920 1.35803121183951858164 2.44961018447815526144 2.44961018447815526144 0.26645223920088217939 0.26645223920088217939 1.35803121183951858164 0.26645223920088217939 -1.91670570607639056959 1.35803121183951858164 1.35803121183951858164 5.72434710239406463472 0.26645223920088217939 3.54118915711679171920 4.63276812975542728879 2.44961018447815526144 3.54118915711679171920 2.44961018447815526144 5.72434710239406463472 2.44961018447815526144 -0.82512673343775422286 3.54118915711679171920 3.54118915711679171920 7.90750504767133666206 1.35803121183951858164 4.63276812975542728879 4.63276812975542728879 3.54118915711679171920 1.35803121183951858164 2.44961018447815526144 6.81592607503270109248 3.54118915711679171920 4.63276812975542728879 2.44961018447815526144 3.54118915711679171920 2.44961018447815526144 4.63276812975542728879 3.54118915711679171920 6.81592607503270109248 2.44961018447815526144 5.72434710239406463472 7.90750504767133666206 5.72434710239406463472 7.90750504767133666206 2.44961018447815526144 1.35803121183951858164 4.63276812975542728879 4.63276812975542728879 8.99908402030997400800 6.81592607503270109248 5.72434710239406463472 2.44961018447815526144 3.54118915711679171920 4.63276812975542728879 5.72434710239406463472 4.63276812975542728879 10.09066299294861046576 5.72434710239406463472 2.44961018447815526144 6.81592607503270109248 3.54118915711679171920 2.44961018447815526144 3.54118915711679171920 6.81592607503270109248 4.63276812975542728879 4.63276812975542728879 1.35803121183951858164 2.44961018447815526144 8.99908402030997400800 4.63276812975542728879 4.63276812975542728879 3.54118915711679171920 3.54118915711679171920 4.63276812975542728879 4.63276812975542728879 5.72434710239406463472 5.72434710239406463472 5.72434710239406463472 3.54118915711679171920 4.63276812975542728879 6.81592607503270109248 5.72434710239406463472 5.72434710239406463472 5.72434710239406463472 4.63276812975542728879 6.81592607503270109248 1.35803121183951858164 5.72434710239406463472 6.81592607503270109248 4.63276812975542728879 1.35803121183951858164 3.54118915711679171920 2.44961018447815526144 3.54118915711679171920 3.54118915711679171920 4.63276812975542728879 0.26645223920088217939 0.26645223920088217939 1.35803121183951858164 4.63276812975542728879 2.44961018447815526144 0.26645223920088217939 1.35803121183951858164 4.63276812975542728879 5.72434710239406463472 1.35803121183951858164 3.54118915711679171920 1.35803121183951858164 3.54118915711679171920 4.63276812975542728879 4.63276812975542728879 3.54118915711679171920 4.63276812975542728879 3.54118915711679171920 4.63276812975542728879 2.44961018447815526144 5.72434710239406463472 0.26645223920088217939 2.44961018447815526144 3.54118915711679171920 2.44961018447815526144 6.81592607503270109248 7.90750504767133666206 4.63276812975542728879 4.63276812975542728879 3.54118915711679171920 3.54118915711679171920 3.54118915711679171920 6.81592607503270109248 4.63276812975542728879 3.54118915711679171920 5.72434710239406463472 6.81592607503270109248 3.54118915711679171920 3.54118915711679171920 3.54118915711679171920 4.63276812975542728879 4.63276812975542728879 1.35803121183951858164 5.72434710239406463472 4.63276812975542728879 4.63276812975542728879 7.90750504767133666206 4.63276812975542728879 2.44961018447815526144 1.35803121183951858164 6.81592607503270109248 6.81592607503270109248 4.63276812975542728879 6.81592607503270109248 4.63276812975542728879 3.54118915711679171920 4.63276812975542728879 4.63276812975542728879 4.63276812975542728879 1.35803121183951858164 1.35803121183951858164 3.54118915711679171920 5.72434710239406463472 3.54118915711679171920 5.72434710239406463472 2.44961018447815526144 0.26645223920088217939 0.26645223920088217939 4.63276812975542728879 6.81592607503270109248 4.63276812975542728879 7.90750504767133666206 3.54118915711679171920 6.81592607503270109248 4.63276812975542728879 4.63276812975542728879 3.54118915711679171920 3.54118915711679171920 6.81592607503270109248 6.81592607503270109248 2.44961018447815526144 4.63276812975542728879 3.54118915711679171920 4.63276812975542728879 2.44961018447815526144 1.35803121183951858164 5.72434710239406463472 2.44961018447815526144 3.54118915711679171920 4.63276812975542728879 3.54118915711679171920 2.44961018447815526144 4.63276812975542728879 3.54118915711679171920 6.81592607503270109248 2.44961018447815526144 2.44961018447815526144 3.54118915711679171920 5.72434710239406463472 2.44961018447815526144 4.63276812975542728879 10.09066299294861046576 6.81592607503270109248 3.54118915711679171920 5.72434710239406463472 5.72434710239406463472 6.81592607503270109248 5.72434710239406463472 3.54118915711679171920 6.81592607503270109248 6.81592607503270109248 6.81592607503270109248 7.90750504767133666206 6.81592607503270109248 10.09066299294861046576 7.90750504767133666206 4.63276812975542728879 7.90750504767133666206 6.81592607503270109248 8.99908402030997400800 5.72434710239406463472 7.90750504767133666206 7.90750504767133666206 5.72434710239406463472 10.09066299294861046576 7.90750504767133666206 6.81592607503270109248 8.99908402030997400800 7.90750504767133666206 4.63276812975542728879 10.09066299294861046576 5.72434710239406463472 5.72434710239406463472 8.99908402030997400800 7.90750504767133666206 6.81592607503270109248 6.81592607503270109248 7.90750504767133666206 5.72434710239406463472 6.81592607503270109248 6.81592607503270109248 6.81592607503270109248 6.81592607503270109248 5.72434710239406463472 7.90750504767133666206 5.72434710239406463472 5.72434710239406463472 6.81592607503270109248 5.72434710239406463472 6.81592607503270109248 10.09066299294861046576 7.90750504767133666206 4.63276812975542728879 5.72434710239406463472 5.72434710239406463472 10.09066299294861046576 5.72434710239406463472 6.81592607503270109248 7.90750504767133666206 7.90750504767133666206 5.72434710239406463472 6.81592607503270109248 8.99908402030997400800 8.99908402030997400800 5.72434710239406463472 6.81592607503270109248 3.54118915711679171920 8.99908402030997400800 10.09066299294861046576 5.72434710239406463472 8.99908402030997400800 5.72434710239406463472 6.81592607503270109248 3.54118915711679171920 7.90750504767133666206 7.90750504767133666206 8.99908402030997400800 6.81592607503270109248 2.44961018447815526144 5.72434710239406463472 4.63276812975542728879 7.90750504767133666206 5.72434710239406463472 6.81592607503270109248 3.54118915711679171920 7.90750504767133666206 6.81592607503270109248 3.54118915711679171920 7.90750504767133666206 8.99908402030997400800 3.54118915711679171920 5.72434710239406463472 7.90750504767133666206 4.63276812975542728879 6.81592607503270109248 6.81592607503270109248 2.44961018447815526144 3.54118915711679171920 3.54118915711679171920 5.72434710239406463472 3.54118915711679171920 5.72434710239406463472 5.72434710239406463472 4.63276812975542728879 4.63276812975542728879 6.81592607503270109248 6.81592607503270109248 5.72434710239406463472 3.54118915711679171920 5.72434710239406463472 1.35803121183951858164 4.63276812975542728879 4.63276812975542728879 6.81592607503270109248 8.99908402030997400800 6.81592607503270109248 4.63276812975542728879 4.63276812975542728879 3.54118915711679171920 6.81592607503270109248 4.63276812975542728879 4.63276812975542728879 3.54118915711679171920 6.81592607503270109248 7.90750504767133666206 10.09066299294861046576 6.81592607503270109248 6.81592607503270109248 3.54118915711679171920 3.54118915711679171920 3.54118915711679171920 7.90750504767133666206 8.99908402030997400800 4.63276812975542728879 3.54118915711679171920 4.63276812975542728879 5.72434710239406463472 3.54118915711679171920 4.63276812975542728879 2.44961018447815526144 5.72434710239406463472 2.44961018447815526144 5.72434710239406463472 5.72434710239406463472 6.81592607503270109248 5.72434710239406463472 2.44961018447815526144 5.72434710239406463472 4.63276812975542728879 5.72434710239406463472 7.90750504767133666206 8.99908402030997400800 7.90750504767133666206 4.63276812975542728879 3.54118915711679171920 4.63276812975542728879 5.72434710239406463472 5.72434710239406463472 7.90750504767133666206 3.54118915711679171920 4.63276812975542728879 4.63276812975542728879 5.72434710239406463472 5.72434710239406463472 6.81592607503270109248 4.63276812975542728879 2.44961018447815526144 2.44961018447815526144 6.81592607503270109248 5.72434710239406463472 5.72434710239406463472 4.63276812975542728879 4.63276812975542728879 4.63276812975542728879 4.63276812975542728879 4.63276812975542728879 7.90750504767133666206 4.63276812975542728879 3.54118915711679171920 4.63276812975542728879 4.63276812975542728879 6.81592607503270109248 5.72434710239406463472 4.63276812975542728879 3.54118915711679171920 4.63276812975542728879 5.72434710239406463472 4.63276812975542728879 4.63276812975542728879 6.81592607503270109248 3.54118915711679171920 5.72434710239406463472 3.54118915711679171920 8.99908402030997400800 3.54118915711679171920 6.81592607503270109248 8.99908402030997400800 8.99908402030997400800 5.72434710239406463472 7.90750504767133666206 1.35803121183951858164 3.54118915711679171920 10.09066299294861046576 14.45697888350315452044 6.81592607503270109248 8.99908402030997400800 5.72434710239406463472 3.54118915711679171920 5.72434710239406463472 1.35803121183951858164 -0.82512673343775422286 1.35803121183951858164 1.35803121183951858164 -4.09986365135366348511 -0.82512673343775422286 -3.00828467871502702735 -1.91670570607639056959 -1.91670570607639056959 -0.82512673343775422286 -0.82512673343775422286 -1.91670570607639056959 -3.00828467871502702735 0.26645223920088217939 -0.82512673343775422286 -1.91670570607639056959 2.44961018447815526144 -1.91670570607639056959 0.26645223920088217939 2.44961018447815526144 0.26645223920088217939 0.26645223920088217939 -3.00828467871502702735 -3.00828467871502702735 -3.00828467871502702735 1.35803121183951858164 0.26645223920088217939 -1.91670570607639056959 -0.82512673343775422286 -3.00828467871502702735 -3.00828467871502702735 -3.00828467871502702735 -0.82512673343775422286 -3.00828467871502702735 -1.91670570607639056959 -3.00828467871502702735 -3.00828467871502702735 -0.82512673343775422286 -3.00828467871502702735 0.26645223920088217939 0.26645223920088217939 -3.00828467871502702735 -3.00828467871502702735 -1.91670570607639056959 -0.82512673343775422286 -0.82512673343775422286 0.26645223920088217939 1.35803121183951858164 -3.00828467871502702735 0.26645223920088217939 -0.82512673343775422286 -1.91670570607639056959 1.35803121183951858164 -4.09986365135366348511 -4.09986365135366348511 -1.91670570607639056959 -4.09986365135366348511 -4.09986365135366348511 -0.82512673343775422286 -3.00828467871502702735 -0.82512673343775422286 -4.09986365135366348511 -4.09986365135366348511 -0.82512673343775422286 -0.82512673343775422286 -0.82512673343775422286 -5.19144262399230083105 -5.19144262399230083105 -7.37460056926957285839 -1.91670570607639056959 -6.28302159663093728881 -4.09986365135366348511 1.35803121183951858164 -1.91670570607639056959 -3.00828467871502702735 0.26645223920088217939 3.54118915711679171920 0.26645223920088217939 -0.82512673343775422286 4.63276812975542728879 2.44961018447815526144 -0.82512673343775422286 -4.09986365135366348511 1.35803121183951858164 1.35803121183951858164 1.35803121183951858164 -3.00828467871502702735 -0.82512673343775422286 2.44961018447815526144 0.26645223920088217939 -1.91670570607639056959 -1.91670570607639056959 0.26645223920088217939 -0.82512673343775422286 -4.09986365135366348511 2.44961018447815526144 0.26645223920088217939 -0.82512673343775422286 -5.19144262399230083105 0.26645223920088217939 -1.91670570607639056959 -0.82512673343775422286 4.63276812975542728879 8.99908402030997400800 4.63276812975542728879 7.90750504767133666206 -1.91670570607639056959 1.35803121183951858164 0.26645223920088217939 -4.09986365135366348511 -4.09986365135366348511 -3.00828467871502702735 -4.09986365135366348511 -1.91670570607639056959 -0.82512673343775422286 -0.82512673343775422286 12.27382093822588338128 10.09066299294861046576 4.63276812975542728879 -0.82512673343775422286 -3.00828467871502702735 -1.91670570607639056959 -0.82512673343775422286 0.26645223920088217939 1.35803121183951858164 -3.00828467871502702735 -0.82512673343775422286 0.26645223920088217939 4.63276812975542728879 -0.82512673343775422286 -0.82512673343775422286 0.26645223920088217939 3.54118915711679171920 2.44961018447815526144 1.35803121183951858164 1.35803121183951858164 -3.00828467871502702735 -5.19144262399230083105 0.26645223920088217939 0.26645223920088217939 0.26645223920088217939 -3.00828467871502702735 -6.28302159663093728881 -4.09986365135366348511 -0.82512673343775422286 -5.19144262399230083105 -4.09986365135366348511 -4.09986365135366348511 -5.19144262399230083105 -5.19144262399230083105 -5.19144262399230083105 -6.28302159663093728881 -9.55775851454684577391 -6.28302159663093728881 2.44961018447815526144 2.44961018447815526144 2.44961018447815526144 5.72434710239406463472 2.44961018447815526144 1.35803121183951858164 5.72434710239406463472 5.72434710239406463472 3.54118915711679171920 6.81592607503270109248 3.54118915711679171920 4.63276812975542728879 4.63276812975542728879 3.54118915711679171920 6.81592607503270109248 2.44961018447815526144 2.44961018447815526144 6.81592607503270109248 -0.82512673343775422286 5.72434710239406463472 6.81592607503270109248 2.44961018447815526144 -3.00828467871502702735 -3.00828467871502702735 -5.19144262399230083105 -5.19144262399230083105 -5.19144262399230083105 -4.09986365135366348511 -4.09986365135366348511 -4.09986365135366348511 -1.91670570607639056959 -0.82512673343775422286 -0.82512673343775422286 -3.00828467871502702735 -8.46617954190820931615 -0.82512673343775422286 3.54118915711679171920 -0.82512673343775422286 1.35803121183951858164 -1.91670570607639056959 -1.91670570607639056959 1.35803121183951858164 -1.91670570607639056959 -0.82512673343775422286 -3.00828467871502702735 -4.09986365135366348511 -4.09986365135366348511 -3.00828467871502702735 1.35803121183951858164 0.26645223920088217939 0.26645223920088217939 -1.91670570607639056959 -5.19144262399230083105 -1.91670570607639056959 -1.91670570607639056959 -3.00828467871502702735 -0.82512673343775422286 -1.91670570607639056959 -3.00828467871502702735 2.44961018447815526144 -1.91670570607639056959 -0.82512673343775422286 3.54118915711679171920 -0.82512673343775422286 -1.91670570607639056959 -0.82512673343775422286 1.35803121183951858164 0.26645223920088217939 -0.82512673343775422286 4.63276812975542728879 0.26645223920088217939 -0.82512673343775422286 3.54118915711679171920 -3.00828467871502702735 -3.00828467871502702735 -1.91670570607639056959 -5.19144262399230083105 -6.28302159663093728881 -5.19144262399230083105 -3.00828467871502702735 -7.37460056926957285839 -7.37460056926957285839 -6.28302159663093728881 0.26645223920088217939 1.35803121183951858164 -0.82512673343775422286 4.63276812975542728879 3.54118915711679171920 -0.82512673343775422286 -0.82512673343775422286 1.35803121183951858164 -3.00828467871502702735 -6.28302159663093728881 -0.82512673343775422286 -0.82512673343775422286 -1.91670570607639056959 0.26645223920088217939 -1.91670570607639056959 -1.91670570607639056959 -1.91670570607639056959 -3.00828467871502702735 -4.09986365135366348511 -1.91670570607639056959 -3.00828467871502702735 -5.19144262399230083105 -0.82512673343775422286 0.26645223920088217939 2.44961018447815526144 4.63276812975542728879 4.63276812975542728879 4.63276812975542728879 -0.82512673343775422286 0.26645223920088217939 -0.82512673343775422286 4.63276812975542728879 3.54118915711679171920 3.54118915711679171920 2.44961018447815526144 5.72434710239406463472 1.35803121183951858164 -0.82512673343775422286 3.54118915711679171920 -0.82512673343775422286 4.63276812975542728879 2.44961018447815526144 2.44961018447815526144 2.44961018447815526144 -1.91670570607639056959 -0.82512673343775422286 -3.00828467871502702735 -1.91670570607639056959 -0.82512673343775422286 3.54118915711679171920 -1.91670570607639056959 -3.00828467871502702735 -0.82512673343775422286 0.26645223920088217939 0.26645223920088217939 -0.82512673343775422286 -4.09986365135366348511 -0.82512673343775422286 2.44961018447815526144 -0.82512673343775422286 0.26645223920088217939 1.35803121183951858164 -0.82512673343775422286 -1.91670570607639056959 -3.00828467871502702735 0.26645223920088217939 -0.82512673343775422286 -5.19144262399230083105 2.44961018447815526144 -3.00828467871502702735 -5.19144262399230083105 -6.28302159663093728881 -6.28302159663093728881 -8.46617954190820931615 -7.37460056926957285839 -8.46617954190820931615 -6.28302159663093728881 -13.92407440510139160494 -8.46617954190820931615 -5.19144262399230083105 -9.55775851454684577391 -8.46617954190820931615 -8.46617954190820931615 -1.91670570607639056959 3.54118915711679171920 -0.82512673343775422286 3.54118915711679171920 1.35803121183951858164 4.63276812975542728879 4.63276812975542728879 6.81592607503270109248 1.35803121183951858164 0.26645223920088217939 -1.91670570607639056959 1.35803121183951858164 7.90750504767133666206 4.63276812975542728879 3.54118915711679171920 3.54118915711679171920 2.44961018447815526144 -4.09986365135366348511 4.63276812975542728879 3.54118915711679171920 3.54118915711679171920 3.54118915711679171920 -7.37460056926957285839 1.35803121183951858164 1.35803121183951858164 2.44961018447815526144 2.44961018447815526144 1.35803121183951858164 -7.37460056926957285839 -0.82512673343775422286 5.72434710239406463472 -0.82512673343775422286 2.44961018447815526144 -0.82512673343775422286 0.26645223920088217939 0.26645223920088217939 0.26645223920088217939 0.26645223920088217939 0.26645223920088217939 2.44961018447815526144 -4.09986365135366348511 -6.28302159663093728881 0.26645223920088217939 -3.00828467871502702735 -5.19144262399230083105 -3.00828467871502702735 -1.91670570607639056959 -3.00828467871502702735 -5.19144262399230083105 -0.82512673343775422286 -4.09986365135366348511 -5.19144262399230083105 -3.00828467871502702735 -1.91670570607639056959 -3.00828467871502702735 -3.00828467871502702735 -4.09986365135366348511 1.35803121183951858164 -4.09986365135366348511 3.54118915711679171920 0.26645223920088217939 1.35803121183951858164 2.44961018447815526144 1.35803121183951858164 0.26645223920088217939 -3.00828467871502702735 -4.09986365135366348511 0.26645223920088217939 -3.00828467871502702735 0.26645223920088217939 0.26645223920088217939 -0.82512673343775422286 0.26645223920088217939 -4.09986365135366348511 -5.19144262399230083105 -4.09986365135366348511 -4.09986365135366348511 -0.82512673343775422286 -4.09986365135366348511 -3.00828467871502702735 -1.91670570607639056959 -0.82512673343775422286 -0.82512673343775422286 -0.82512673343775422286 1.35803121183951858164 -0.82512673343775422286 1.35803121183951858164 -1.91670570607639056959 0.26645223920088217939 -3.00828467871502702735 -3.00828467871502702735 -4.09986365135366348511 -0.82512673343775422286 -0.82512673343775422286 -1.91670570607639056959 -5.19144262399230083105 -5.19144262399230083105 -3.00828467871502702735 -1.91670570607639056959 -6.28302159663093728881 -5.19144262399230083105 -1.91670570607639056959 -7.37460056926957285839 -7.37460056926957285839 -10.64933748718548400802 -9.55775851454684577391 -8.46617954190820931615 -7.37460056926957285839 -4.09986365135366348511 -3.00828467871502702735 -3.00828467871502702735 0.26645223920088217939 -5.19144262399230083105 -1.91670570607639056959 -5.19144262399230083105 -0.82512673343775422286 -3.00828467871502702735 -3.00828467871502702735 -1.91670570607639056959 -5.19144262399230083105 2.44961018447815526144 -0.82512673343775422286 1.35803121183951858164 -5.19144262399230083105 -3.00828467871502702735 -1.91670570607639056959 -10.64933748718548400802 -8.46617954190820931615 -6.28302159663093728881 -9.55775851454684577391 -10.64933748718548400802 -8.46617954190820931615 -7.37460056926957285839 -10.64933748718548400802 -8.46617954190820931615 -9.55775851454684577391 -8.46617954190820931615 -11.74091645982411868943 -9.55775851454684577391 -6.28302159663093728881 -9.55775851454684577391 -7.37460056926957285839 -6.28302159663093728881 -6.28302159663093728881 -1.91670570607639056959 -6.28302159663093728881 -0.82512673343775422286 -4.09986365135366348511 -1.91670570607639056959 -5.19144262399230083105 -10.64933748718548400802 -5.19144262399230083105 -7.37460056926957285839 -4.09986365135366348511 -9.55775851454684577391 -7.37460056926957285839 -6.28302159663093728881 -5.19144262399230083105 0.26645223920088217939 1.35803121183951858164 1.35803121183951858164 5.72434710239406463472 4.63276812975542728879 10.09066299294861046576 8.99908402030997400800 11.18224196558724692352 13.36539991086451983904 14.45697888350315452044 12.27382093822588338128 13.36539991086451983904 14.45697888350315452044 14.45697888350315452044 13.36539991086451983904 12.27382093822588338128 15.54855785614179275456 13.36539991086451983904 12.27382093822588338128 8.99908402030997400800 11.18224196558724692352 11.18224196558724692352 8.99908402030997400800 10.09066299294861046576 10.09066299294861046576 12.27382093822588338128 13.36539991086451983904 10.09066299294861046576 10.09066299294861046576 12.27382093822588338128 7.90750504767133666206 13.36539991086451983904 14.45697888350315452044 11.18224196558724692352 10.09066299294861046576 12.27382093822588338128 11.18224196558724692352 13.36539991086451983904 15.54855785614179275456 14.45697888350315452044 13.36539991086451983904 10.09066299294861046576 13.36539991086451983904 12.27382093822588338128 13.36539991086451983904 14.45697888350315452044 10.09066299294861046576 4.63276812975542728879 0.26645223920088217939 1.35803121183951858164 2.44961018447815526144 0.26645223920088217939 -0.82512673343775422286 1.35803121183951858164 -3.00828467871502702735 1.35803121183951858164 1.35803121183951858164 3.54118915711679171920 2.44961018447815526144 -0.82512673343775422286 -0.82512673343775422286 0.26645223920088217939 -0.82512673343775422286 0.26645223920088217939 -0.82512673343775422286 -0.82512673343775422286 1.35803121183951858164 -1.91670570607639056959 1.35803121183951858164 0.26645223920088217939 2.44961018447815526144 2.44961018447815526144 -0.82512673343775422286 -1.91670570607639056959 1.35803121183951858164 0.26645223920088217939 1.35803121183951858164 -0.82512673343775422286 -0.82512673343775422286 0.26645223920088217939 1.35803121183951858164 -1.91670570607639056959 -3.00828467871502702735 -0.82512673343775422286 -0.82512673343775422286 -4.09986365135366348511 -1.91670570607639056959 -3.00828467871502702735 -3.00828467871502702735 -1.91670570607639056959 -5.19144262399230083105 -3.00828467871502702735 0.26645223920088217939 -4.09986365135366348511 -4.09986365135366348511 -1.91670570607639056959 -3.00828467871502702735 -1.91670570607639056959 -0.82512673343775422286 -1.91670570607639056959 -0.82512673343775422286 -5.19144262399230083105 -5.19144262399230083105 -4.09986365135366348511 -1.91670570607639056959 -1.91670570607639056959 -1.91670570607639056959 0.26645223920088217939 0.26645223920088217939 2.44961018447815526144 0.26645223920088217939 2.44961018447815526144 -0.82512673343775422286 0.26645223920088217939 -0.82512673343775422286 0.26645223920088217939 0.26645223920088217939 -3.00828467871502702735 -1.91670570607639056959 -0.82512673343775422286 -4.09986365135366348511 -7.37460056926957285839 -10.64933748718548400802 -9.55775851454684577391 -5.19144262399230083105 -6.28302159663093728881 -3.00828467871502702735 -3.00828467871502702735 -3.00828467871502702735 -4.09986365135366348511 -6.28302159663093728881 -3.00828467871502702735 -4.09986365135366348511 -3.00828467871502702735 -4.09986365135366348511 -7.37460056926957285839 -5.19144262399230083105 -4.09986365135366348511 -3.00828467871502702735 -4.09986365135366348511 -3.00828467871502702735 -3.00828467871502702735 -0.82512673343775422286 0.26645223920088217939 -0.82512673343775422286 -4.09986365135366348511 -0.82512673343775422286 -0.82512673343775422286 0.26645223920088217939 -4.09986365135366348511 -5.19144262399230083105 -3.00828467871502702735 -6.28302159663093728881 -1.91670570607639056959 -5.19144262399230083105 -0.82512673343775422286 -4.09986365135366348511 -6.28302159663093728881 -6.28302159663093728881 -4.09986365135366348511 -0.82512673343775422286 -3.00828467871502702735 -6.28302159663093728881 -1.91670570607639056959 -0.82512673343775422286 -3.00828467871502702735 -4.09986365135366348511 -5.19144262399230083105 -4.09986365135366348511 -6.28302159663093728881 -1.91670570607639056959 -8.46617954190820931615 -4.09986365135366348511 -3.00828467871502702735 -6.28302159663093728881 -4.09986365135366348511 -4.09986365135366348511 -3.00828467871502702735 -8.46617954190820931615 -1.91670570607639056959 -3.00828467871502702735 -3.00828467871502702735 -3.00828467871502702735 -4.09986365135366348511 -5.19144262399230083105 -6.28302159663093728881 -3.00828467871502702735 -6.28302159663093728881 -0.82512673343775422286 -0.82512673343775422286 -1.91670570607639056959 -1.91670570607639056959 -5.19144262399230083105 -3.00828467871502702735 -4.09986365135366348511 -1.91670570607639056959 -0.82512673343775422286 -0.82512673343775422286 -4.09986365135366348511 -5.19144262399230083105 -5.19144262399230083105 -7.37460056926957285839 -7.37460056926957285839 -10.64933748718548400802 -9.55775851454684577391 -10.64933748718548400802 -7.37460056926957285839 -8.46617954190820931615 -5.19144262399230083105 -7.37460056926957285839 -6.28302159663093728881 -7.37460056926957285839 -5.19144262399230083105 -6.28302159663093728881 3.54118915711679171920 2.44961018447815526144 -3.00828467871502702735 -0.82512673343775422286 1.35803121183951858164 6.81592607503270109248 3.54118915711679171920 4.63276812975542728879 3.54118915711679171920 5.72434710239406463472 1.35803121183951858164 4.63276812975542728879 0.26645223920088217939 -3.00828467871502702735 0.26645223920088217939 2.44961018447815526144 -1.91670570607639056959 1.35803121183951858164 -1.91670570607639056959 -5.19144262399230083105 -4.09986365135366348511 2.44961018447815526144 0.26645223920088217939 -1.91670570607639056959 0.26645223920088217939 -3.00828467871502702735 -5.19144262399230083105 -5.19144262399230083105 -4.09986365135366348511 -4.09986365135366348511 -5.19144262399230083105 -5.19144262399230083105 -5.19144262399230083105 -0.82512673343775422286 -1.91670570607639056959 -1.91670570607639056959 -0.82512673343775422286 0.26645223920088217939 0.26645223920088217939 -3.00828467871502702735 -0.82512673343775422286 -1.91670570607639056959 1.35803121183951858164 -0.82512673343775422286 3.54118915711679171920 3.54118915711679171920 1.35803121183951858164 1.35803121183951858164 0.26645223920088217939 0.26645223920088217939 -0.82512673343775422286 0.26645223920088217939 -4.09986365135366348511 -8.46617954190820931615 -3.00828467871502702735 -6.28302159663093728881 -10.64933748718548400802 -9.55775851454684577391 -8.46617954190820931615 -7.37460056926957285839 -11.74091645982411868943 -7.37460056926957285839 -7.37460056926957285839 -10.64933748718548400802 -6.28302159663093728881 -4.09986365135366348511 -7.37460056926957285839 -7.37460056926957285839 -3.00828467871502702735 -3.00828467871502702735 -5.19144262399230083105 -3.00828467871502702735 -7.37460056926957285839 -9.55775851454684577391 -3.00828467871502702735 -5.19144262399230083105 -0.82512673343775422286 -3.00828467871502702735 0.26645223920088217939 -6.28302159663093728881 0.26645223920088217939 -8.46617954190820931615 -3.00828467871502702735 -7.37460056926957285839 -7.37460056926957285839 -6.28302159663093728881 -4.09986365135366348511 -5.19144262399230083105 -1.91670570607639056959 -3.00828467871502702735 -4.09986365135366348511 -3.00828467871502702735 -8.46617954190820931615 -7.37460056926957285839 -7.37460056926957285839 -7.37460056926957285839 -10.64933748718548400802 -9.55775851454684577391 -13.92407440510139160494 -10.64933748718548400802 -13.92407440510139160494 -8.46617954190820931615 -13.92407440510139160494 -10.64933748718548400802 -11.74091645982411868943 -10.64933748718548400802 -11.74091645982411868943 -7.37460056926957285839 -9.55775851454684577391 -10.64933748718548400802 -10.64933748718548400802 -8.46617954190820931615 -7.37460056926957285839 -10.64933748718548400802 -4.09986365135366348511 -3.00828467871502702735 -4.09986365135366348511 -4.09986365135366348511 -3.00828467871502702735 -1.91670570607639056959 -6.28302159663093728881 -9.55775851454684577391 -7.37460056926957285839 -9.55775851454684577391 -8.46617954190820931615 -11.74091645982411868943 -10.64933748718548400802 -12.83249543246275692354 -11.74091645982411868943 -10.64933748718548400802 -12.83249543246275692354 -10.64933748718548400802 -15.01565337774002806270 -8.46617954190820931615 -16.10723235037866629682 -7.37460056926957285839 -7.37460056926957285839 1.35803121183951858164 3.54118915711679171920 -6.28302159663093728881 -5.19144262399230083105 -8.46617954190820931615 -7.37460056926957285839 -4.09986365135366348511 -6.28302159663093728881 -10.64933748718548400802 -3.00828467871502702735 0.26645223920088217939 -1.91670570607639056959 -0.82512673343775422286 -3.00828467871502702735 -3.00828467871502702735 -4.09986365135366348511 -5.19144262399230083105 -7.37460056926957285839 -7.37460056926957285839 -1.91670570607639056959 0.26645223920088217939 -1.91670570607639056959 2.44961018447815526144 0.26645223920088217939 -7.37460056926957285839 3.54118915711679171920 8.99908402030997400800 2.44961018447815526144 3.54118915711679171920 3.54118915711679171920 6.81592607503270109248 6.81592607503270109248 1.35803121183951858164 1.35803121183951858164 -1.91670570607639056959 4.63276812975542728879 6.81592607503270109248 7.90750504767133666206 8.99908402030997400800 8.99908402030997400800 10.09066299294861046576 5.72434710239406463472 11.18224196558724692352 10.09066299294861046576 4.63276812975542728879 7.90750504767133666206 8.99908402030997400800 8.99908402030997400800 3.54118915711679171920 11.18224196558724692352 7.90750504767133666206 8.99908402030997400800 8.99908402030997400800 6.81592607503270109248 6.81592607503270109248 7.90750504767133666206 6.81592607503270109248 3.54118915711679171920 5.72434710239406463472 4.63276812975542728879 4.63276812975542728879 3.54118915711679171920 -0.82512673343775422286 -6.28302159663093728881 -4.09986365135366348511 -4.09986365135366348511 -3.00828467871502702735 -5.19144262399230083105 -5.19144262399230083105 -5.19144262399230083105 -3.00828467871502702735 -1.91670570607639056959 -5.19144262399230083105 -4.09986365135366348511 -3.00828467871502702735 0.26645223920088217939 5.72434710239406463472 -0.82512673343775422286 -0.82512673343775422286 -5.19144262399230083105 -8.46617954190820931615 -3.00828467871502702735 -1.91670570607639056959 -1.91670570607639056959 -5.19144262399230083105 6.81592607503270109248 2.44961018447815526144 6.81592607503270109248 4.63276812975542728879 4.63276812975542728879 0.26645223920088217939 -1.91670570607639056959 1.35803121183951858164 -0.82512673343775422286 1.35803121183951858164 -1.91670570607639056959 -1.91670570607639056959 3.54118915711679171920 -3.00828467871502702735 0.26645223920088217939 0.26645223920088217939 2.44961018447815526144 1.35803121183951858164 -1.91670570607639056959 3.54118915711679171920 1.35803121183951858164 2.44961018447815526144 2.44961018447815526144 1.35803121183951858164 2.44961018447815526144 4.63276812975542728879 5.72434710239406463472 2.44961018447815526144 1.35803121183951858164 2.44961018447815526144 4.63276812975542728879 2.44961018447815526144 7.90750504767133666206 4.63276812975542728879 2.44961018447815526144 6.81592607503270109248 4.63276812975542728879 5.72434710239406463472 3.54118915711679171920 4.63276812975542728879 0.26645223920088217939 3.54118915711679171920 -0.82512673343775422286 -0.82512673343775422286 1.35803121183951858164 -0.82512673343775422286 -3.00828467871502702735 0.26645223920088217939 -0.82512673343775422286 0.26645223920088217939 -6.28302159663093728881 -7.37460056926957285839 -8.46617954190820931615 -5.19144262399230083105 -6.28302159663093728881 -7.37460056926957285839 -7.37460056926957285839 -7.37460056926957285839 -11.74091645982411868943 -4.09986365135366348511 -5.19144262399230083105 -7.37460056926957285839 -5.19144262399230083105 -6.28302159663093728881 -3.00828467871502702735 -5.19144262399230083105 -4.09986365135366348511 -5.19144262399230083105 -5.19144262399230083105 -7.37460056926957285839 -7.37460056926957285839 -6.28302159663093728881 -8.46617954190820931615 -5.19144262399230083105 -7.37460056926957285839 -7.37460056926957285839 -4.09986365135366348511 -3.00828467871502702735 -6.28302159663093728881 -5.19144262399230083105 -7.37460056926957285839 -8.46617954190820931615 -9.55775851454684577391 -7.37460056926957285839 -10.64933748718548400802 -10.64933748718548400802 -17.19881132301729920187 -8.46617954190820931615 -9.55775851454684577391 -10.64933748718548400802 -10.64933748718548400802 -8.46617954190820931615 -6.28302159663093728881 -7.37460056926957285839 -7.37460056926957285839 -6.28302159663093728881 -13.92407440510139160494 -7.37460056926957285839 -7.37460056926957285839 -6.28302159663093728881 -7.37460056926957285839 -9.55775851454684577391 -9.55775851454684577391 -11.74091645982411868943 -7.37460056926957285839 -10.64933748718548400802 -8.46617954190820931615 -7.37460056926957285839 -6.28302159663093728881 -8.46617954190820931615 -7.37460056926957285839 -8.46617954190820931615 -5.19144262399230083105 -5.19144262399230083105 -10.64933748718548400802 -7.37460056926957285839 -5.19144262399230083105 -7.37460056926957285839 -7.37460056926957285839 -8.46617954190820931615 -8.46617954190820931615 -8.46617954190820931615 -5.19144262399230083105 -8.46617954190820931615 -10.64933748718548400802 -9.55775851454684577391 -9.55775851454684577391 -11.74091645982411868943 -10.64933748718548400802 -9.55775851454684577391 -12.83249543246275692354 -12.83249543246275692354 -8.46617954190820931615 -6.28302159663093728881 -5.19144262399230083105 -9.55775851454684577391 -8.46617954190820931615 -10.64933748718548400802 -9.55775851454684577391 -8.46617954190820931615 -6.28302159663093728881 -7.37460056926957285839 -9.55775851454684577391 -8.46617954190820931615 -6.28302159663093728881 -3.00828467871502702735 -7.37460056926957285839 -7.37460056926957285839 -8.46617954190820931615 -10.64933748718548400802 -9.55775851454684577391 -7.37460056926957285839 -6.28302159663093728881 -6.28302159663093728881 -6.28302159663093728881 -6.28302159663093728881 -7.37460056926957285839 -1.91670570607639056959 -7.37460056926957285839 -4.09986365135366348511 -6.28302159663093728881 -4.09986365135366348511 -1.91670570607639056959 -1.91670570607639056959 0.26645223920088217939 -0.82512673343775422286 -3.00828467871502702735 -4.09986365135366348511 1.35803121183951858164 -1.91670570607639056959 -1.91670570607639056959 -1.91670570607639056959 -4.09986365135366348511 -5.19144262399230083105 -1.91670570607639056959 -0.82512673343775422286 -1.91670570607639056959 -1.91670570607639056959 -3.00828467871502702735 -4.09986365135366348511 1.35803121183951858164 -1.91670570607639056959 -7.37460056926957285839 -5.19144262399230083105 -4.09986365135366348511 -6.28302159663093728881 -6.28302159663093728881 -3.00828467871502702735 -0.82512673343775422286 -1.91670570607639056959 -4.09986365135366348511 0.26645223920088217939 -5.19144262399230083105 -5.19144262399230083105 -6.28302159663093728881 -5.19144262399230083105 -6.28302159663093728881 -1.91670570607639056959 -3.00828467871502702735 -0.82512673343775422286 -6.28302159663093728881 -5.19144262399230083105 -3.00828467871502702735 -3.00828467871502702735 -1.91670570607639056959 -1.91670570607639056959 -1.91670570607639056959 -4.09986365135366348511 -4.09986365135366348511 1.35803121183951858164 -7.37460056926957285839 -3.00828467871502702735 -5.19144262399230083105 -1.91670570607639056959 -1.91670570607639056959 -1.91670570607639056959 -0.82512673343775422286 -3.00828467871502702735 0.26645223920088217939 0.26645223920088217939 -0.82512673343775422286 -1.91670570607639056959 -3.00828467871502702735 -1.91670570607639056959 1.35803121183951858164 1.35803121183951858164 -0.82512673343775422286 -3.00828467871502702735 -3.00828467871502702735 -1.91670570607639056959 -1.91670570607639056959 -6.28302159663093728881 -0.82512673343775422286 0.26645223920088217939 -1.91670570607639056959 -4.09986365135366348511 0.26645223920088217939 -4.09986365135366348511 0.26645223920088217939 -3.00828467871502702735 -4.09986365135366348511 -3.00828467871502702735 -1.91670570607639056959 -7.37460056926957285839 -3.00828467871502702735 -7.37460056926957285839 -5.19144262399230083105 -7.37460056926957285839 -5.19144262399230083105 -8.46617954190820931615 -3.00828467871502702735 -5.19144262399230083105 -7.37460056926957285839 -7.37460056926957285839 -6.28302159663093728881 -3.00828467871502702735 -3.00828467871502702735 -1.91670570607639056959 -4.09986365135366348511 -6.28302159663093728881 -3.00828467871502702735 -6.28302159663093728881 -7.37460056926957285839 -6.28302159663093728881 -4.09986365135366348511 -3.00828467871502702735 -3.00828467871502702735 -1.91670570607639056959 -1.91670570607639056959 -3.00828467871502702735 -1.91670570607639056959 -1.91670570607639056959 -5.19144262399230083105 -9.55775851454684577391 -1.91670570607639056959 -3.00828467871502702735 -1.91670570607639056959 -1.91670570607639056959 -5.19144262399230083105 -4.09986365135366348511 -1.91670570607639056959 0.26645223920088217939 1.35803121183951858164 0.26645223920088217939 1.35803121183951858164 1.35803121183951858164 0.26645223920088217939 -4.09986365135366348511 -1.91670570607639056959 -5.19144262399230083105 -4.09986365135366348511 -0.82512673343775422286 -6.28302159663093728881 -1.91670570607639056959 -0.82512673343775422286 -0.82512673343775422286 -3.00828467871502702735 -5.19144262399230083105 -3.00828467871502702735 -6.28302159663093728881 -6.28302159663093728881 -4.09986365135366348511 -5.19144262399230083105 -5.19144262399230083105 -5.19144262399230083105 -4.09986365135366348511 -7.37460056926957285839 -7.37460056926957285839 -4.09986365135366348511 -3.00828467871502702735 -7.37460056926957285839 -7.37460056926957285839 -5.19144262399230083105 -7.37460056926957285839 -4.09986365135366348511 -4.09986365135366348511 -7.37460056926957285839 -4.09986365135366348511 -3.00828467871502702735 -3.00828467871502702735 -6.28302159663093728881 -1.91670570607639056959 -5.19144262399230083105 -5.19144262399230083105 -4.09986365135366348511 -3.00828467871502702735 -6.28302159663093728881 -0.82512673343775422286 -0.82512673343775422286 -4.09986365135366348511 -7.37460056926957285839 -5.19144262399230083105 -4.09986365135366348511 -6.28302159663093728881 -5.19144262399230083105 -4.09986365135366348511 -6.28302159663093728881 -4.09986365135366348511 -1.91670570607639056959 -4.09986365135366348511 -5.19144262399230083105 -7.37460056926957285839 -4.09986365135366348511 -6.28302159663093728881 -6.28302159663093728881 -7.37460056926957285839 -7.37460056926957285839 -1.91670570607639056959 -9.55775851454684577391 -6.28302159663093728881 -5.19144262399230083105 -4.09986365135366348511 -3.00828467871502702735 0.26645223920088217939 1.35803121183951858164 -1.91670570607639056959 -1.91670570607639056959 -6.28302159663093728881 -0.82512673343775422286 0.26645223920088217939 0.26645223920088217939 -3.00828467871502702735 -5.19144262399230083105 -1.91670570607639056959 -5.19144262399230083105 -0.82512673343775422286 -8.46617954190820931615 -4.09986365135366348511 -4.09986365135366348511 -1.91670570607639056959 -1.91670570607639056959 -4.09986365135366348511 -1.91670570607639056959 -5.19144262399230083105 -1.91670570607639056959 2.44961018447815526144 -3.00828467871502702735 -4.09986365135366348511 -7.37460056926957285839 -1.91670570607639056959 -0.82512673343775422286 -7.37460056926957285839 -5.19144262399230083105 -6.28302159663093728881 -5.19144262399230083105 -3.00828467871502702735 -3.00828467871502702735 -7.37460056926957285839 -4.09986365135366348511 -6.28302159663093728881 -5.19144262399230083105 -8.46617954190820931615 -3.00828467871502702735 -1.91670570607639056959 -7.37460056926957285839 -3.00828467871502702735 -6.28302159663093728881 -6.28302159663093728881 -7.37460056926957285839 -5.19144262399230083105 -3.00828467871502702735 -7.37460056926957285839 -8.46617954190820931615 -8.46617954190820931615 -7.37460056926957285839 -7.37460056926957285839 -4.09986365135366348511 -0.82512673343775422286 -7.37460056926957285839 -4.09986365135366348511 -9.55775851454684577391 -4.09986365135366348511 -4.09986365135366348511 -3.00828467871502702735 -8.46617954190820931615 -11.74091645982411868943 -6.28302159663093728881 -4.09986365135366348511 -4.09986365135366348511 -5.19144262399230083105 -6.28302159663093728881 -3.00828467871502702735 -6.28302159663093728881 -6.28302159663093728881 -5.19144262399230083105 -3.00828467871502702735 -1.91670570607639056959 -3.00828467871502702735 -5.19144262399230083105 -5.19144262399230083105 -3.00828467871502702735 -7.37460056926957285839 -5.19144262399230083105 -3.00828467871502702735 -4.09986365135366348511 -3.00828467871502702735 -3.00828467871502702735 -1.91670570607639056959 -0.82512673343775422286 -1.91670570607639056959 -0.82512673343775422286 -6.28302159663093728881 -4.09986365135366348511 -4.09986365135366348511 -6.28302159663093728881 -3.00828467871502702735 2.44961018447815526144 0.26645223920088217939 1.35803121183951858164 2.44961018447815526144 0.26645223920088217939 0.26645223920088217939 0.26645223920088217939 1.35803121183951858164 1.35803121183951858164 1.35803121183951858164 3.54118915711679171920 3.54118915711679171920 -1.91670570607639056959 3.54118915711679171920 -3.00828467871502702735 -3.00828467871502702735 0.26645223920088217939 0.26645223920088217939 1.35803121183951858164 -0.82512673343775422286 -1.91670570607639056959 -0.82512673343775422286 -1.91670570607639056959 0.26645223920088217939 3.54118915711679171920 -0.82512673343775422286 0.26645223920088217939 -1.91670570607639056959 -0.82512673343775422286 0.26645223920088217939 -1.91670570607639056959 0.26645223920088217939 -3.00828467871502702735 -4.09986365135366348511 -0.82512673343775422286 -4.09986365135366348511 0.26645223920088217939 -3.00828467871502702735 -3.00828467871502702735 -1.91670570607639056959 0.26645223920088217939 -1.91670570607639056959 -5.19144262399230083105 -0.82512673343775422286 -3.00828467871502702735 -5.19144262399230083105 -1.91670570607639056959 -1.91670570607639056959 1.35803121183951858164 1.35803121183951858164 -3.00828467871502702735 -5.19144262399230083105 -6.28302159663093728881 -5.19144262399230083105 -6.28302159663093728881 -1.91670570607639056959 -5.19144262399230083105 -3.00828467871502702735 -5.19144262399230083105 0.26645223920088217939 0.26645223920088217939 -4.09986365135366348511 -3.00828467871502702735 -1.91670570607639056959 -0.82512673343775422286 -3.00828467871502702735 -5.19144262399230083105 -0.82512673343775422286 -8.46617954190820931615 1.35803121183951858164 -0.82512673343775422286 -0.82512673343775422286 -1.91670570607639056959 -0.82512673343775422286 -1.91670570607639056959 -6.28302159663093728881 -6.28302159663093728881 -5.19144262399230083105 -4.09986365135366348511 -4.09986365135366348511 -3.00828467871502702735 -3.00828467871502702735 -0.82512673343775422286 -3.00828467871502702735 -5.19144262399230083105 -4.09986365135366348511 -4.09986365135366348511 -5.19144262399230083105 -0.82512673343775422286 -0.82512673343775422286 -1.91670570607639056959 -1.91670570607639056959 -6.28302159663093728881 -5.19144262399230083105 -5.19144262399230083105 -5.19144262399230083105 -4.09986365135366348511 -6.28302159663093728881 -5.19144262399230083105 -3.00828467871502702735 -1.91670570607639056959 -7.37460056926957285839 -5.19144262399230083105 -7.37460056926957285839 -8.46617954190820931615 -5.19144262399230083105 -6.28302159663093728881 -4.09986365135366348511 -6.28302159663093728881 -7.37460056926957285839 -5.19144262399230083105 -8.46617954190820931615 -8.46617954190820931615 -6.28302159663093728881 -4.09986365135366348511 -8.46617954190820931615 -7.37460056926957285839 -5.19144262399230083105 -6.28302159663093728881 -5.19144262399230083105 -7.37460056926957285839 -5.19144262399230083105 -5.19144262399230083105 -7.37460056926957285839 -7.37460056926957285839 -3.00828467871502702735 -5.19144262399230083105 -7.37460056926957285839 -7.37460056926957285839 -7.37460056926957285839 -5.19144262399230083105 -7.37460056926957285839 -7.37460056926957285839 -5.19144262399230083105 -9.55775851454684577391 -6.28302159663093728881 -5.19144262399230083105 -5.19144262399230083105 -5.19144262399230083105 -6.28302159663093728881 -6.28302159663093728881 -6.28302159663093728881 -7.37460056926957285839 -4.09986365135366348511 -4.09986365135366348511 -6.28302159663093728881 -7.37460056926957285839 -7.37460056926957285839 -4.09986365135366348511 -6.28302159663093728881 -4.09986365135366348511 -6.28302159663093728881 -6.28302159663093728881 -9.55775851454684577391 -3.00828467871502702735 -5.19144262399230083105 -6.28302159663093728881 -4.09986365135366348511 -3.00828467871502702735 -5.19144262399230083105 -4.09986365135366348511 -1.91670570607639056959 -4.09986365135366348511 -4.09986365135366348511 -6.28302159663093728881 -5.19144262399230083105 -4.09986365135366348511 -6.28302159663093728881 -5.19144262399230083105 -4.09986365135366348511 -1.91670570607639056959 -4.09986365135366348511 -6.28302159663093728881 -5.19144262399230083105 -5.19144262399230083105 -6.28302159663093728881 -7.37460056926957285839 -4.09986365135366348511 -9.55775851454684577391 -7.37460056926957285839 -1.91670570607639056959 -6.28302159663093728881 -4.09986365135366348511 -4.09986365135366348511 -5.19144262399230083105 -6.28302159663093728881 -7.37460056926957285839 -3.00828467871502702735 -10.64933748718548400802 -8.46617954190820931615 -7.37460056926957285839 -5.19144262399230083105 -3.00828467871502702735 -3.00828467871502702735 -5.19144262399230083105 -6.28302159663093728881 -5.19144262399230083105 -3.00828467871502702735 -6.28302159663093728881 -5.19144262399230083105 -4.09986365135366348511 -5.19144262399230083105 -5.19144262399230083105 -1.91670570607639056959 -3.00828467871502702735 -5.19144262399230083105 -5.19144262399230083105 -1.91670570607639056959 -3.00828467871502702735 -0.82512673343775422286 -4.09986365135366348511 -6.28302159663093728881 -3.00828467871502702735 -3.00828467871502702735 -1.91670570607639056959 -3.00828467871502702735 -1.91670570607639056959 -5.19144262399230083105 -3.00828467871502702735 -4.09986365135366348511 -0.82512673343775422286 -3.00828467871502702735 1.35803121183951858164 -5.19144262399230083105 -7.37460056926957285839 -5.19144262399230083105 -1.91670570607639056959 -4.09986365135366348511 -5.19144262399230083105 -4.09986365135366348511 -4.09986365135366348511 -4.09986365135366348511 -4.09986365135366348511 -4.09986365135366348511 -8.46617954190820931615 -7.37460056926957285839 -6.28302159663093728881 -6.28302159663093728881 -5.19144262399230083105 -5.19144262399230083105 -8.46617954190820931615 -5.19144262399230083105 -3.00828467871502702735 -5.19144262399230083105 0.26645223920088217939 -5.19144262399230083105 -6.28302159663093728881 -4.09986365135366348511 -7.37460056926957285839 -3.00828467871502702735 -9.55775851454684577391 -7.37460056926957285839 -10.64933748718548400802 -4.09986365135366348511 -8.46617954190820931615 -5.19144262399230083105 -4.09986365135366348511 -9.55775851454684577391 -7.37460056926957285839 -6.28302159663093728881 -5.19144262399230083105 -6.28302159663093728881 -5.19144262399230083105 -6.28302159663093728881 -3.00828467871502702735 -6.28302159663093728881 -6.28302159663093728881 -3.00828467871502702735 0.26645223920088217939 -1.91670570607639056959 -3.00828467871502702735 -5.19144262399230083105 -6.28302159663093728881 -3.00828467871502702735 -3.00828467871502702735 -5.19144262399230083105 -1.91670570607639056959 -0.82512673343775422286 -6.28302159663093728881 -3.00828467871502702735 -1.91670570607639056959 -3.00828467871502702735 -5.19144262399230083105 -3.00828467871502702735 -4.09986365135366348511 -1.91670570607639056959 -8.46617954190820931615 -1.91670570607639056959 -3.00828467871502702735 1.35803121183951858164 0.26645223920088217939 -3.00828467871502702735 -5.19144262399230083105 -6.28302159663093728881 0.26645223920088217939 -3.00828467871502702735 -4.09986365135366348511 -1.91670570607639056959 -6.28302159663093728881 -6.28302159663093728881 -3.00828467871502702735 -8.46617954190820931615 -0.82512673343775422286 -4.09986365135366348511 -6.28302159663093728881 -4.09986365135366348511 -1.91670570607639056959 -6.28302159663093728881 -4.09986365135366348511 -4.09986365135366348511 -7.37460056926957285839 -3.00828467871502702735 -0.82512673343775422286 -1.91670570607639056959 -5.19144262399230083105 -0.82512673343775422286 -1.91670570607639056959 0.26645223920088217939 3.54118915711679171920 -1.91670570607639056959 -5.19144262399230083105 -0.82512673343775422286 -1.91670570607639056959 -3.00828467871502702735 -0.82512673343775422286 0.26645223920088217939 -3.00828467871502702735 -3.00828467871502702735 -1.91670570607639056959 -6.28302159663093728881 -1.91670570607639056959 -6.28302159663093728881 -1.91670570607639056959 0.26645223920088217939 0.26645223920088217939 -0.82512673343775422286 -6.28302159663093728881 -1.91670570607639056959 -1.91670570607639056959 0.26645223920088217939 -4.09986365135366348511 -1.91670570607639056959 -0.82512673343775422286 -4.09986365135366348511 -1.91670570607639056959 -3.00828467871502702735 -8.46617954190820931615 -0.82512673343775422286 -3.00828467871502702735 -0.82512673343775422286 0.26645223920088217939 1.35803121183951858164 -3.00828467871502702735 -6.28302159663093728881 -4.09986365135366348511 -1.91670570607639056959 -1.91670570607639056959 -3.00828467871502702735 -7.37460056926957285839 -5.19144262399230083105 -3.00828467871502702735 -5.19144262399230083105 -4.09986365135366348511 -6.28302159663093728881 -0.82512673343775422286 -7.37460056926957285839 -7.37460056926957285839 -0.82512673343775422286 -5.19144262399230083105 -5.19144262399230083105 -4.09986365135366348511 -1.91670570607639056959 -4.09986365135366348511 -3.00828467871502702735 -1.91670570607639056959 -1.91670570607639056959 -6.28302159663093728881 -5.19144262399230083105 -4.09986365135366348511 -1.91670570607639056959 -3.00828467871502702735 -5.19144262399230083105 -1.91670570607639056959 -4.09986365135366348511 -0.82512673343775422286 -3.00828467871502702735 -3.00828467871502702735 -6.28302159663093728881 0.26645223920088217939 1.35803121183951858164 -5.19144262399230083105 -5.19144262399230083105 0.26645223920088217939 0.26645223920088217939 -0.82512673343775422286 -1.91670570607639056959 -0.82512673343775422286 0.26645223920088217939 -0.82512673343775422286 -1.91670570607639056959 -0.82512673343775422286 -1.91670570607639056959 -5.19144262399230083105 1.35803121183951858164 -4.09986365135366348511 -3.00828467871502702735 0.26645223920088217939 -1.91670570607639056959 -5.19144262399230083105 -4.09986365135366348511 -1.91670570607639056959 0.26645223920088217939 -0.82512673343775422286 -1.91670570607639056959 0.26645223920088217939 -3.00828467871502702735 0.26645223920088217939 -4.09986365135366348511 -4.09986365135366348511 -3.00828467871502702735 -3.00828467871502702735 -1.91670570607639056959 -5.19144262399230083105 -3.00828467871502702735 -7.37460056926957285839 -1.91670570607639056959 -4.09986365135366348511 -5.19144262399230083105 -1.91670570607639056959 -3.00828467871502702735 -5.19144262399230083105 -4.09986365135366348511 -3.00828467871502702735 -0.82512673343775422286 -3.00828467871502702735 -4.09986365135366348511 -1.91670570607639056959 -7.37460056926957285839 -5.19144262399230083105 -0.82512673343775422286 -5.19144262399230083105 -3.00828467871502702735 -9.55775851454684577391 -8.46617954190820931615 -6.28302159663093728881 -1.91670570607639056959 -4.09986365135366348511 -1.91670570607639056959 -4.09986365135366348511 -4.09986365135366348511 -1.91670570607639056959 -7.37460056926957285839 -5.19144262399230083105 -3.00828467871502702735 -5.19144262399230083105 -3.00828467871502702735 -6.28302159663093728881 -6.28302159663093728881 -6.28302159663093728881 -6.28302159663093728881 -1.91670570607639056959 -3.00828467871502702735 -5.19144262399230083105 -3.00828467871502702735 -5.19144262399230083105 -6.28302159663093728881 -7.37460056926957285839 -1.91670570607639056959 1.35803121183951858164 -4.09986365135366348511 -4.09986365135366348511 -3.00828467871502702735 -1.91670570607639056959 -3.00828467871502702735 0.26645223920088217939 -3.00828467871502702735 -3.00828467871502702735 -0.82512673343775422286 -1.91670570607639056959 -3.00828467871502702735 -4.09986365135366348511 -3.00828467871502702735 -5.19144262399230083105 -3.00828467871502702735 -5.19144262399230083105 -4.09986365135366348511 -3.00828467871502702735 -3.00828467871502702735 -0.82512673343775422286 -3.00828467871502702735 -1.91670570607639056959 -4.09986365135366348511 -3.00828467871502702735 2.44961018447815526144 -3.00828467871502702735 -0.82512673343775422286 -3.00828467871502702735 -1.91670570607639056959 0.26645223920088217939 -1.91670570607639056959 1.35803121183951858164 -3.00828467871502702735 -4.09986365135366348511 -3.00828467871502702735 -4.09986365135366348511 -0.82512673343775422286 -1.91670570607639056959 -7.37460056926957285839 -1.91670570607639056959 -4.09986365135366348511 -0.82512673343775422286 -3.00828467871502702735 -4.09986365135366348511 -1.91670570607639056959 -3.00828467871502702735 -3.00828467871502702735 -0.82512673343775422286 0.26645223920088217939 -3.00828467871502702735 1.35803121183951858164 -5.19144262399230083105 -1.91670570607639056959 -6.28302159663093728881 -0.82512673343775422286 0.26645223920088217939 -0.82512673343775422286 -1.91670570607639056959 -6.28302159663093728881 0.26645223920088217939 -3.00828467871502702735 -1.91670570607639056959 1.35803121183951858164 -3.00828467871502702735 -1.91670570607639056959 -1.91670570607639056959 0.26645223920088217939 -3.00828467871502702735 -4.09986365135366348511 -3.00828467871502702735 -0.82512673343775422286 1.35803121183951858164 -0.82512673343775422286 0.26645223920088217939 -1.91670570607639056959 -4.09986365135366348511 -0.82512673343775422286 1.35803121183951858164 -0.82512673343775422286 2.44961018447815526144 -0.82512673343775422286 -0.82512673343775422286 -0.82512673343775422286 -0.82512673343775422286 -0.82512673343775422286 5.72434710239406463472 2.44961018447815526144 0.26645223920088217939 6.81592607503270109248 3.54118915711679171920 2.44961018447815526144 -3.00828467871502702735 -0.82512673343775422286 -3.00828467871502702735 -1.91670570607639056959 -4.09986365135366348511 2.44961018447815526144 0.26645223920088217939 2.44961018447815526144 -1.91670570607639056959 -1.91670570607639056959 1.35803121183951858164 -0.82512673343775422286 -5.19144262399230083105 -1.91670570607639056959 -3.00828467871502702735 -0.82512673343775422286 -0.82512673343775422286 0.26645223920088217939 -4.09986365135366348511 1.35803121183951858164 -0.82512673343775422286 0.26645223920088217939 -0.82512673343775422286 0.26645223920088217939 0.26645223920088217939 -4.09986365135366348511 -3.00828467871502702735 -4.09986365135366348511 0.26645223920088217939 -4.09986365135366348511 0.26645223920088217939 1.35803121183951858164 2.44961018447815526144 2.44961018447815526144 -3.00828467871502702735 0.26645223920088217939 0.26645223920088217939 -1.91670570607639056959 -4.09986365135366348511 -5.19144262399230083105 -0.82512673343775422286 -1.91670570607639056959 2.44961018447815526144 2.44961018447815526144 1.35803121183951858164 4.63276812975542728879 0.26645223920088217939 2.44961018447815526144 8.99908402030997400800 6.81592607503270109248 4.63276812975542728879 6.81592607503270109248 6.81592607503270109248 7.90750504767133666206 7.90750504767133666206 4.63276812975542728879 5.72434710239406463472 4.63276812975542728879 7.90750504767133666206 7.90750504767133666206 8.99908402030997400800 6.81592607503270109248 8.99908402030997400800 10.09066299294861046576 6.81592607503270109248 7.90750504767133666206 7.90750504767133666206 5.72434710239406463472 4.63276812975542728879 8.99908402030997400800 5.72434710239406463472 6.81592607503270109248 5.72434710239406463472 5.72434710239406463472 5.72434710239406463472 4.63276812975542728879 2.44961018447815526144 -1.91670570607639056959 -3.00828467871502702735 -0.82512673343775422286 -3.00828467871502702735 -3.00828467871502702735 -6.28302159663093728881 -6.28302159663093728881 -5.19144262399230083105 -3.00828467871502702735 -1.91670570607639056959 -0.82512673343775422286 -4.09986365135366348511 -7.37460056926957285839 -7.37460056926957285839 -0.82512673343775422286 -6.28302159663093728881 -1.91670570607639056959 -4.09986365135366348511 -4.09986365135366348511 -4.09986365135366348511 -0.82512673343775422286 -6.28302159663093728881 -3.00828467871502702735 -3.00828467871502702735 -6.28302159663093728881 0.26645223920088217939 0.26645223920088217939 -0.82512673343775422286 -0.82512673343775422286 1.35803121183951858164 -0.82512673343775422286 1.35803121183951858164 -0.82512673343775422286 -3.00828467871502702735 -1.91670570607639056959 -6.28302159663093728881 -4.09986365135366348511 -5.19144262399230083105 -5.19144262399230083105 -5.19144262399230083105 -5.19144262399230083105 -4.09986365135366348511 -0.82512673343775422286 -1.91670570607639056959 -5.19144262399230083105 -3.00828467871502702735 -3.00828467871502702735 -4.09986365135366348511 -4.09986365135366348511 0.26645223920088217939 -0.82512673343775422286 -4.09986365135366348511 -3.00828467871502702735 -3.00828467871502702735 -1.91670570607639056959 -6.28302159663093728881 -0.82512673343775422286 -5.19144262399230083105 -6.28302159663093728881 -3.00828467871502702735 -0.82512673343775422286 -4.09986365135366348511 -6.28302159663093728881 -1.91670570607639056959 -6.28302159663093728881 -3.00828467871502702735 -3.00828467871502702735 -0.82512673343775422286 -1.91670570607639056959 -0.82512673343775422286 -0.82512673343775422286 -0.82512673343775422286 -4.09986365135366348511 -1.91670570607639056959 -4.09986365135366348511 -5.19144262399230083105 -6.28302159663093728881 -5.19144262399230083105 -4.09986365135366348511 -7.37460056926957285839 -3.00828467871502702735 -6.28302159663093728881 -3.00828467871502702735 -3.00828467871502702735 -0.82512673343775422286 -3.00828467871502702735 -4.09986365135366348511 -3.00828467871502702735 -1.91670570607639056959 -7.37460056926957285839 -5.19144262399230083105 -1.91670570607639056959 -1.91670570607639056959 1.35803121183951858164 -1.91670570607639056959 -0.82512673343775422286 -0.82512673343775422286 -0.82512673343775422286 0.26645223920088217939 0.26645223920088217939 -1.91670570607639056959 0.26645223920088217939 0.26645223920088217939 3.54118915711679171920 2.44961018447815526144 1.35803121183951858164 2.44961018447815526144 1.35803121183951858164 0.26645223920088217939 -0.82512673343775422286 2.44961018447815526144 0.26645223920088217939 1.35803121183951858164 -1.91670570607639056959 -0.82512673343775422286 -0.82512673343775422286 -3.00828467871502702735 -4.09986365135366348511 -3.00828467871502702735 1.35803121183951858164 -3.00828467871502702735 -0.82512673343775422286 -0.82512673343775422286 -4.09986365135366348511 -0.82512673343775422286 -1.91670570607639056959 -0.82512673343775422286 -1.91670570607639056959 -1.91670570607639056959 0.26645223920088217939 -6.28302159663093728881 -0.82512673343775422286 2.44961018447815526144 -4.09986365135366348511 -4.09986365135366348511 -1.91670570607639056959 -3.00828467871502702735 -1.91670570607639056959 0.26645223920088217939 -3.00828467871502702735 -0.82512673343775422286 -0.82512673343775422286 -3.00828467871502702735 0.26645223920088217939 -3.00828467871502702735 -0.82512673343775422286 -4.09986365135366348511 -3.00828467871502702735 -0.82512673343775422286 0.26645223920088217939 -1.91670570607639056959 -4.09986365135366348511 -0.82512673343775422286 -1.91670570607639056959 -3.00828467871502702735 -1.91670570607639056959 -0.82512673343775422286 -0.82512673343775422286 -1.91670570607639056959 -1.91670570607639056959 0.26645223920088217939 -0.82512673343775422286 -3.00828467871502702735 -0.82512673343775422286 -3.00828467871502702735 -0.82512673343775422286 0.26645223920088217939 -3.00828467871502702735 0.26645223920088217939 -1.91670570607639056959 -0.82512673343775422286 -3.00828467871502702735 -0.82512673343775422286 -0.82512673343775422286 -3.00828467871502702735 -1.91670570607639056959 -1.91670570607639056959 -0.82512673343775422286 0.26645223920088217939 0.26645223920088217939 0.26645223920088217939 -1.91670570607639056959 -1.91670570607639056959 -0.82512673343775422286 0.26645223920088217939 0.26645223920088217939 -5.19144262399230083105 -4.09986365135366348511 -1.91670570607639056959 -1.91670570607639056959 -0.82512673343775422286 0.26645223920088217939 -3.00828467871502702735 -3.00828467871502702735 -1.91670570607639056959 1.35803121183951858164 0.26645223920088217939 -0.82512673343775422286 1.35803121183951858164 -0.82512673343775422286 -0.82512673343775422286 1.35803121183951858164 -0.82512673343775422286 0.26645223920088217939 0.26645223920088217939 -3.00828467871502702735 3.54118915711679171920 0.26645223920088217939 1.35803121183951858164 0.26645223920088217939 -3.00828467871502702735 -1.91670570607639056959 -3.00828467871502702735 0.26645223920088217939 1.35803121183951858164 0.26645223920088217939 0.26645223920088217939 -3.00828467871502702735 0.26645223920088217939 1.35803121183951858164 2.44961018447815526144 -1.91670570607639056959 -0.82512673343775422286 -1.91670570607639056959 -3.00828467871502702735 -4.09986365135366348511 -0.82512673343775422286 2.44961018447815526144 1.35803121183951858164 2.44961018447815526144 -1.91670570607639056959 1.35803121183951858164 -0.82512673343775422286 0.26645223920088217939 1.35803121183951858164 -1.91670570607639056959 0.26645223920088217939 0.26645223920088217939 2.44961018447815526144 -1.91670570607639056959 -3.00828467871502702735 -1.91670570607639056959 0.26645223920088217939 -4.09986365135366348511 -3.00828467871502702735 -1.91670570607639056959 -3.00828467871502702735 -1.91670570607639056959 -1.91670570607639056959 -5.19144262399230083105 -3.00828467871502702735 -4.09986365135366348511 -3.00828467871502702735 0.26645223920088217939 -4.09986365135366348511 -0.82512673343775422286 -5.19144262399230083105 -1.91670570607639056959 0.26645223920088217939 -4.09986365135366348511 -5.19144262399230083105 -6.28302159663093728881 -4.09986365135366348511 -1.91670570607639056959 -3.00828467871502702735 -5.19144262399230083105 -1.91670570607639056959 -5.19144262399230083105 -5.19144262399230083105 -4.09986365135366348511 -1.91670570607639056959 -7.37460056926957285839 0.26645223920088217939 -1.91670570607639056959 -4.09986365135366348511 -1.91670570607639056959 -0.82512673343775422286 -0.82512673343775422286 0.26645223920088217939 -6.28302159663093728881 -3.00828467871502702735 -1.91670570607639056959 -1.91670570607639056959 -0.82512673343775422286 0.26645223920088217939 -3.00828467871502702735 -4.09986365135366348511 0.26645223920088217939 -0.82512673343775422286 -4.09986365135366348511 -1.91670570607639056959 -4.09986365135366348511 -1.91670570607639056959 0.26645223920088217939 -3.00828467871502702735 0.26645223920088217939 1.35803121183951858164 -3.00828467871502702735 1.35803121183951858164 -1.91670570607639056959 -0.82512673343775422286 0.26645223920088217939 2.44961018447815526144 1.35803121183951858164 0.26645223920088217939 0.26645223920088217939 1.35803121183951858164 -0.82512673343775422286 -0.82512673343775422286 -1.91670570607639056959 0.26645223920088217939 0.26645223920088217939 -1.91670570607639056959 -3.00828467871502702735 -0.82512673343775422286 0.26645223920088217939 -0.82512673343775422286 3.54118915711679171920 0.26645223920088217939 -4.09986365135366348511 -3.00828467871502702735 -1.91670570607639056959 -0.82512673343775422286 3.54118915711679171920 2.44961018447815526144 1.35803121183951858164 -1.91670570607639056959 -1.91670570607639056959 -3.00828467871502702735 1.35803121183951858164 0.26645223920088217939 3.54118915711679171920 0.26645223920088217939 3.54118915711679171920 3.54118915711679171920 1.35803121183951858164 1.35803121183951858164 -0.82512673343775422286 -0.82512673343775422286 3.54118915711679171920 4.63276812975542728879 1.35803121183951858164 3.54118915711679171920 1.35803121183951858164 -0.82512673343775422286 1.35803121183951858164 -0.82512673343775422286 0.26645223920088217939 0.26645223920088217939 0.26645223920088217939 -0.82512673343775422286 2.44961018447815526144 1.35803121183951858164 0.26645223920088217939 2.44961018447815526144 -1.91670570607639056959 -1.91670570607639056959 0.26645223920088217939 -1.91670570607639056959 3.54118915711679171920 1.35803121183951858164 -0.82512673343775422286 -0.82512673343775422286 0.26645223920088217939 -3.00828467871502702735 3.54118915711679171920 -4.09986365135366348511 0.26645223920088217939 -3.00828467871502702735 -0.82512673343775422286 0.26645223920088217939 1.35803121183951858164 3.54118915711679171920 -0.82512673343775422286 1.35803121183951858164 0.26645223920088217939 1.35803121183951858164 0.26645223920088217939 -0.82512673343775422286 2.44961018447815526144 -1.91670570607639056959 -1.91670570607639056959 3.54118915711679171920 0.26645223920088217939 0.26645223920088217939 1.35803121183951858164 -3.00828467871502702735 -4.09986365135366348511 0.26645223920088217939 0.26645223920088217939 -1.91670570607639056959 0.26645223920088217939 -0.82512673343775422286 -1.91670570607639056959 5.72434710239406463472 -0.82512673343775422286 1.35803121183951858164 0.26645223920088217939 2.44961018447815526144 -1.91670570607639056959 0.26645223920088217939 -0.82512673343775422286 5.72434710239406463472 1.35803121183951858164 1.35803121183951858164 1.35803121183951858164 3.54118915711679171920 2.44961018447815526144 0.26645223920088217939 0.26645223920088217939 2.44961018447815526144 3.54118915711679171920 -0.82512673343775422286 0.26645223920088217939 2.44961018447815526144 2.44961018447815526144 0.26645223920088217939 2.44961018447815526144 0.26645223920088217939 5.72434710239406463472 4.63276812975542728879 2.44961018447815526144 2.44961018447815526144 -0.82512673343775422286 3.54118915711679171920 1.35803121183951858164 4.63276812975542728879 1.35803121183951858164 4.63276812975542728879 1.35803121183951858164 3.54118915711679171920 2.44961018447815526144 5.72434710239406463472 3.54118915711679171920 3.54118915711679171920 0.26645223920088217939 1.35803121183951858164 -0.82512673343775422286 -1.91670570607639056959 0.26645223920088217939 -3.00828467871502702735 0.26645223920088217939 -0.82512673343775422286 1.35803121183951858164 -3.00828467871502702735 2.44961018447815526144 2.44961018447815526144 1.35803121183951858164 1.35803121183951858164 3.54118915711679171920 2.44961018447815526144 0.26645223920088217939 -0.82512673343775422286 -0.82512673343775422286 2.44961018447815526144 -5.19144262399230083105 -1.91670570607639056959 3.54118915711679171920 2.44961018447815526144 -1.91670570607639056959 1.35803121183951858164 -0.82512673343775422286 2.44961018447815526144 1.35803121183951858164 1.35803121183951858164 -0.82512673343775422286 0.26645223920088217939 -0.82512673343775422286 -0.82512673343775422286 0.26645223920088217939 3.54118915711679171920 2.44961018447815526144 -0.82512673343775422286 -3.00828467871502702735 -4.09986365135366348511 -0.82512673343775422286 0.26645223920088217939 1.35803121183951858164 -3.00828467871502702735 -3.00828467871502702735 -0.82512673343775422286 -4.09986365135366348511 0.26645223920088217939 1.35803121183951858164 -3.00828467871502702735 -5.19144262399230083105 -1.91670570607639056959 -1.91670570607639056959 -4.09986365135366348511 -0.82512673343775422286 -0.82512673343775422286 -3.00828467871502702735 -5.19144262399230083105 -3.00828467871502702735 -0.82512673343775422286 0.26645223920088217939 -1.91670570607639056959 -4.09986365135366348511 0.26645223920088217939 -4.09986365135366348511 0.26645223920088217939 2.44961018447815526144 -0.82512673343775422286 0.26645223920088217939 -0.82512673343775422286 -3.00828467871502702735 0.26645223920088217939 -1.91670570607639056959 -1.91670570607639056959 -0.82512673343775422286 0.26645223920088217939 -3.00828467871502702735 -3.00828467871502702735 -3.00828467871502702735 -1.91670570607639056959 2.44961018447815526144 2.44961018447815526144 0.26645223920088217939 -0.82512673343775422286 -1.91670570607639056959 -0.82512673343775422286 -0.82512673343775422286 -5.19144262399230083105 -0.82512673343775422286 -0.82512673343775422286 -1.91670570607639056959 -0.82512673343775422286 -4.09986365135366348511 0.26645223920088217939 -1.91670570607639056959 -0.82512673343775422286 0.26645223920088217939 1.35803121183951858164 0.26645223920088217939 1.35803121183951858164 -1.91670570607639056959 3.54118915711679171920 0.26645223920088217939 -3.00828467871502702735 2.44961018447815526144 3.54118915711679171920 0.26645223920088217939 0.26645223920088217939 1.35803121183951858164 -1.91670570607639056959 1.35803121183951858164 0.26645223920088217939 3.54118915711679171920 -0.82512673343775422286 3.54118915711679171920 2.44961018447815526144 2.44961018447815526144 3.54118915711679171920 1.35803121183951858164 3.54118915711679171920 3.54118915711679171920 1.35803121183951858164 1.35803121183951858164 2.44961018447815526144 4.63276812975542728879 5.72434710239406463472 1.35803121183951858164 5.72434710239406463472 4.63276812975542728879 2.44961018447815526144 4.63276812975542728879 3.54118915711679171920 4.63276812975542728879 1.35803121183951858164 -0.82512673343775422286 1.35803121183951858164 -0.82512673343775422286 2.44961018447815526144 -3.00828467871502702735 1.35803121183951858164 -3.00828467871502702735 0.26645223920088217939 -0.82512673343775422286 0.26645223920088217939 -1.91670570607639056959 0.26645223920088217939 -3.00828467871502702735 -3.00828467871502702735 -1.91670570607639056959 -1.91670570607639056959 -6.28302159663093728881 -4.09986365135366348511 -5.19144262399230083105 -5.19144262399230083105 -5.19144262399230083105 -0.82512673343775422286 -5.19144262399230083105 -0.82512673343775422286 -1.91670570607639056959 -6.28302159663093728881 -1.91670570607639056959 1.35803121183951858164 -0.82512673343775422286 1.35803121183951858164 -3.00828467871502702735 -3.00828467871502702735 0.26645223920088217939 0.26645223920088217939 3.54118915711679171920 -0.82512673343775422286 -6.28302159663093728881 -6.28302159663093728881 -5.19144262399230083105 -4.09986365135366348511 -0.82512673343775422286 -3.00828467871502702735 -6.28302159663093728881 -7.37460056926957285839 -7.37460056926957285839 -4.09986365135366348511 -5.19144262399230083105 -6.28302159663093728881 -3.00828467871502702735 -6.28302159663093728881 -5.19144262399230083105 -5.19144262399230083105 -5.19144262399230083105 -5.19144262399230083105 -5.19144262399230083105 -4.09986365135366348511 -5.19144262399230083105 -6.28302159663093728881 0.26645223920088217939 -8.46617954190820931615 -3.00828467871502702735 -1.91670570607639056959 -0.82512673343775422286 1.35803121183951858164 -5.19144262399230083105 -1.91670570607639056959 -4.09986365135366348511 -3.00828467871502702735 -1.91670570607639056959 -4.09986365135366348511 -4.09986365135366348511 -4.09986365135366348511 -1.91670570607639056959 -1.91670570607639056959 -7.37460056926957285839 -3.00828467871502702735 -0.82512673343775422286 -3.00828467871502702735 -3.00828467871502702735 -4.09986365135366348511 -3.00828467871502702735 -4.09986365135366348511 -3.00828467871502702735 -5.19144262399230083105 -1.91670570607639056959 -1.91670570607639056959 -3.00828467871502702735 -5.19144262399230083105 -3.00828467871502702735 -4.09986365135366348511 -6.28302159663093728881 -0.82512673343775422286 -5.19144262399230083105 -6.28302159663093728881 -1.91670570607639056959 -5.19144262399230083105 -0.82512673343775422286 -5.19144262399230083105 -3.00828467871502702735 -4.09986365135366348511 -7.37460056926957285839 -6.28302159663093728881 -3.00828467871502702735 -5.19144262399230083105 -7.37460056926957285839 -6.28302159663093728881 -3.00828467871502702735 -3.00828467871502702735 -5.19144262399230083105 -5.19144262399230083105 -5.19144262399230083105 -6.28302159663093728881 -8.46617954190820931615 -3.00828467871502702735 -4.09986365135366348511 -7.37460056926957285839 -3.00828467871502702735 -3.00828467871502702735 -7.37460056926957285839 -1.91670570607639056959 -1.91670570607639056959 -1.91670570607639056959 -3.00828467871502702735 -4.09986365135366348511 -4.09986365135366348511 -1.91670570607639056959 -7.37460056926957285839 -3.00828467871502702735 -5.19144262399230083105 -3.00828467871502702735 -7.37460056926957285839 -4.09986365135366348511 -3.00828467871502702735 -3.00828467871502702735 -5.19144262399230083105 -7.37460056926957285839 -9.55775851454684577391 -5.19144262399230083105 -3.00828467871502702735 -0.82512673343775422286 -4.09986365135366348511 -3.00828467871502702735 -5.19144262399230083105 -3.00828467871502702735 -5.19144262399230083105 -7.37460056926957285839 -4.09986365135366348511 -0.82512673343775422286 -6.28302159663093728881 -3.00828467871502702735 -5.19144262399230083105 -4.09986365135366348511 -4.09986365135366348511 -0.82512673343775422286 -3.00828467871502702735 -4.09986365135366348511 -1.91670570607639056959 -3.00828467871502702735 -3.00828467871502702735 -4.09986365135366348511 -3.00828467871502702735 -4.09986365135366348511 -5.19144262399230083105 -5.19144262399230083105 -5.19144262399230083105 -8.46617954190820931615 -1.91670570607639056959 -4.09986365135366348511 -1.91670570607639056959 -3.00828467871502702735 -3.00828467871502702735 -6.28302159663093728881 -6.28302159663093728881 -8.46617954190820931615 -5.19144262399230083105 -3.00828467871502702735 -3.00828467871502702735 -1.91670570607639056959 -3.00828467871502702735 -4.09986365135366348511 -4.09986365135366348511 -7.37460056926957285839 -5.19144262399230083105 -4.09986365135366348511 -3.00828467871502702735 -4.09986365135366348511 -5.19144262399230083105 -1.91670570607639056959 -3.00828467871502702735 -4.09986365135366348511 -5.19144262399230083105 0.26645223920088217939 -3.00828467871502702735 -4.09986365135366348511 -0.82512673343775422286 -5.19144262399230083105 -3.00828467871502702735 -1.91670570607639056959 -4.09986365135366348511 -3.00828467871502702735 -5.19144262399230083105 -0.82512673343775422286 -3.00828467871502702735 -3.00828467871502702735 -0.82512673343775422286 1.35803121183951858164 1.35803121183951858164 2.44961018447815526144 4.63276812975542728879 1.35803121183951858164 -1.91670570607639056959 -1.91670570607639056959 0.26645223920088217939 -0.82512673343775422286 -0.82512673343775422286 -1.91670570607639056959 -4.09986365135366348511 -0.82512673343775422286 6.81592607503270109248 3.54118915711679171920 1.35803121183951858164 2.44961018447815526144 0.26645223920088217939 -1.91670570607639056959 0.26645223920088217939 3.54118915711679171920 -0.82512673343775422286 4.63276812975542728879 -0.82512673343775422286 0.26645223920088217939 0.26645223920088217939 2.44961018447815526144 -0.82512673343775422286 -1.91670570607639056959 1.35803121183951858164 -0.82512673343775422286 1.35803121183951858164 1.35803121183951858164 5.72434710239406463472 2.44961018447815526144 1.35803121183951858164 -5.19144262399230083105 -5.19144262399230083105 -5.19144262399230083105 -1.91670570607639056959 -5.19144262399230083105 -4.09986365135366348511 -1.91670570607639056959 -5.19144262399230083105 -1.91670570607639056959 -1.91670570607639056959 -1.91670570607639056959 -5.19144262399230083105 -1.91670570607639056959 -1.91670570607639056959 -3.00828467871502702735 -0.82512673343775422286 -0.82512673343775422286 -0.82512673343775422286 -0.82512673343775422286 0.26645223920088217939 0.26645223920088217939 1.35803121183951858164 0.26645223920088217939 -3.00828467871502702735 -4.09986365135366348511 -0.82512673343775422286 -1.91670570607639056959 -1.91670570607639056959 -0.82512673343775422286 0.26645223920088217939 3.54118915711679171920 0.26645223920088217939 -0.82512673343775422286 0.26645223920088217939 -1.91670570607639056959 -1.91670570607639056959 -1.91670570607639056959 -5.19144262399230083105 -3.00828467871502702735 -1.91670570607639056959 1.35803121183951858164 0.26645223920088217939 2.44961018447815526144 -4.09986365135366348511 0.26645223920088217939 -3.00828467871502702735 -0.82512673343775422286 0.26645223920088217939 -3.00828467871502702735 -4.09986365135366348511 0.26645223920088217939 -1.91670570607639056959 -3.00828467871502702735 -1.91670570607639056959 -3.00828467871502702735 -1.91670570607639056959 -1.91670570607639056959 -5.19144262399230083105 -1.91670570607639056959 0.26645223920088217939 1.35803121183951858164 -5.19144262399230083105 -0.82512673343775422286 -3.00828467871502702735 1.35803121183951858164 0.26645223920088217939 -4.09986365135366348511 -1.91670570607639056959 -3.00828467871502702735 -3.00828467871502702735 1.35803121183951858164 -3.00828467871502702735 -5.19144262399230083105 0.26645223920088217939 -0.82512673343775422286 1.35803121183951858164 -0.82512673343775422286 -4.09986365135366348511 -5.19144262399230083105 -1.91670570607639056959 -4.09986365135366348511 1.35803121183951858164 -4.09986365135366348511 -4.09986365135366348511 -1.91670570607639056959 -0.82512673343775422286 -0.82512673343775422286 -5.19144262399230083105 -4.09986365135366348511 -5.19144262399230083105 0.26645223920088217939 -4.09986365135366348511 -3.00828467871502702735 0.26645223920088217939 -1.91670570607639056959 -3.00828467871502702735 -0.82512673343775422286 0.26645223920088217939 0.26645223920088217939 -1.91670570607639056959 -3.00828467871502702735 -0.82512673343775422286 1.35803121183951858164 -0.82512673343775422286 -0.82512673343775422286 -1.91670570607639056959 -0.82512673343775422286 -0.82512673343775422286 -6.28302159663093728881 -0.82512673343775422286 -0.82512673343775422286 2.44961018447815526144 -0.82512673343775422286 0.26645223920088217939 1.35803121183951858164 -1.91670570607639056959 0.26645223920088217939 0.26645223920088217939 -0.82512673343775422286 -1.91670570607639056959 -1.91670570607639056959 -0.82512673343775422286 -1.91670570607639056959 0.26645223920088217939 0.26645223920088217939 -3.00828467871502702735 -0.82512673343775422286 -4.09986365135366348511 -0.82512673343775422286 0.26645223920088217939 -3.00828467871502702735 -0.82512673343775422286 0.26645223920088217939 -0.82512673343775422286 1.35803121183951858164 -3.00828467871502702735 2.44961018447815526144 0.26645223920088217939 -0.82512673343775422286 0.26645223920088217939 -0.82512673343775422286 1.35803121183951858164 1.35803121183951858164 1.35803121183951858164 1.35803121183951858164 -0.82512673343775422286 -3.00828467871502702735 -4.09986365135366348511 2.44961018447815526144 -1.91670570607639056959 -1.91670570607639056959 1.35803121183951858164 -0.82512673343775422286 0.26645223920088217939 1.35803121183951858164 1.35803121183951858164 1.35803121183951858164 3.54118915711679171920 -0.82512673343775422286 0.26645223920088217939 0.26645223920088217939 0.26645223920088217939 2.44961018447815526144 -0.82512673343775422286 0.26645223920088217939 -0.82512673343775422286 2.44961018447815526144 -0.82512673343775422286 1.35803121183951858164 -4.09986365135366348511 2.44961018447815526144 0.26645223920088217939 0.26645223920088217939 1.35803121183951858164 -0.82512673343775422286 2.44961018447815526144 -3.00828467871502702735 -0.82512673343775422286 -0.82512673343775422286 1.35803121183951858164 2.44961018447815526144 0.26645223920088217939 1.35803121183951858164 0.26645223920088217939 -3.00828467871502702735 -0.82512673343775422286 2.44961018447815526144 0.26645223920088217939 -0.82512673343775422286 -3.00828467871502702735 -1.91670570607639056959 -5.19144262399230083105 -3.00828467871502702735 -0.82512673343775422286 1.35803121183951858164 -0.82512673343775422286 -4.09986365135366348511 0.26645223920088217939 -3.00828467871502702735 -0.82512673343775422286 -3.00828467871502702735 -3.00828467871502702735 -5.19144262399230083105 -1.91670570607639056959 -0.82512673343775422286 -3.00828467871502702735 0.26645223920088217939 -5.19144262399230083105 -0.82512673343775422286 -4.09986365135366348511 -4.09986365135366348511 -0.82512673343775422286 -0.82512673343775422286 -5.19144262399230083105 -3.00828467871502702735 -6.28302159663093728881 -4.09986365135366348511 -6.28302159663093728881 -5.19144262399230083105 -1.91670570607639056959 -0.82512673343775422286 0.26645223920088217939 -0.82512673343775422286 3.54118915711679171920 3.54118915711679171920 -1.91670570607639056959 -0.82512673343775422286 2.44961018447815526144 -1.91670570607639056959 2.44961018447815526144 -3.00828467871502702735 1.35803121183951858164 -0.82512673343775422286 0.26645223920088217939 -0.82512673343775422286 -1.91670570607639056959 1.35803121183951858164 -1.91670570607639056959 2.44961018447815526144 -1.91670570607639056959 -1.91670570607639056959 2.44961018447815526144 -1.91670570607639056959 1.35803121183951858164 -1.91670570607639056959 -6.28302159663093728881 -0.82512673343775422286 0.26645223920088217939 -0.82512673343775422286 -4.09986365135366348511 -0.82512673343775422286 -3.00828467871502702735 -0.82512673343775422286 0.26645223920088217939 1.35803121183951858164 -1.91670570607639056959 0.26645223920088217939 0.26645223920088217939 -1.91670570607639056959 0.26645223920088217939 1.35803121183951858164 0.26645223920088217939 -0.82512673343775422286 -0.82512673343775422286 1.35803121183951858164 -0.82512673343775422286 1.35803121183951858164 -3.00828467871502702735 -0.82512673343775422286 -1.91670570607639056959 -1.91670570607639056959 -1.91670570607639056959 2.44961018447815526144 -5.19144262399230083105 -4.09986365135366348511 -1.91670570607639056959 0.26645223920088217939 -1.91670570607639056959 2.44961018447815526144 -1.91670570607639056959 -4.09986365135366348511 -1.91670570607639056959 1.35803121183951858164 -0.82512673343775422286 4.63276812975542728879 3.54118915711679171920 0.26645223920088217939 1.35803121183951858164 1.35803121183951858164 0.26645223920088217939 3.54118915711679171920 2.44961018447815526144 0.26645223920088217939 1.35803121183951858164 0.26645223920088217939 -4.09986365135366348511 -4.09986365135366348511 -5.19144262399230083105 -3.00828467871502702735 -6.28302159663093728881 -5.19144262399230083105 -5.19144262399230083105 -5.19144262399230083105 -4.09986365135366348511 -6.28302159663093728881 -4.09986365135366348511 -7.37460056926957285839 -3.00828467871502702735 -6.28302159663093728881 -0.82512673343775422286 0.26645223920088217939 -4.09986365135366348511 -0.82512673343775422286 -9.55775851454684577391 -3.00828467871502702735 -5.19144262399230083105 -5.19144262399230083105 -0.82512673343775422286 -0.82512673343775422286 -0.82512673343775422286 -3.00828467871502702735 -3.00828467871502702735 -5.19144262399230083105 -6.28302159663093728881 -6.28302159663093728881 -3.00828467871502702735 -1.91670570607639056959 -1.91670570607639056959 -4.09986365135366348511 -4.09986365135366348511 -1.91670570607639056959 -5.19144262399230083105 -4.09986365135366348511 -6.28302159663093728881 -3.00828467871502702735 -0.82512673343775422286 -3.00828467871502702735 -1.91670570607639056959 -1.91670570607639056959 -3.00828467871502702735 -4.09986365135366348511 -6.28302159663093728881 -7.37460056926957285839 -4.09986365135366348511 -1.91670570607639056959 -4.09986365135366348511 -1.91670570607639056959 -4.09986365135366348511 -3.00828467871502702735 -5.19144262399230083105 -5.19144262399230083105 -9.55775851454684577391 -4.09986365135366348511 -3.00828467871502702735 -5.19144262399230083105 -4.09986365135366348511 -5.19144262399230083105 -0.82512673343775422286 -3.00828467871502702735 -3.00828467871502702735 -4.09986365135366348511 -5.19144262399230083105 -5.19144262399230083105 -5.19144262399230083105 -6.28302159663093728881 -1.91670570607639056959 -4.09986365135366348511 -3.00828467871502702735 0.26645223920088217939 -3.00828467871502702735 -5.19144262399230083105 -1.91670570607639056959 -1.91670570607639056959 0.26645223920088217939 -3.00828467871502702735 -8.46617954190820931615 -3.00828467871502702735 -3.00828467871502702735 -1.91670570607639056959 1.35803121183951858164 -3.00828467871502702735 -6.28302159663093728881 -3.00828467871502702735 -0.82512673343775422286 1.35803121183951858164 -4.09986365135366348511 -0.82512673343775422286 2.44961018447815526144 4.63276812975542728879 1.35803121183951858164 0.26645223920088217939 2.44961018447815526144 -1.91670570607639056959 -1.91670570607639056959 1.35803121183951858164 0.26645223920088217939 1.35803121183951858164 0.26645223920088217939 -1.91670570607639056959 2.44961018447815526144 -4.09986365135366348511 3.54118915711679171920 0.26645223920088217939 -0.82512673343775422286 0.26645223920088217939 1.35803121183951858164 2.44961018447815526144 1.35803121183951858164 -1.91670570607639056959 -1.91670570607639056959 1.35803121183951858164 0.26645223920088217939 2.44961018447815526144 -6.28302159663093728881 0.26645223920088217939 -0.82512673343775422286 -1.91670570607639056959 1.35803121183951858164 -0.82512673343775422286 -1.91670570607639056959 -3.00828467871502702735 -4.09986365135366348511 -0.82512673343775422286 0.26645223920088217939 -4.09986365135366348511 -3.00828467871502702735 -3.00828467871502702735 0.26645223920088217939 -0.82512673343775422286 0.26645223920088217939 0.26645223920088217939 -4.09986365135366348511 -3.00828467871502702735 -1.91670570607639056959 -1.91670570607639056959 1.35803121183951858164 0.26645223920088217939 0.26645223920088217939 0.26645223920088217939 -1.91670570607639056959 7.90750504767133666206 -0.82512673343775422286 2.44961018447815526144 -1.91670570607639056959 1.35803121183951858164 1.35803121183951858164 -0.82512673343775422286 0.26645223920088217939 1.35803121183951858164 -4.09986365135366348511 0.26645223920088217939 2.44961018447815526144 0.26645223920088217939 0.26645223920088217939 -1.91670570607639056959 -0.82512673343775422286 0.26645223920088217939 -5.19144262399230083105 -0.82512673343775422286 -3.00828467871502702735 2.44961018447815526144 1.35803121183951858164 0.26645223920088217939 -1.91670570607639056959 3.54118915711679171920 1.35803121183951858164 2.44961018447815526144 0.26645223920088217939 1.35803121183951858164 1.35803121183951858164 -0.82512673343775422286 -0.82512673343775422286 3.54118915711679171920 -1.91670570607639056959 -1.91670570607639056959 -1.91670570607639056959 2.44961018447815526144 -0.82512673343775422286 -0.82512673343775422286 0.26645223920088217939 0.26645223920088217939 -1.91670570607639056959 0.26645223920088217939 -0.82512673343775422286 -0.82512673343775422286 1.35803121183951858164 -0.82512673343775422286 4.63276812975542728879 -0.82512673343775422286 0.26645223920088217939 3.54118915711679171920 2.44961018447815526144 2.44961018447815526144 -0.82512673343775422286 1.35803121183951858164 1.35803121183951858164 -0.82512673343775422286 -1.91670570607639056959 2.44961018447815526144 0.26645223920088217939 -1.91670570607639056959 3.54118915711679171920 -0.82512673343775422286 0.26645223920088217939 3.54118915711679171920 1.35803121183951858164 2.44961018447815526144 0.26645223920088217939 0.26645223920088217939 -0.82512673343775422286 1.35803121183951858164 1.35803121183951858164 -3.00828467871502702735 