-6.966751 -6.960683 -6.954637 -6.948612 -6.942609 -6.936627 -6.930666 -6.924727 -6.918808 -6.912911 -6.907035 -6.901181 -6.895347 -6.889534 -6.883742 -6.877971 -6.872221 -6.866492 -6.860783 -6.855096 -6.849429 -6.843782 -6.838157 -6.832552 -6.826967 -6.821403 -6.815859 -6.810336 -6.804833 -6.799351 -6.793889 -6.788447 -6.783025 -6.777624 -6.772242 -6.766881 -6.761539 -6.756218 -6.750917 -6.745635 -6.740374 -6.735132 -6.729910 -6.724708 -6.719525 -6.714362 -6.709219 -6.704095 -6.698991 -6.693906 -6.688841 -6.683795 -6.678769 -6.673762 -6.668774 -6.663806 -6.658856 -6.653926 -6.649015 -6.644123 -6.639250 -6.634396 -6.629561 -6.624745 -6.619948 -6.615169 -6.610410 -6.605669 -6.600946 -6.596243 -6.591558 -6.586892 -6.582244 -6.577614 -6.573004 -6.568411 -6.563837 -6.559281 -6.554744 -6.550224 -6.545723 -6.541240 -6.536776 -6.532329 -6.527900 -6.523489 -6.519097 -6.514722 -6.510365 -6.506026 -6.501704 -6.497400 -6.493114 -6.488846 -6.484595 -6.480362 -6.476147 -6.471948 -6.467768 -6.463604 -6.459459 -6.455330 -6.451219 -6.447124 -6.443048 -6.438988 -6.434945 -6.430919 -6.426911 -6.422919 -6.418945 -6.414987 -6.411046 -6.407122 -6.403215 -6.399324 -6.395450 -6.391593 -6.387752 -6.383928 -6.380121 -6.376330 -6.372555 -6.368797 -6.365055 -6.361329 -6.357620 -6.353927 -6.350250 -6.346589 -6.342945 -6.339316 -6.335704 -6.332107 -6.328527 -6.324962 -6.321413 -6.317880 -6.314363 -6.310861 -6.307375 -6.303905 -6.300450 -6.297011 -6.293588 -6.290180 -6.286787 -6.283410 -6.280048 -6.276701 -6.273370 -6.270054 -6.266753 -6.263467 -6.260196 -6.256941 -6.253700 -6.250474 -6.247264 -6.244068 -6.240887 -6.237721 -6.234569 -6.231433 -6.228311 -6.225203 -6.222110 -6.219032 -6.215969 -6.212919 -6.209885 -6.206864 -6.203858 -6.200866 -6.197889 -6.194926 -6.191976 -6.189041 -6.186121 -6.183214 -6.180321 -6.177442 -6.174577 -6.171726 -6.168889 -6.166066 -6.163256 -6.160460 -6.157678 -6.154909 -6.152154 -6.149413 -6.146685 -6.143970 -6.141269 -6.138582 -6.135907 -6.133246 -6.130599 -6.127964 -6.125343 -6.122734 -6.120139 -6.117557 -6.114988 -6.112432 -6.109889 -6.107358 -6.104841 -6.102336 -6.099844 -6.097365 -6.094898 -6.092444 -6.090003 -6.087574 -6.085158 -6.082754 -6.080363 -6.077984 -6.075617 -6.073263 -6.070920 -6.068590 -6.066273 -6.063967 -6.061673 -6.059392 -6.057122 -6.054865 -6.052619 -6.050385 -6.048163 -6.045953 -6.043755 -6.041568 -6.039393 -6.037230 -6.035078 -6.032938 -6.030809 -6.028692 -6.026586 -6.024491 -6.022408 -6.020336 -6.018276 -6.016226 -6.014188 -6.012161 -6.010145 -6.008140 -6.006145 -6.004162 -6.002190 -6.000229 -5.998278 -5.996339 -5.994410 -5.992492 -5.990584 -5.988687 -5.986801 -5.984925 -5.983059 -5.981205 -5.979360 -5.977526 -5.975702 -5.973889 -5.972085 -5.970292 -5.968509 -5.966737 -5.964974 -5.963221 -5.961479 -5.959746 -5.958023 -5.956310 -5.954607 -5.952914 -5.951230 -5.949556 -5.947892 -5.946237 -5.944592 -5.942957 -5.941331 -5.939714 -5.938107 -5.936509 -5.934921 -5.933341 -5.931771 -5.930211 -5.928659 -5.927116 -5.925583 -5.924059 -5.922543 -5.921037 -5.919539 -5.918050 -5.916571 -5.915099 -5.913637 -5.912183 -5.910738 -5.909302 -5.907874 -5.906455 -5.905044 -5.903641 -5.902247 -5.900862 -5.899485 -5.898115 -5.896755 -5.895402 -5.894058 -5.892721 -5.891393 -5.890073 -5.888760 -5.887456 -5.886160 -5.884871 -5.883590 -5.882317 -5.881052 -5.879794 -5.878545 -5.877302 -5.876067 -5.874840 -5.873620 -5.872408 -5.871203 -5.870006 -5.868815 -5.867632 -5.866457 -5.865288 -5.864127 -5.862972 -5.861825 -5.860685 -5.859552 -5.858425 -5.857306 -5.856193 -5.855088 -5.853989 -5.852896 -5.851811 -5.850732 -5.849660 -5.848594 -5.847535 -5.846482 -5.845435 -5.844395 -5.843362 -5.842335 -5.841314 -5.840299 -5.839290 -5.838288 -5.837291 -5.836301 -5.835317 -5.834338 -5.833366 -5.832399 -5.831439 -5.830484 -5.829535 -5.828591 -5.827654 -5.826722 -5.825795 -5.824874 -5.823959 -5.823049 -5.822145 -5.821245 -5.820352 -5.819463 -5.818580 -5.817702 -5.816829 -5.815962 -5.815099 -5.814242 -5.813389 -5.812542 -5.811699 -5.810861 -5.810028 -5.809200 -5.808377 -5.807559 -5.806745 -5.805935 -5.805131 -5.804331 -5.803535 -5.802744 -5.801957 -5.801175 -5.800397 -5.799623 -5.798854 -5.798088 -5.797327 -5.796570 -5.795817 -5.795069 -5.794324 -5.793583 -5.792846 -5.792113 -5.791384 -5.790659 -5.789937 -5.789219 -5.788505 -5.787794 -5.787087 -5.786384 -5.785684 -5.784987 -5.784294 -5.783604 -5.782918 -5.782235 -5.781555 -5.780878 -5.780205 -5.779535 -5.778867 -5.778203 -5.777542 -5.776884 -5.776228 -5.775576 -5.774926 -5.774280 -5.773636 -5.772994 -5.772355 -5.771719 -5.771086 -5.770455 -5.769827 -5.769201 -5.768577 -5.767956 -5.767337 -5.766720 -5.766106 -5.765494 -5.764884 -5.764276 -5.763670 -5.763067 -5.762465 -5.761865 -5.761267 -5.760671 -5.760077 -5.759485 -5.758894 -5.758305 -5.757718 -5.757132 -5.756548 -5.755966 -5.755385 -5.754805 -5.754227 -5.753650 -5.753075 -5.752501 -5.751928 -5.751356 -5.750786 -5.750216 -5.749648 -5.749080 -5.748514 -5.747949 -5.747384 -5.746820 -5.746258 -5.745696 -5.745134 -5.744574 -5.744014 -5.743455 -5.742896 -5.742338 -5.741780 -5.741223 -5.740666 -5.740109 -5.739553 -5.738997 -5.738442 -5.737886 -5.737331 -5.736776 -5.736221 -5.735666 -5.735111 -5.734555 -5.734000 -5.733445 -5.732889 -5.732333 -5.731777 -5.731221 -5.730664 -5.730107 -5.729550 -5.728992 -5.728433 -5.727874 -5.727315 -5.726754 -5.726193 -5.725632 -5.725069 -5.724506 -5.723942 -5.723377 -5.722811 -5.722244 -5.721676 -5.721107 -5.720537 -5.719966 -5.719393 -5.718819 -5.718245 -5.717668 -5.717091 -5.716512 -5.715931 -5.715349 -5.714766 -5.714181 -5.713594 -5.713006 -5.712416 -5.711825 -5.711231 -5.710636 -5.710039 -5.709440 -5.708839 -5.708236 -5.707631 -5.707024 -5.706415 -5.705804 -5.705191 -5.704575 -5.703957 -5.703337 -5.702714 -5.702089 -5.701462 -5.700832 -5.700200 -5.699565 -5.698927 -5.698287 -5.697644 -5.696998 -5.696350 -5.695698 -5.695044 -5.694387 -5.693727 -5.693064 -5.692398 -5.691729 -5.691057 -5.690382 -5.689703 -5.689021 -5.688336 -5.687648 -5.686956 -5.686261 -5.685563 -5.684861 -5.684155 -5.683446 -5.682733 -5.682017 -5.681297 -5.680573 -5.679845 -5.679114 -5.678379 -5.677639 -5.676896 -5.676149 -5.675398 -5.674643 -5.673883 -5.673120 -5.672352 -5.671580 -5.670804 -5.670023 -5.669238 -5.668449 -5.667655 -5.666857 -5.666054 -5.665247 -5.664435 -5.663618 -5.662797 -5.661971 -5.661140 -5.660304 -5.659464 -5.658618 -5.657768 -5.656912 -5.656052 -5.655186 -5.654316 -5.653440 -5.652559 -5.651672 -5.650781 -5.649884 -5.648982 -5.648074 -5.647161 -5.646242 -5.645318 -5.644388 -5.643453 -5.642512 -5.641565 -5.640613 -5.639655 -5.638690 -5.637720 -5.636745 -5.635763 -5.634775 -5.633781 -5.632781 -5.631775 -5.630763 -5.629744 -5.628720 -5.627689 -5.626651 -5.625608 -5.624557 -5.623501 -5.622438 -5.621368 -5.620292 -5.619209 -5.618120 -5.617023 -5.615920 -5.614811 -5.613694 -5.612571 -5.611440 -5.610303 -5.609158 -5.608007 -5.606849 -5.605683 -5.604510 -5.603330 -5.602143 -5.600948 -5.599746 -5.598537 -5.597321 -5.596096 -5.594865 -5.593626 -5.592379 -5.591124 -5.589862 -5.588592 -5.587315 -5.586029 -5.584736 -5.583435 -5.582126 -5.580809 -5.579484 -5.578151 -5.576810 -5.575461 -5.574103 -5.572738 -5.571364 -5.569982 -5.568591 -5.567192 -5.565785 -5.564369 -5.562945 -5.561512 -5.560070 -5.558620 -5.557161 -5.555694 -5.554218 -5.552732 -5.551239 -5.549736 -5.548224 -5.546703 -5.545174 -5.543635 -5.542087 -5.540530 -5.538964 -5.537388 -5.535804 -5.534210 -5.532606 -5.530994 -5.529371 -5.527740 -5.526099 -5.524448 -5.522788 -5.521118 -5.519438 -5.517749 -5.516050 -5.514341 -5.512622 -5.510893 -5.509155 -5.507406 -5.505648 -5.503879 -5.502100 -5.500312 -5.498512 -5.496703 -5.494884 -5.493054 -5.491214 -5.489363 -5.487502 -5.485630 -5.483748 -5.481856 -5.479953 -5.478039 -5.476114 -5.474179 -5.472233 -5.470276 -5.468308 -5.466330 -5.464340 -5.462340 -5.460328 -5.458306 -5.456272 -5.454227 -5.452171 -5.450104 -5.448025 -5.445935 -5.443834 -5.441722 -5.439598 -5.437462 -5.435315 -5.433156 -5.430986 -5.428804 -5.426611 -5.424405 -5.422188 -5.419959 -5.417719 -5.415466 -5.413201 -5.410925 -5.408636 -5.406336 -5.404023 -5.401698 -5.399361 -5.397011 -5.394650 -5.392276 -5.389889 -5.387491 -5.385080 -5.382656 -5.380220 -5.377771 -5.375310 -5.372836 -5.370349 -5.367849 -5.365337 -5.362812 -5.360274 -5.357723 -5.355160 -5.352583 -5.349993 -5.347390 -5.344774 -5.342145 -5.339503 -5.336847 -5.334178 -5.331496 -5.328801 -5.326092 -5.323369 -5.320633 -5.317884 -5.315121 -5.312344 -5.309554 -5.306750 -5.303932 -5.301101 -5.298256 -5.295396 -5.292523 -5.289636 -5.286735 -5.283820 -5.280891 -5.277948 -5.274990 -5.272019 -5.269033 -5.266033 -5.263018 -5.259989 -5.256946 -5.253888 -5.250816 -5.247729 -5.244628 -5.241512 -5.238381 -5.235236 -5.232076 -5.228901 -5.225711 -5.222507 -5.219287 -5.216053 -5.212803 -5.209539 -5.206259 -5.202964 -5.199655 -5.196330 -5.192989 -5.189634 -5.186263 -5.182876 -5.179475 -5.176057 -5.172625 -5.169176 -5.165713 -5.162233 -5.158738 -5.155227 -5.151701 -5.148158 -5.144600 -5.141026 -5.137436 -5.133830 -5.130208 -5.126570 -5.122916 -5.119246 -5.115559 -5.111857 -5.108138 -5.104403 -5.100651 -5.096884 -5.093099 -5.089298 -5.085481 -5.081647 -5.077797 -5.073930 -5.070046 -5.066146 -5.062229 -5.058295 -5.054344 -5.050376 -5.046392 -5.042390 -5.038371 -5.034336 -5.030283 -5.026213 -5.022126 -5.018022 -5.013900 -5.009762 -5.005606 -5.001432 -4.997241 -4.993033 -4.988807 -4.984563 -4.980302 -4.976023 -4.971727 -4.967413 -4.963081 -4.958731 -4.954364 -4.949978 -4.945575 -4.941154 -4.936714 -4.932257 -4.927782 -4.923288 -4.918776 -4.914246 -4.909698 -4.905131 -4.900546 -4.895943 -4.891321 -4.886681 -4.882022 -4.877345 -4.872649 -4.867935 -4.863202 -4.858450 -4.853679 -4.848889 -4.844081 -4.839254 -4.834408 -4.829542 -4.824658 -4.819755 -4.814833 -4.809891 -4.804931 -4.799951 -4.794952 -4.789933 -4.784895 -4.779838 -4.774762 -4.769665 -4.764550 -4.759415 -4.754260 -4.749085 -4.743891 -4.738677 -4.733444 -4.728190 -4.722917 -4.717624 -4.712311 -4.706978 -4.701625 -4.696251 -4.690858 -4.685445 -4.680011 -4.674557 -4.669083 -4.663589 -4.658074 -4.652539 -4.646983 -4.641407 -4.635810 -4.630193 -4.624555 -4.618897 -4.613218 -4.607518 -4.601797 -4.596055 -4.590293 -4.584510 -4.578706 -4.572881 -4.567034 -4.561167 -4.555279 -4.549369 -4.543438 -4.537487 -4.531513 -4.525519 -4.519503 -4.513466 -4.507407 -4.501327 -4.495225 -4.489101 -4.482957 -4.476790 -4.470602 -4.464392 -4.458160 -4.451906 -4.445631 -4.439333 -4.433014 -4.426673 -4.420309 -4.413924 -4.407516 -4.401086 -4.394635 -4.388160 -4.381664 -4.375145 -4.368604 -4.362041 -4.355455 -4.348846 -4.342215 -4.335562 -4.328885 -4.322186 -4.315465 -4.308721 -4.301954 -4.295164 -4.288351 -4.281515 -4.274657 -4.267775 -4.260870 -4.253943 -4.246992 -4.240018 -4.233020 -4.226000 -4.218956 -4.211889 -4.204799 -4.197685 -4.190548 -4.183387 -4.176202 -4.168994 -4.161763 -4.154508 -4.147229 -4.139926 -4.132600 -4.125249 -4.117875 -4.110477 -4.103055 -4.095609 -4.088139 -4.080645 -4.073127 -4.065584 -4.058018 -4.050427 -4.042811 -4.035172 -4.027508 -4.019820 -4.012107 -4.004370 -3.996608 -3.988821 -3.981010 -3.973175 -3.965314 -3.957429 -3.949519 -3.941585 -3.933625 -3.925640 -3.917631 -3.909596 -3.901537 -3.893452 -3.885342 -3.877207 -3.869047 -3.860862 -3.852651 -3.844415 -3.836153 -3.827867 -3.819554 -3.811216 -3.802853 -3.794464 -3.786049 -3.777609 -3.769143 -3.760651 -3.752134 -3.743591 -3.735021 -3.726426 -3.717805 -3.709158 -3.700485 -3.691785 -3.683060 -3.674308 -3.665531 -3.656726 -3.647896 -3.639039 -3.630156 -3.621247 -3.612311 -3.603348 -3.594359 -3.585344 -3.576301 -3.567232 -3.558137 -3.549014 -3.539865 -3.530689 -3.521486 -3.512256 -3.502999 -3.493715 -3.484404 -3.475066 -3.465701 -3.456309 -3.446889 -3.437442 -3.427968 -3.418467 -3.408938 -3.399381 -3.389798 -3.380186 -3.370548 -3.360881 -3.351187 -3.341465 -3.331716 -3.321939 -3.312133 -3.302301 -3.292440 -3.282551 -3.272634 -3.262690 -3.252717 -3.242716 -3.232687 -3.222630 -3.212544 -3.202431 -3.192288 -3.182118 -3.171919 -3.161692 -3.151437 -3.141152 -3.130840 -3.120498 -3.110128 -3.099730 -3.089302 -3.078846 -3.068361 -3.057847 -3.047304 -3.036733 -3.026132 -3.015502 -3.004844 -2.994156 -2.983439 -2.972693 -2.961917 -2.951112 -2.940278 -2.929415 -2.918522 -2.907600 -2.896648 -2.885667 -2.874657 -2.863616 -2.852546 -2.841446 -2.830317 -2.819158 -2.807969 -2.796750 -2.785501 -2.774222 -2.762914 -2.751575 -2.740206 -2.728807 -2.717378 -2.705919 -2.694429 -2.682909 -2.671359 -2.659779 -2.648168 -2.636527 -2.624855 -2.613153 -2.601420 -2.589656 -2.577862 -2.566037 -2.554182 -2.542295 -2.530378 -2.518430 -2.506451 -2.494441 -2.482400 -2.470328 -2.458225 -2.446091 -2.433926 -2.421730 -2.409502 -2.397243 -2.384953 -2.372631 -2.360278 -2.347893 -2.335477 -2.323030 -2.310551 -2.298040 -2.285497 -2.272923 -2.260318 -2.247680 -2.235010 -2.222309 -2.209576 -2.196811 -2.184014 -2.171184 -2.158323 -2.145430 -2.132504 -2.119546 -2.106556 -2.093534 -2.080479 -2.067392 -2.054273 -2.041121 -2.027937 -2.014720 -2.001470 -1.988188 -1.974874 -1.961526 -1.948146 -1.934733 -1.921287 -1.907808 -1.894297 -1.880752 -1.867175 -1.853564 -1.839920 -1.826243 -1.812534 -1.798790 -1.785014 -1.771204 -1.757361 -1.743485 -1.729575 -1.715632 -1.701655 -1.687644 -1.673600 -1.659523 -1.645412 -1.631267 -1.617088 -1.602876 -1.588629 -1.574349 -1.560035 -1.545687 -1.531305 -1.516889 -1.502438 -1.487954 -1.473436 -1.458883 -1.444296 -1.429675 -1.415019 -1.400329 -1.385605 -1.370846 -1.356052 -1.341225 -1.326362 -1.311465 -1.296533 -1.281567 -1.266565 -1.251529 -1.236458 -1.221353 -1.206212 -1.191036 -1.175825 -1.160580 -1.145299 -1.129983 -1.114632 -1.099245 -1.083824 -1.068367 -1.052875 -1.037347 -1.021784 -1.006185 -0.990551 -0.974882 -0.959177 -0.943436 -0.927659 -0.911847 -0.895999 -0.880115 -0.864196 -0.848240 -0.832249 -0.816221 -0.800158 -0.784059 -0.767923 -0.751751 -0.735543 -0.719299 -0.703019 -0.686702 -0.670349 -0.653960 -0.637534 -0.621072 -0.604573 -0.588037 -0.571466 -0.554857 -0.538212 -0.521530 -0.504811 -0.488055 -0.471263 -0.454433 -0.437567 -0.420664 -0.403724 -0.386746 -0.369732 -0.352680 -0.335592 -0.318466 -0.301302 -0.284102 -0.266864 -0.249589 -0.232276 -0.214926 -0.197538 -0.180113 -0.162650 -0.145149 -0.127611 -0.110035 -0.092422 -0.074770 -0.057081 -0.039353 -0.021588 -0.003785 0.014056 0.031935 0.049853 0.067808 0.085802 0.103834 0.121904 0.140013 0.158160 0.176345 0.194569 0.212831 0.231132 0.249471 0.267847 0.286260 0.304707 0.323187 0.341699 0.360242 0.378813 0.397412 0.416037 0.434687 0.453360 0.472055 0.490771 0.509506 0.528259 0.547028 0.565812 0.584609 0.603419 0.622239 0.641069 0.659906 0.678750 0.697600 0.716453 0.735308 0.754164 0.773020 0.791874 0.810724 0.829570 0.848410 0.867242 0.886065 0.904878 0.923679 0.942467 0.961241 0.979999 0.998739 1.017461 1.036162 1.054842 1.073499 1.092132 1.110739 1.129319 1.147870 1.166391 1.184881 1.203339 1.221762 1.240149 1.258498 1.276804 1.295066 1.313280 1.331442 1.349549 1.367599 1.385587 1.403511 1.421368 1.439154 1.456866 1.474501 1.492055 1.509526 1.526911 1.544205 1.561406 1.578511 1.595516 1.612418 1.629214 1.645901 1.662475 1.678934 1.695274 1.711492 1.727585 1.743549 1.759381 1.775079 1.790638 1.806056 1.821329 1.836455 1.851430 1.866250 1.880913 1.895416 1.909754 1.923926 1.937927 1.951755 1.965406 1.978878 1.992166 2.005268 2.018181 2.030901 2.043425 2.055749 2.067872 2.079789 2.091497 2.102993 2.114274 2.125336 2.136177 2.146794 2.157182 2.167339 2.177261 2.186946 2.196390 2.205590 2.214542 2.223244 2.231693 2.239884 2.247815 2.255483 2.262885 2.270016 2.276875 2.283458 2.289761 2.295781 2.301516 2.306962 2.312116 2.316977 2.321545 2.325818 2.329795 2.333475 2.336858 2.339941 2.342724 2.345206 2.347386 2.349263 2.350835 2.352102 2.353063 2.353717 2.354062 2.354097 2.353822 2.353240 2.352353 2.351163 2.349675 2.347890 2.345812 2.343444 2.340789 2.337848 2.334627 2.331126 2.327350 2.323301 2.318982 2.314396 2.309545 2.304434 2.299064 2.293439 2.287561 2.281434 2.275060 2.268442 2.261584 2.254487 2.247156 2.239592 2.231799 2.223780 2.215538 2.207075 2.198394 2.189499 2.180392 2.171077 2.161555 2.151831 2.141906 2.131784 2.121468 2.110961 2.100265 2.089384 2.078320 2.067076 2.055656 2.044062 2.032296 2.020363 2.008265 1.996004 1.983584 1.971008 1.958278 1.945397 1.932369 1.919196 1.905882 1.892428 1.878839 1.865116 1.851263 1.837283 1.823178 1.808952 1.794608 1.780147 1.765574 1.750892 1.736102 1.721208 1.706214 1.691121 1.675933 1.660652 1.645282 1.629826 1.614286 1.598665 1.582967 1.567194 1.551348 1.535434 1.519454 1.503410 1.487306 1.471144 1.454929 1.438661 1.422345 1.405983 1.389578 1.373134 1.356652 1.340137 1.323590 1.307014 1.290414 1.273791 1.257148 1.240489 1.223816 1.207132 1.190441 1.173744 1.157046 1.140348 1.123654 1.106966 1.090288 1.073623 1.056973 1.040342 1.023731 1.007145 0.990586 0.974056 0.957560 0.941099 0.924678 0.908297 0.891961 0.875673 0.859435 0.843250 0.827122 0.811052 0.795045 0.779102 0.763227 0.747423 0.731693 0.716039 0.700464 0.684972 0.669566 0.654247 0.639020 0.623886 0.608850 0.593913 0.579079 0.564351 0.549731 0.535223 0.520829 0.506553 0.492397 0.478363 0.464456 0.450678 0.437032 0.423521 0.410147 0.396914 0.383824 0.370881 0.358087 0.345446 0.332960 0.320631 0.308464 0.296461 0.284624 0.272957 0.261463 0.250144 0.239004 0.228045 0.217271 0.206683 0.196286 0.186082 0.176074 0.166264 0.156657 0.147254 0.138058 0.129073 0.120298 0.111734 0.103381 0.095238 0.087305 0.079582 0.072069 0.064766 0.057672 0.050788 0.044113 0.037648 0.031391 0.025343 0.019504 0.013873 0.008450 0.003236 -0.001770 -0.006569 -0.011160 -0.015543 -0.019719 -0.023687 -0.027449 -0.031004 -0.034352 -0.037493 -0.040429 -0.043157 -0.045680 -0.047997 -0.050108 -0.052014 -0.053714 -0.055208 -0.056498 -0.057582 -0.058462 -0.059137 -0.059608 -0.059874 -0.059937 -0.059795 -0.059449 -0.058900 -0.058147 -0.057190 -0.056031 -0.054668 -0.053103 -0.051334 -0.049363 -0.047190 -0.044815 -0.042237 -0.039457 -0.036476 -0.033293 -0.029909 -0.026323 -0.022536 -0.018548 -0.014359 -0.009970 -0.005380 -0.000590 0.004401 0.009591 0.014982 0.020572 0.026361 0.032350 0.038539 0.044926 0.051512 0.058297 0.065281 0.072463 0.079843 0.087422 0.095198 0.103172 0.111344 0.119714 0.128280 0.137044 0.146005 0.155163 0.164517 0.174068 0.183815 0.193759 0.203898 0.214234 0.224765 0.235492 0.246414 0.257531 0.268844 0.280351 0.292053 0.303950 0.316042 0.328327 0.340807 0.353481 0.366348 0.379409 0.392664 0.406112 0.419753 0.433587 0.447615 0.461834 0.476247 0.490852 0.505648 0.520638 0.535818 0.551191 0.566755 0.582511 0.598458 0.614596 0.630925 0.647445 0.664156 0.681057 0.698148 0.715429 0.732901 0.750562 0.768413 0.786453 0.804683 0.823102 0.841710 0.860507 0.879493 0.898667 0.918030 0.937581 0.957320 0.977247 0.997361 1.017664 1.038153 1.058830 1.079694 1.100746 1.121984 1.143408 1.165019 1.186817 1.208800 1.230970 1.253325 1.275866 1.298593 1.321505 1.344602 1.367885 1.391352 1.415004 1.438840 1.462861 1.487067 1.511456 1.536029 1.560786 1.585727 1.610851 1.636159 1.661649 1.687323 1.713179 1.739218 1.765440 1.791844 1.818430 1.845198 1.872148 1.899280 1.926594 1.954088 1.981764 2.009621 2.037659 2.065878 2.094277 2.122857 2.151617 2.180557 2.209677 2.238977 2.268457 2.298116 2.327954 2.357972 2.388168 2.418544 2.449098 2.479830 2.510741 2.541830 2.573098 2.604543 2.636166 2.667966 2.699944 2.732099 2.764431 2.796940 2.829626 2.862489 2.895528 2.928743 2.962134 2.995702 3.029445 3.063364 3.097458 3.131728 3.166173 3.200792 3.235587 3.270557 3.305701 3.341019 3.376512 3.412178 3.448019 3.484033 3.520221 3.556583 3.593117 3.629825 3.666706 3.703759 3.740985 3.778384 3.815955 3.853698 3.891613 3.929700 3.967959 4.006389 4.044990 4.083763 4.122706 4.161821 4.201106 4.240562 4.280188 4.319985 4.359952 4.400088 4.440394 4.480870 4.521516 4.562330 4.603314 4.644467 4.685788 4.727279 4.768937 4.810764 4.852759 4.894923 4.937254 4.979752 5.022419 5.065252 5.108253 5.151421 5.194756 5.238258 5.281926 5.325760 5.369761 5.413928 5.458261 5.502760 5.547424 5.592254 5.637249 5.682409 5.727734 5.773224 5.818879 5.864698 5.910682 5.956830 6.003141 6.049617 6.096256 6.143059 6.190026 6.237155 6.284448 6.331903 6.379522 6.427303 6.475246 6.523352 6.571619 6.620049 6.668640 6.717394 6.766308 6.815384 6.864621 6.914019 6.963578 7.013298 7.063178 7.113219 7.163419 7.213780 7.264301 7.314981 7.365821 7.416820 7.467967 7.519248 7.570649 7.622156 7.673754 7.725429 7.777167 7.828953 7.880773 7.932613 7.984458 8.036294 8.088107 8.139882 8.191606 8.243263 8.294839 8.346321 8.397693 8.448941 8.500052 8.551010 8.601802 8.652413 8.702829 8.753035 8.803018 8.852762 8.902253 8.951478 9.000422 9.049070 9.097408 9.145422 9.193098 9.240421 9.287376 9.333950 9.380129 9.425897 9.471241 9.516146 9.560598 9.604583 9.648085 9.691092 9.733589 9.775560 9.816993 9.857872 9.898183 9.937913 9.977046 10.015568 10.053466 10.090724 10.127328 10.163265 10.198519 10.233076 10.266923 10.300044 10.332425 10.364053 10.394912 10.424989 10.454269 10.482737 10.510380 10.537183 10.563132 10.588212 10.612410 10.635710 10.658098 10.679561 10.700084 10.719652 10.738251 10.755867 10.772486 10.788092 10.802673 10.816213 10.828698 10.840114 10.850447 10.859682 10.867805 10.874801 10.880657 10.885357 10.888889 10.891236 10.892385 10.892322 10.891032 10.888502 10.884715 10.879659 10.873320 10.865681 10.856730 10.846452 10.834833 10.821858 10.807513 10.791784 10.774656 10.756115 10.736147 10.714737 10.691872 10.667536 10.641715 10.614396 10.585563 10.555203 10.523300 10.489842 10.454813 10.418199 10.379986 10.340160 10.298705 10.255609 10.210856 10.164460 10.116459 10.066895 10.015807 9.963237 9.909225 9.853813 9.797040 9.738949 9.679579 9.618971 9.557166 9.494206 9.430130 9.364979 9.298795 9.231618 9.163490 9.094463 9.024592 8.953930 8.882532 8.810451 8.737742 8.664459 8.590656 8.516388 8.441707 8.366669 8.291336 8.215778 8.140069 8.064281 7.988486 7.912757 7.837166 7.761785 7.686687 7.611942 7.537584 7.463613 7.390027 7.316826 7.244010 7.171578 7.099528 7.027861 6.956575 6.885669 6.815143 6.744997 6.675228 6.605838 6.536823 6.468185 6.399922 6.332034 6.264519 6.197378 6.130608 6.064210 5.998182 5.932525 5.867236 5.802316 5.737764 5.673578 5.609758 5.546304 5.483214 5.420488 5.358125 5.296124 5.234485 5.173206 5.112288 5.051728 4.991527 4.931684 4.872198 4.813067 4.754293 4.695872 4.637806 4.580092 4.522731 4.465722 4.409063 4.352755 4.296795 4.241184 4.185921 4.131005 4.076435 4.022210 3.968330 3.914794 3.861602 3.808751 3.756242 3.704075 3.652247 3.600758 3.549608 3.498796 3.448321 3.398182 3.348379 3.298911 3.249776 3.200975 3.152506 3.104369 3.056563 3.009086 2.961940 2.915122 2.868632 2.822469 2.776632 2.731121 2.685935 2.641072 2.596534 2.552317 2.508423 2.464849 2.421596 2.378662 2.336046 2.293749 2.251769 2.210106 2.168758 2.127724 2.087006 2.046600 2.006507 1.966726 1.927256 1.888096 1.849246 1.810704 1.772471 1.734545 1.696925 1.659611 1.622602 1.585897 1.549496 1.513397 1.477600 1.442105 1.406910 1.372014 1.337417 1.303118 1.269117 1.235412 1.202003 1.168889 1.136069 1.103543 1.071310 1.039368 1.007718 0.976358 0.945288 0.914507 0.884014 0.853808 0.823889 0.794256 0.764908 0.735844 0.707064 0.678567 0.650351 0.622417 0.594764 0.567390 0.540295 0.513479 0.486940 0.460678 0.434691 0.408980 0.383543 0.358380 0.333490 0.308872 0.284525 0.260448 0.236642 0.213105 0.189836 0.166834 0.144100 0.121631 0.099427 0.077488 0.055813 0.034401 0.013251 -0.007638 -0.028266 -0.048634 -0.068743 -0.088594 -0.108187 -0.127523 -0.146603 -0.165428 -0.183998 -0.202315 -0.220378 -0.238189 -0.255749 -0.273058 -0.290117 -0.306927 -0.323488 -0.339802 -0.355868 -0.371689 -0.387264 -0.402595 -0.417681 -0.432525 -0.447126 -0.461486 -0.475605 -0.489484 -0.503124 -0.516525 -0.529688 -0.542614 -0.555305 -0.567759 -0.579979 -0.591965 -0.603718 -0.615239 -0.626528 -0.637586 -0.648414 -0.659012 -0.669382 -0.679524 -0.689439 -0.699128 -0.708591 -0.717830 -0.726844 -0.735636 -0.744205 -0.752552 -0.760678 -0.768584 -0.776270 -0.783738 -0.790988 -0.798021 -0.804838 -0.811439 -0.817825 -0.823997 -0.829956 -0.835702 -0.841236 -0.846560 -0.851673 -0.856576 -0.861271 -0.865758 -0.870038 -0.874112 -0.877979 -0.881642 -0.885101 -0.888356 -0.891409 -0.894259 -0.896909 -0.899359 -0.901608 -0.903659 -0.905512 -0.907168 -0.908627 -0.909891 -0.910960 -0.911834 -0.912515 -0.913003 -0.913299 -0.913404 -0.913319 -0.913044 -0.912581 -0.911929 -0.911090 -0.910064 -0.908852 -0.907456 -0.905875 -0.904110 -0.902163 -0.900034 -0.897724 -0.895233 -0.892562 -0.889713 -0.886685 -0.883480 -0.880098 -0.876541 -0.872808 -0.868901 -0.864821 -0.860567 -0.856142 -0.851545 -0.846777 -0.841840 -0.836734 -0.831460 -0.826018 -0.820410 -0.814635 -0.808695 -0.802591 -0.796324 -0.789893 -0.783300 -0.776546 -0.769631 -0.762557 -0.755323 -0.747931 -0.740382 -0.732675 -0.724813 -0.716795 -0.708623 -0.700298 -0.691819 -0.683188 -0.674406 -0.665472 -0.656389 -0.647157 -0.637777 -0.628249 -0.618574 -0.608753 -0.598786 -0.588675 -0.578421 -0.568023 -0.557483 -0.546801 -0.535979 -0.525017 -0.513915 -0.502675 -0.491298 -0.479783 -0.468132 -0.456346 -0.444425 -0.432371 -0.420183 -0.407863 -0.395411 -0.382829 -0.370116 -0.357275 -0.344304 -0.331206 -0.317981 -0.304630 -0.291153 -0.277551 -0.263826 -0.249977 -0.236006 -0.221914 -0.207700 -0.193367 -0.178914 -0.164342 -0.149653 -0.134846 -0.119923 -0.104885 -0.089732 -0.074465 -0.059084 -0.043591 -0.027987 -0.012271 0.003554 0.019490 0.035533 0.051685 0.067944 0.084309 0.100780 0.117356 0.134035 0.150818 0.167704 0.184691 0.201780 0.218969 0.236257 0.253644 0.271129 0.288711 0.306389 0.324163 0.342033 0.359996 0.378053 0.396202 0.414443 0.432775 0.451198 0.469710 0.488311 0.507000 0.525776 0.544639 0.563588 0.582621 0.601739 0.620940 0.640224 0.659590 0.679037 0.698564 0.718171 0.737857 0.757621 0.777463 0.797381 0.817374 0.837443 0.857586 0.877803 0.898092 0.918454 0.938886 0.959389 0.979962 1.000604 1.021314 1.042091 1.062935 1.083845 1.104820 1.125860 1.146963 1.168129 1.189357 1.210646 1.231996 1.253405 1.274874 1.296401 1.317985 1.339626 1.361323 1.383075 1.404882 1.426742 1.448655 1.470620 1.492637 1.514704 1.536822 1.558988 1.581202 1.603465 1.625774 1.648129 1.670529 1.692973 1.715462 1.737993 1.760567 1.783182 1.805838 1.828534 1.851269 1.874042 1.896853 1.919700 1.942584 1.965504 1.988457 2.011445 2.034466 2.057518 2.080603 2.103718 2.126863 2.150038 2.173240 2.196471 2.219729 2.243012 2.266321 2.289655 2.313013 2.336393 2.359796 2.383221 2.406667 2.430132 2.453617 2.477120 2.500642 2.524180 2.547734 2.571304 2.594889 2.618487 2.642099 2.665723 2.689359 2.713006 2.736662 2.760329 2.784003 2.807686 2.831376 2.855072 2.878773 2.902480 2.926190 2.949904 2.973620 2.997338 3.021057 3.044776 3.068494 3.092211 3.115927 3.139639 3.163347 3.187052 3.210751 3.234444 3.258130 3.281809 3.305480 3.329142 3.352794 3.376436 3.400066 3.423685 3.447291 3.470883 3.494460 3.518023 3.541570 3.565100 3.588613 3.612108 3.635584 3.659040 3.682476 3.705890 3.729283 3.752653 3.775999 3.799322 3.822619 3.845890 3.869135 3.892353 3.915543 3.938703 3.961834 3.984935 4.008005 4.031043 4.054048 4.077020 4.099957 4.122860 4.145727 4.168558 4.191351 4.214106 4.236823 4.259500 4.282137 4.304732 4.327286 4.349798 4.372266 4.394689 4.417068 4.439402 4.461689 4.483929 4.506121 4.528264 4.550358 4.572402 4.594394 4.616335 4.638223 4.660059 4.681840 4.703566 4.725237 4.746851 4.768409 4.789908 4.811349 4.832731 4.854052 4.875313 4.896511 4.917648 4.938721 4.959730 4.980675 5.001554 5.022367 5.043112 5.063790 5.084400 5.104940 5.125410 5.145809 5.166137 5.186392 5.206574 5.226683 5.246716 5.266675 5.286557 5.306362 5.326089 5.345738 5.365308 5.384798 5.404206 5.423534 5.442779 5.461941 5.481019 5.500013 5.518921 5.537744 5.556479 5.575127 5.593686 5.612156 5.630536 5.648826 5.667024 5.685130 5.703143 5.721062 5.738886 5.756616 5.774249 5.791785 5.809224 5.826565 5.843807 5.860948 5.877989 5.894929 5.911766 5.928501 5.945132 5.961658 5.978080 5.994395 6.010604 6.026705 6.042697 6.058581 6.074355 6.090019 6.105571 6.121011 6.136338 6.151552 6.166651 6.181635 6.196503 6.211255 6.225889 6.240405 6.254802 6.269079 6.283236 6.297272 6.311185 6.324976 6.338643 6.352186 6.365604 6.378896 6.392062 6.405100 6.418010 6.430791 6.443442 6.455963 6.468353 6.480611 6.492737 6.504728 6.516586 6.528308 6.539895 6.551346 6.562659 6.573833 6.584870 6.595766 6.606522 6.617138 6.627611 6.637942 6.648129 6.658172 6.668070 6.677822 6.687429 6.696887 6.706198 6.715360 6.724373 6.733235 6.741947 6.750508 6.758919 6.767181 6.775294 6.783258 6.791074 6.798742 6.806263 6.813637 6.820865 6.827947 6.834884 6.841676 6.848323 6.854826 6.861185 6.867401 6.873475 6.879406 6.885196 6.890844 6.896351 6.901718 6.906945 6.912032 6.916980 6.921790 6.926461 6.930995 6.935391 6.939651 6.943774 6.947761 6.951613 6.955330 6.958912 6.962360 6.965674 6.968856 6.971904 6.974820 6.977605 6.980258 6.982780 6.985171 6.987433 6.989564 6.991567 6.993441 6.995187 6.996805 6.998296 6.999660 7.000897 7.002009 7.002995 7.003856 7.004592 7.005204 7.005693 7.006058 7.006301 7.006421 7.006419 7.006296 7.006052 7.005687 7.005202 7.004598 7.003874 7.003032 7.002071 7.000993 6.999797 6.998484 6.997055 6.995510 6.993849 6.992074 6.990183 6.988178 6.986060 6.983828 6.981484 6.979027 6.976458 6.973778 6.970987 6.968085 6.965073 6.961951 6.958720 6.955381 6.951933 6.948377 6.944714 6.940944 6.937067 6.933084 6.928996 6.924802 6.920504 6.916102 6.911596 6.906986 6.902274 6.897459 6.892542 6.887524 6.882405 6.877185 6.871865 6.866445 6.860926 6.855308 6.849592 6.843778 6.837866 6.831858 6.825752 6.819551 6.813254 6.806862 6.800376 6.793795 6.787120 6.780352 6.773490 6.766537 6.759491 6.752354 6.745126 6.737807 6.730398 6.722899 6.715310 6.707633 6.699868 6.692015 6.684074 6.676046 6.667931 6.659731 6.651444 6.643073 6.634617 6.626076 6.617451 6.608744 6.599953 6.591079 6.582124 6.573087 6.563969 6.554770 6.545491 6.536132 6.526694 6.517176 6.507581 6.497907 6.488156 6.478328 6.468423 6.458442 6.448386 6.438254 6.428047 6.417766 6.407411 6.396982 6.386481 6.375907 6.365261 6.354543 6.343754 6.332894 6.321964 6.310964 6.299895 6.288757 6.277550 6.266276 6.254933 6.243524 6.232048 6.220506 6.208898 6.197224 6.185486 6.173684 6.161817 6.149887 6.137894 6.125839 6.113721 6.101541 6.089301 6.076999 6.064637 6.052216 6.039734 6.027194 6.014596 6.001939 5.989225 5.976453 5.963625 5.950741 5.937800 5.924805 5.911754 5.898649 5.885491 5.872278 5.859013 5.845694 5.832324 5.818902 5.805429 5.791904 5.778330 5.764705 5.751031 5.737308 5.723537 5.709717 5.695850 5.681936 5.667974 5.653967 5.639913 5.625815 5.611671 5.597483 5.583250 5.568975 5.554656 5.540294 5.525890 5.511445 5.496958 5.482430 5.467862 5.453253 5.438606 5.423919 5.409194 5.394430 5.379629 5.364791 5.349915 5.335004 5.320056 5.305073 5.290056 5.275003 5.259917 5.244797 5.229643 5.214457 5.199239 5.183989 5.168707 5.153395 5.138052 5.122679 5.107277 5.091846 5.076386 5.060897 5.045381 5.029838 5.014268 4.998671 4.983049 4.967401 4.951728 4.936030 4.920309 4.904563 4.888795 4.873004 4.857190 4.841354 4.825498 4.809620 4.793721 4.777803 4.761865 4.745908 4.729932 4.713938 4.697927 4.681897 4.665851 4.649789 4.633711 4.617617 4.601508 4.585384 4.569246 4.553095 4.536930 4.520753 4.504563 4.488361 4.472148 4.455924 4.439689 4.423444 4.407190 4.390926 4.374654 4.358373 4.342084 4.325789 4.309486 4.293177 4.276861 4.260541 4.244215 4.227884 4.211549 4.195211 4.178869 4.162524 4.146177 4.129828 4.113478 4.097126 4.080774 4.064422 4.048070 4.031719 4.015369 3.999021 3.982675 3.966331 3.949991 3.933654 3.917321 3.900992 3.884668 3.868350 3.852037 3.835731 3.819431 3.803138 3.786853 3.770576 3.754307 3.738047 3.721797 3.705556 3.689326 3.673107 3.656898 3.640702 3.624517 3.608345 3.592186 3.576040 3.559908 3.543791 3.527689 3.511601 3.495530 3.479474 3.463435 3.447414 3.431409 3.415423 3.399455 3.383507 3.367577 3.351667 3.335778 3.319909 3.304061 3.288235 3.272431 3.256649 3.240891 3.225155 3.209444 3.193757 3.178095 3.162458 3.146846 3.131261 3.115703 3.100171 3.084667 3.069190 3.053743 3.038324 3.022934 3.007574 2.992244 2.976945 2.961677 2.946441 2.931236 2.916064 2.900925 2.885819 2.870748 2.855710 2.840707 2.825739 2.810807 2.795911 2.781052 2.766229 2.751444 2.736697 2.721988 2.707318 2.692688 2.678096 2.663546 2.649035 2.634566 2.620138 2.605753 2.591409 2.577109 2.562852 2.548638 2.534469 2.520345 2.506265 2.492232 2.478244 2.464303 2.450409 2.436562 2.422763 2.409012 2.395310 2.381657 2.368054 2.354501 2.340999 2.327548 2.314148 2.300800 2.287504 2.274261 2.261072 2.247936 2.234855 2.221828 2.208856 2.195939 2.183079 2.170275 2.157528 2.144839 2.132207 2.119634 2.107119 2.094663 2.082267 2.069931 2.057656 2.045441 2.033288 2.021197 2.009168 1.997202 1.985300 1.973461 1.961686 1.949975 1.938330 1.926750 1.915236 1.903789 1.892409 1.881095 1.869850 1.858673 1.847564 1.836525 1.825555 1.814655 1.803825 1.793067 1.782380 1.771765 1.761222 1.750752 1.740355 1.730031 1.719782 1.709608 1.699508 1.689484 1.679536 1.669664 1.659869 1.650151 1.640511 1.630949 1.621465 1.612061 1.602737 1.593492 1.584328 1.575244 1.566242 1.557322 1.548484 1.539729 1.531057 1.522468 1.513964 1.505544 1.497209 1.488960 1.480796 1.472719 1.464728 1.456825 1.449009 1.441282 1.433643 1.426093 1.418633 1.411262 1.403982 1.396793 1.389695 1.382689 1.375775 1.368954 1.362226 1.355591 1.349051 1.342605 1.336253 1.329998 1.323838 1.317774 1.311807 1.305937 1.300165 1.294491 1.288916 1.283439 1.278062 1.272785 1.267608 1.262533 1.257558 1.252685 1.247914 1.243246 1.238681 1.234219 1.229862 1.225608 1.221460 1.217417 1.213480 1.209649 1.205925 1.202308 1.198798 1.195397 1.192104 1.188920 1.185845 1.182881 1.180026 1.177283 1.174650 1.172130 1.169721 1.167425 1.165242 1.163172 1.161217 1.159376 1.157649 1.156038 1.154543 1.153164 1.151901 1.150756 1.149728 1.148818 1.148027 1.147355 1.146802 1.146368 1.146056 1.145863 1.145792 1.145843 1.146015 1.146310 1.146726 1.147263 1.147920 1.148697 1.149594 1.150609 1.151743 1.152995 1.154364 1.155851 1.157454 1.159173 1.161007 1.162957 1.165021 1.167199 1.169490 1.171895 1.174412 1.177041 1.179782 1.182634 1.185597 1.188670 1.191852 1.195144 1.198544 1.202053 1.205669 1.209392 1.213222 1.217158 1.221200 1.225347 1.229599 1.233956 1.238415 1.242979 1.247645 1.252413 1.257283 1.262254 1.267327 1.272499 1.277772 1.283143 1.288614 1.294183 1.299850 1.305614 1.311475 1.317433 1.323486 1.329635 1.335879 1.342218 1.348650 1.355176 1.361795 1.368506 1.375309 1.382204 1.389190 1.396266 1.403433 1.410689 1.418034 1.425467 1.432989 1.440598 1.448295 1.456078 1.463947 1.471902 1.479942 1.488066 1.496275 1.504568 1.512943 1.521402 1.529942 1.538564 1.547268 1.556052 1.564917 1.573861 1.582885 1.591987 1.601168 1.610426 1.619762 1.629174 1.638663 1.648228 1.657868 1.667583 1.677372 1.687236 1.697172 1.707182 1.717264 1.727418 1.737643 1.747939 1.758306 1.768743 1.779249 1.789824 1.800467 1.811179 1.821958 1.832804 1.843717 1.854696 1.865740 1.876850 1.888024 1.899262 1.910563 1.921928 1.933355 1.944845 1.956396 1.968008 1.979681 1.991414 2.003207 2.015059 2.026970 2.038939 2.050966 2.063049 2.075190 2.087387 2.099639 2.111947 2.124310 2.136727 2.149198 2.161722 2.174299 2.186928 2.199609 2.212341 2.225125 2.237958 2.250842 2.263775 2.276757 2.289787 2.302865 2.315991 2.329163 2.342382 2.355647 2.368958 2.382313 2.395713 2.409157 2.422645 2.436175 2.449748 2.463363 2.477020 2.490717 2.504456 2.518234 2.532052 2.545909 2.559805 2.573739 2.587710 2.601719 2.615764 2.629845 2.643962 2.658115 2.672302 2.686523 2.700778 2.715066 2.729387 2.743740 2.758125 2.772541 2.786988 2.801465 2.815972 2.830509 2.845074 2.859667 2.874289 2.888937 2.903613 2.918315 2.933043 2.947796 2.962574 2.977377 2.992203 3.007053 3.021926 3.036821 3.051738 3.066677 3.081637 3.096617 3.111617 3.126637 3.141676 3.156733 3.171808 3.186901 3.202011 3.217138 3.232280 3.247439 3.262612 3.277800 3.293002 3.308218 3.323446 3.338688 3.353942 3.369207 3.384484 3.399771 3.415068 3.430375 3.445692 3.461017 3.476350 3.491692 3.507040 3.522395 3.537757 3.553124 3.568497 3.583874 3.599256 3.614641 3.630030 3.645422 3.660816 3.676212 3.691610 3.707008 3.722407 3.737806 3.753204 3.768601 3.783996 3.799390 3.814781 3.830169 3.845553 3.860934 3.876310 3.891681 3.907046 3.922406 3.937759 3.953105 3.968444 3.983775 3.999097 4.014411 4.029715 4.045009 4.060293 4.075566 4.090828 4.106078 4.121316 4.136540 4.151752 4.166949 4.182133 4.197302 4.212455 4.227592 4.242714 4.257819 4.272906 4.287976 4.303027 4.318060 4.333074 4.348068 4.363041 4.377995 4.392927 4.407837 4.422725 4.437591 4.452434 4.467253 4.482047 4.496818 4.511563 4.526283 4.540977 4.555644 4.570284 4.584897 4.599481 4.614037 4.628565 4.643062 4.657530 4.671967 4.686374 4.700749 4.715092 4.729402 4.743680 4.757925 4.772135 4.786311 4.800452 4.814558 4.828629 4.842662 4.856659 4.870619 4.884541 4.898424 4.912269 4.926075 4.939841 4.953566 4.967251 4.980895 4.994496 5.008056 5.021573 5.035047 5.048477 5.061863 5.075204 5.088501 5.101751 5.114956 5.128114 5.141224 5.154288 5.167303 5.180269 5.193187 5.206054 5.218872 5.231640 5.244356 5.257021 5.269634 5.282194 5.294701 5.307155 5.319555 5.331901 5.344191 5.356426 5.368606 5.380728 5.392794 5.404803 5.416754 5.428646 5.440479 5.452253 5.463968 5.475622 5.487215 5.498746 5.510216 5.521624 5.532969 5.544251 5.555469 5.566623 5.577712 5.588735 5.599693 5.610585 5.621411 5.632170 5.642862 5.653489 5.664050 5.674546 5.684976 5.695340 5.705640 5.715875 5.726046 5.736151 5.746193 5.756171 5.766085 5.775935 5.785722 5.795445 5.805105 5.814703 5.824238 5.833710 5.843120 5.852468 5.861754 5.870979 5.880142 5.889243 5.898284 5.907263 5.916182 5.925040 5.933838 5.942576 5.951254 5.959872 5.968430 5.976929 5.985369 5.993750 6.002073 6.010336 6.018541 6.026688 6.034778 6.042809 6.050782 6.058699 6.066557 6.074359 6.082104 6.089793 6.097425 6.105001 6.112520 6.119984 6.127392 6.134745 6.142042 6.149285 6.156472 6.163605 6.170683 6.177707 6.184677 6.191593 6.198455 6.205263 6.212019 6.218721 6.225370 6.231967 6.238511 6.245002 6.251442 6.257829 6.264165 6.270449 6.276681 6.282863 6.288993 6.295073 6.301102 6.307081 6.313009 6.318888 6.324716 6.330495 6.336225 6.341905 6.347536 6.353118 6.358652 6.364137 6.369574 6.374963 6.380304 6.385598 6.390843 6.396042 6.401193 6.406298 6.411356 6.416367 6.421332 6.426251 6.431123 6.435950 6.440732 6.445468 6.450159 6.454805 6.459408 6.463968 6.468487 6.472967 6.477409 6.481815 6.486186 6.490525 6.494832 6.499110 6.503359 6.507581 6.511778 6.515952 6.520104 6.524235 6.528348 6.532443 6.536522 6.540587 6.544640 6.548681 6.552713 6.556737 6.560755 6.564768 6.568778 6.572786 6.576794 6.580803 6.584816 6.588833 6.592856 6.596887 6.600927 6.604979 6.609042 6.613120 6.617213 6.621323 6.625452 6.629602 6.633773 6.637967 6.642187 6.646433 6.650707 6.655010 6.659345 6.663713 6.668115 6.672553 6.677029 6.681543 6.686098 6.690696 6.695337 6.700023 6.704756 6.709538 6.714369 6.719253 6.724189 6.729180 6.734227 6.739333 6.744497 6.749723 6.755011 6.760363 6.765781 6.771266 6.776819 6.782444 6.788140 6.793909 6.799754 6.805675 6.811674 6.817754 6.823914 6.830157 6.836485 6.842899 6.849400 6.855991 6.862672 