0.000000 0.000000 0.000000 0.000000 0.000000 0.000000 1.489751 0.492360 1.104790 2.905652 1.387047 1.997041 3.207733 2.146018 1.243352 1.807355 0.743595 2.053246 1.794348 2.435247 1.591981 0.952736 1.569571 1.355251 -1.847933 -3.431310 -4.489927 -6.462439 -8.628506 -7.754138 -5.930778 -6.171323 -4.281349 -2.902701 -3.114973 -3.041285 -2.032468 -1.412964 0.295495 -0.239033 -0.290490 -1.086187 -1.239596 -0.638875 0.743667 1.105570 0.072497 1.113492 0.126062 0.578651 -0.437425 1.042447 0.343812 -0.112483 1.740616 3.053662 2.576606 0.950072 0.322406 0.748664 -1.895990 -4.599471 -5.418633 -6.058111 -6.108516 -7.426503 -7.346804 -5.288548 -4.140676 -3.222638 -0.304760 -1.464339 0.485663 1.600899 1.559912 3.321061 3.554738 3.590650 4.123645 2.246277 1.858820 2.673296 2.490657 1.530833 1.795744 1.732429 2.120788 1.002869 0.418398 2.401955 2.931335 1.543342 2.758796 3.495464 0.760875 -0.522472 1.473622 0.685436 0.986797 0.693760 -0.329525 -0.729551 0.059282 0.176363 0.736599 0.928593 1.825668 1.668202 1.688246 1.391101 1.516830 2.566597 1.485276 1.582049 1.836214 0.329973 1.445561 1.548356 -0.207829 0.998326 1.275209 0.627397 0.782244 0.217123 -0.276239 0.683278 -0.653277 -1.676248 -1.130977 -0.808669 -1.302750 0.104020 0.848877 -0.194777 0.865568 -0.328356 -1.116152 -1.223469 -1.067288 -0.153532 0.863544 1.245716 1.421048 3.081402 2.028054 2.009695 1.984256 0.852870 1.134270 2.295843 1.555438 1.215995 1.235809 1.768868 1.344564 1.608524 1.970891 1.704704 2.075028 1.232263 0.760980 1.442364 1.580228 1.702340 0.556528 0.547053 -0.082320 -1.062260 -0.533412 0.496205 -0.022751 -0.419280 0.730747 0.925699 -0.442261 -0.448704 -1.185675 -0.614972 -0.691491 -1.994492 -1.797445 -1.140747 -0.830520 -0.285942 -1.192880 -1.071170 -1.541523 -2.027714 0.054135 -1.518717 -1.643422 -0.938676 -0.819027 -1.387346 -3.009162 -0.817590 -0.173806 -0.921874 -0.826757 -1.556064 -1.199139 -0.081014 0.143090 -0.601832 -0.654941 -0.812835 -1.495579 -1.372931 -1.626238 -1.234250 -1.310597 -1.819431 -1.969059 -1.304197 -1.148595 0.216589 -0.730303 -1.138341 -0.576650 -0.280293 -0.531362 -1.194982 -0.502582 -0.071356 0.609889 1.215396 0.742834 0.984165 2.325439 2.374504 1.512851 0.864391 0.126285 1.198303 1.505538 -0.254187 0.475683 0.559487 1.198649 1.401667 1.421707 1.635832 1.201454 1.189014 0.417288 0.474123 0.843343 0.930939 1.920815 1.175558 0.818492 -0.113646 1.029533 1.606344 -0.076606 0.135710 0.109573 0.091861 0.759813 1.228447 0.974570 -0.161776 0.325354 -0.246742 -0.342460 1.613145 1.095941 0.158369 1.416776 0.332777 0.010414 0.365383 -0.447095 -1.004120 -0.273696 -0.432056 -1.304281 -0.355910 -0.447078 0.040636 -0.169350 -1.388621 -0.621009 1.076223 0.031833 -0.440728 0.789082 -0.224187 -0.335365 0.396085 1.303121 1.024157 0.274582 0.787398 0.535198 0.882086 -0.739154 0.327356 -0.598157 -0.334397 -0.232798 -1.381395 -0.036985 0.536261 -0.186018 0.445805 1.503117 1.301225 1.072421 0.056926 -0.171685 0.469339 0.435406 0.705885 0.377251 0.818555 0.670269 0.562804 0.177315 -0.343302 -0.358756 -0.285168 0.436810 0.735448 0.271062 0.799089 1.568954 1.109488 -0.364471 0.224365 -0.225780 -0.461505 -0.745122 -0.433695 -0.407040 -0.265934 -0.632483 -1.230327 -0.163761 -0.526115 -0.535830 -0.924950 -0.657124 -0.236892 -1.296695 -1.107406 0.094446 -0.414357 -0.531624 -0.490110 -0.039507 1.021671 2.806259 3.380192 2.485205 2.051850 1.594602 1.991769 2.799005 2.365338 2.969381 3.124542 2.080886 1.939949 1.738354 2.849913 2.297832 1.687535 1.914300 2.186585 1.925445 1.402758 1.450233 1.640427 1.794732 1.660988 1.434180 1.010233 1.870193 0.724157 1.369889 1.299427 -0.386552 0.356747 0.075495 0.309624 1.172591 1.249530 0.832399 1.001457 0.719119 -0.146844 -0.048513 0.562786 0.462125 0.198578 0.246527 0.135163 -0.525977 0.250601 0.861136 -0.198300 0.633897 0.665682 1.492978 0.908884 0.082820 0.807348 -0.037874 -0.243986 0.338509 -0.524967 -1.206422 -0.617172 -0.417924 0.003260 0.603482 0.122743 0.847072 0.279389 -0.677426 -0.624068 -0.101567 1.052354 1.306688 1.666985 1.645136 1.330241 0.643552 0.045643 0.954105 0.621715 0.611112 0.287844 0.580673 1.010078 1.334302 1.945832 0.884555 0.393087 0.207213 0.505141 1.108550 1.439316 0.961008 0.539149 0.024824 -0.155537 1.061289 0.707945 -0.424454 -0.041501 0.638899 0.993876 1.242843 2.417818 1.947586 0.925961 1.884064 2.052269 1.227340 0.952338 1.316090 1.223574 0.950364 -0.015866 0.501572 0.709659 1.526652 0.695604 0.327042 0.875020 0.812760 0.978673 0.718459 1.427690 0.208119 0.020062 -0.104932 0.238557 -0.128569 -0.200563 -0.012977 -0.648464 -0.877483 -0.561225 -0.142562 -0.992780 -0.364414 -0.169261 -0.592801 -1.555433 -1.178881 0.074830 -0.917273 -1.707882 -0.598025 -0.109606 -0.662199 -0.143229 0.282909 0.191142 0.071829 -1.367892 -0.859818 0.290224 0.190149 -0.423038 -0.871408 -1.296385 -1.777553 -1.222340 -0.439907 -1.076254 -0.811747 -0.597807 -0.794331 -0.977441 -0.924514 0.482345 -0.357430 -0.738584 -0.618425 0.109374 0.242853 -0.154603 0.932304 -0.136009 -0.762892 -0.272619 -0.397404 0.193329 0.098198 1.342832 0.960905 0.833040 0.961992 0.256787 1.304815 0.349698 -0.865245 -0.630569 -1.155854 -0.671971 0.138286 -1.041604 -0.785890 -0.928277 -0.823639 -0.535010 -0.636498 -0.365915 -0.247162 -0.797445 -0.902647 -0.254608 -0.279418 0.047681 -0.587188 -0.134046 -1.194362 -0.493014 -0.527486 -0.549967 -0.425084 -2.115492 -1.723822 -1.001429 -0.864021 -1.643389 -1.222660 -0.733648 -1.438594 -0.917582 -0.771948 -0.589477 -0.726255 -1.662107 -0.423089 -0.259185 -1.389740 -1.463452 -1.388231 -0.657283 -0.249643 -1.901129 -1.110812 -0.385196 -1.354854 -1.986968 -1.528405 -0.306235 -1.512595 -1.586754 -1.458409 -0.787300 -1.008478 -0.987494 -0.445519 -0.539542 -0.273660 0.272631 1.116938 1.019882 0.792741 0.271048 0.562769 1.244167 0.866973 0.856264 -0.301147 -0.014897 0.068886 -0.351064 0.478522 1.048146 0.617121 1.311515 0.858689 0.096109 0.303425 0.245333 0.544023 0.123448 -0.895528 -0.176307 0.646868 0.504601 0.699014 -0.132746 -0.174886 -0.413707 0.698072 -0.023139 0.323734 1.303426 -0.247036 0.504295 1.316028 1.762561 0.803071 0.095767 -0.433353 -0.833350 -0.559912 -0.025378 -0.197930 -0.191721 -0.861310 -1.252386 -0.435313 0.083719 0.361677 -1.094093 -1.113010 -1.158284 -0.801997 0.204820 -0.821875 -0.793227 0.105146 -0.249488 0.201555 -0.219971 0.775322 0.805796 0.311910 0.072422 0.078885 0.756725 0.810678 0.855587 1.704191 1.822660 1.586156 1.858582 1.973542 2.076311 1.164429 1.312798 0.896683 0.479448 0.689218 0.837170 1.322916 0.765366 0.696274 1.817262 1.131252 1.777857 0.539594 0.548568 0.588404 -0.293751 -0.751932 -0.287422 0.776212 0.577531 0.026035 0.218124 1.296700 1.955143 1.551104 0.860861 2.203612 2.263173 1.235150 2.005761 1.942317 1.759651 3.071231 2.688425 2.654835 3.166077 2.917774 2.723367 1.741462 2.209498 2.069392 1.747762 1.774060 2.318645 2.329880 2.145832 2.442430 3.083078 2.504736 3.165718 3.207584 2.895416 1.988729 1.937099 2.986956 2.042815 1.637280 1.486081 1.315961 1.552844 0.532873 1.597609 1.553980 1.993389 1.438550 1.874883 1.250432 1.378441 1.574910 0.871532 0.611085 1.065040 0.650019 0.437753 -0.227115 0.821223 0.600842 -0.836851 -1.485726 -1.392845 -0.579521 -1.585498 -2.347948 -2.115996 -2.192364 -1.103741 -0.425741 -1.272884 -1.213689 -1.513482 -1.291074 -1.335572 -2.429262 -2.852364 -2.756855 -3.136067 -4.076589 -3.512647 -3.274215 -2.157079 -3.166420 -2.655138 -1.423278 -1.910283 -1.520579 -1.802402 -0.834094 -1.400916 -2.794868 -1.747107 -1.490085 -0.393958 -1.878913 -1.481155 -0.635623 -0.945918 -1.566397 -1.750632 -0.352070 -1.052996 -1.065987 -1.439925 -1.215475 -1.258186 -1.005637 -1.112824 -0.415375 -1.193070 -0.567168 0.699899 0.223564 1.061367 -0.278980 -0.880563 0.048787 -0.202407 0.924697 0.514865 0.199426 -0.288592 -0.179859 0.331839 0.284170 -0.113816 1.311918 0.721618 -0.371288 1.097084 0.262181 -0.355029 -0.336830 0.300356 -0.034820 -0.291041 -1.090238 -1.048593 1.135561 0.039407 -0.198406 -0.315226 -0.396944 0.254251 -0.002993 0.273652 0.357781 0.477353 0.026175 0.264972 1.068774 0.822752 0.802347 0.824598 0.583393 1.344753 -0.258595 0.626719 1.168612 0.345178 -0.550185 -0.414160 -0.546078 -0.470075 -0.610026 -0.550193 -1.689741 -2.028305 -1.722021 -0.913406 -1.462679 -2.471385 -2.159898 -1.049361 -0.379224 -1.639687 -1.125855 -1.471247 -0.869294 -0.375105 -0.567969 -0.699015 -0.406303 -0.439381 -0.095466 -0.673312 0.081454 -1.352532 -1.241170 -0.783317 -1.405735 -0.014035 0.379488 -0.135636 0.036531 -0.082297 0.029421 -0.129261 0.511828 -0.055846 -0.575934 0.161196 0.663388 -0.092146 -0.363951 -0.387714 -0.140776 -0.208673 -1.457252 -0.363724 -0.514239 -0.542903 0.568878 -0.230108 -0.705751 -1.223558 0.256612 0.474851 -0.449416 0.230155 -0.185301 -0.258439 -0.038860 -0.201784 -0.242713 -1.528705 -1.852933 -1.351900 -0.760510 -1.388965 -0.891290 -1.610805 -2.260870 -2.384899 -1.377779 -0.562082 -1.331191 -0.157693 -0.984438 0.412256 0.121334 -0.040849 -0.282649 -0.732448 0.368085 0.314499 -0.906532 -0.442039 -0.678568 -0.270296 -1.089904 -1.861292 -0.565514 -1.576126 -1.292678 -1.078766 -1.256876 -1.394197 -0.959559 -1.065660 -0.021505 -1.216632 -1.338222 -0.963288 -0.324188 -1.114203 -0.832600 1.099809 0.690559 -0.050381 0.447151 0.824475 1.356002 0.782814 -0.065088 0.924500 1.038340 1.180094 1.537949 1.326489 2.694209 2.309845 1.368854 2.269540 1.954104 2.738386 1.524633 1.985106 2.273121 1.545439 2.964553 2.298894 2.128278 2.736765 2.467482 1.636062 2.956429 1.707604 1.638452 2.378165 2.135748 2.059679 1.697854 2.215593 1.671864 1.783514 1.686947 1.683423 1.667823 1.176688 1.939781 1.290747 1.216562 1.482480 1.137024 1.531988 2.556351 2.208736 1.214667 1.385999 1.507546 3.046555 1.533236 1.626763 2.131924 2.426215 1.923020 1.880463 2.804641 3.050562 1.974541 2.102876 1.086575 2.840308 3.277329 1.797625 2.847923 1.833597 2.589294 1.262626 2.230244 2.503072 2.729805 2.207774 0.522096 1.688914 1.207147 2.212188 1.264675 1.402023 0.619999 2.004414 2.044807 0.719277 2.126479 2.540341 1.169929 1.498346 2.101204 1.480644 2.056400 1.656162 0.388916 0.526632 0.018020 0.930424 0.065558 0.410345 0.679573 0.474462 0.634563 1.262423 1.694801 1.403706 0.460464 1.120759 -0.318525 0.487800 0.285260 1.027542 2.269980 1.536593 1.207479 1.057539 0.728786 1.915326 0.913474 0.677938 0.154470 1.260129 2.207167 3.180861 2.389462 2.394026 1.396822 1.149250 0.936146 2.097484 2.783235 1.217846 0.707648 0.915144 1.711697 0.923164 0.753750 -0.239214 1.028718 -0.081094 0.943487 1.098440 1.673727 1.725240 0.266518 1.556675 1.141536 1.732265 2.458373 2.991877 3.293672 2.048349 1.489218 1.767732 2.118538 1.970116 2.568990 1.012732 1.447805 1.331614 1.810737 1.991044 2.114630 1.522539 0.603197 0.328921 1.825472 1.713666 1.730324 1.114666 1.218878 1.531272 1.354623 1.304321 2.522999 1.528494 1.124744 1.215811 1.257177 2.422022 1.816589 1.470834 0.984217 1.265350 1.848130 1.410117 1.311473 2.077219 1.091585 1.988070 0.887415 3.210506 1.381402 2.522117 3.506330 3.979341 3.336384 3.570856 1.082242 1.739615 3.825208 6.187418 4.239167 4.674186 3.246564 2.881255 3.282565 0.568700 -0.477061 -0.711490 -1.036648 -3.164057 -2.746629 -4.135906 -3.443729 -3.770486 -3.565999 -3.142964 -3.650660 -4.009433 -2.753227 -2.952935 -3.170836 -1.465475 -3.069270 -1.709711 -1.058609 -1.555665 -1.143803 -3.097435 -3.158348 -3.511041 -1.859284 -2.010732 -2.707934 -2.413929 -3.394608 -3.191788 -3.655391 -2.851357 -3.578497 -3.136683 -3.731529 -3.618999 -2.679563 -3.565675 -1.935806 -1.906856 -2.817644 -3.006249 -2.950253 -2.196900 -2.078431 -1.596976 -0.865666 -2.368363 -1.097881 -1.778923 -1.878973 -0.758237 -3.118097 -3.112317 -2.956502 -3.707011 -3.691872 -2.837261 -3.339669 -2.044910 -3.646014 -3.578425 -2.414808 -2.164759 -1.673694 -3.761379 -4.084789 -5.509494 -3.408821 -5.294450 -4.281022 -2.120599 -2.614037 -2.488412 -1.620609 0.380026 -0.114601 -0.701089 1.380203 1.155928 0.129502 -2.206828 -0.372418 -0.086772 0.323372 -1.950215 -1.299404 0.162518 -0.243119 -1.270171 -1.881255 -0.938561 -1.147306 -2.745738 -0.338990 -0.874385 -0.777587 -3.314617 -1.370228 -2.073012 -1.417890 0.818554 3.722321 3.162755 4.809257 0.538169 1.606931 0.217902 -1.823384 -2.900009 -3.117175 -3.553986 -2.755374 -2.274863 -1.802755 4.515962 5.288586 4.253672 1.035486 -0.538485 -0.844602 -0.975597 -0.848824 -0.351759 -2.032621 -1.300372 -0.877219 1.537314 -0.447791 -0.596497 -0.486929 1.415332 1.230280 0.822927 0.725623 -1.170502 -2.774706 -1.122593 -0.859601 -0.540000 -2.130186 -3.750680 -3.352964 -2.023800 -3.728998 -3.578395 -3.792742 -4.000015 -4.274287 -4.448259 -4.985125 -6.725973 -5.771551 -1.635448 -0.260129 0.665603 2.665538 2.238033 1.940053 3.583402 4.068624 3.418452 4.658357 3.467429 4.074240 3.788800 3.429707 4.730023 2.967557 2.833885 4.342985 1.369803 3.935896 4.161108 3.206516 0.214550 -0.898812 -2.512070 -3.094972 -3.900497 -3.645055 -3.600027 -3.454003 -2.421334 -1.539478 -1.071503 -1.834322 -4.451186 -1.892798 0.418902 -0.249767 0.492535 -0.766050 -0.610611 0.464765 -0.673274 -0.461485 -1.621320 -2.206847 -2.714362 -2.370578 -0.388024 -0.194193 0.185370 -0.749302 -2.253880 -1.438520 -1.423821 -1.809736 -1.125803 -1.264765 -1.607255 0.696046 -0.600618 -0.086218 1.628802 0.644886 -0.143263 -0.175241 1.043974 0.760403 0.287082 2.588352 1.414282 0.937863 2.278220 0.002741 -0.646397 -0.970453 -2.273966 -3.470283 -3.546492 -2.587076 -4.362118 -4.788069 -4.752205 -1.349739 -0.024690 -0.072494 2.548452 3.060041 1.641970 0.954224 1.655201 -0.313074 -2.426335 -0.870611 -0.580340 -0.661527 0.137148 -0.493690 -0.436616 -0.632743 -1.165935 -1.976202 -1.188405 -1.657573 -2.652160 -0.978909 -0.072657 1.569072 3.070366 3.931508 4.410791 2.101730 2.025545 0.987728 3.393640 3.062937 3.584248 2.995082 4.890348 3.062714 1.829602 3.017981 1.372227 3.530363 2.715501 3.144395 2.827463 1.121033 0.792934 -0.532069 -0.413449 -0.285430 2.100325 0.094590 -0.493238 -0.086619 0.868526 0.846930 0.454943 -1.172782 -0.057000 1.611898 0.738826 0.979365 1.637267 1.071588 0.188237 -0.626387 0.606950 0.259073 -1.714917 1.133251 -0.612211 -1.712200 -3.450783 -3.322808 -5.174622 -4.964938 -5.927315 -4.873951 -8.499234 -6.641343 -5.346087 -6.071960 -6.528351 -6.216504 -2.873966 0.510218 0.205023 2.293105 2.210602 4.405943 4.308084 6.145062 3.502913 2.890179 0.878858 2.206120 4.908141 4.677049 4.185695 4.157727 4.074507 0.507322 3.342779 3.254144 3.993092 3.387444 -0.998269 1.130837 1.534617 2.794576 2.047125 2.501952 -2.030668 -0.011957 2.994870 1.520343 1.993801 0.930274 1.671813 1.190082 1.548503 1.019957 1.340703 2.267737 -0.394096 -2.386323 -0.314714 -0.881946 -2.394085 -2.094986 -1.024053 -1.338307 -2.423306 -0.778552 -1.693113 -2.373969 -1.987551 -0.860124 -1.279352 -1.236283 -1.793612 0.824598 -1.023788 2.329685 1.527507 2.710871 2.745500 3.306951 2.167038 0.676274 -0.760026 0.812836 -0.215600 0.948830 1.330114 1.424479 1.653952 0.023315 -1.428860 -1.450993 -1.434738 -0.077803 -0.968785 -0.674478 -0.073151 1.040882 1.120191 1.487035 2.534103 2.118387 3.019765 1.678142 2.477380 0.839037 0.632603 -0.551442 1.106658 1.279218 1.313961 -0.563862 -0.948992 -0.295047 0.635968 -1.280923 -1.387005 0.125902 -1.626114 -2.585884 -4.535548 -4.658267 -4.557113 -3.639045 -2.130976 -0.444544 0.224468 2.212855 0.538845 1.357008 -0.073011 1.668668 0.733908 1.025079 0.878787 0.008014 2.661306 2.461820 3.451047 0.295209 0.645834 0.360988 -3.211242 -4.735287 -3.960782 -5.311352 -6.770306 -6.176683 -5.635389 -6.874958 -6.554904 -7.095193 -6.697787 -8.461227 -8.025492 -6.686544 -7.345020 -7.076085 -6.259873 -5.956745 -3.960940 -5.101213 -3.172376 -4.070312 -3.076567 -5.041721 -7.861128 -7.470609 -7.728390 -6.774102 -9.176149 -8.823891 -8.774548 -7.460978 -5.164483 -3.016205 -2.481047 0.062596 0.666600 3.420330 4.027016 5.448991 6.706104 8.290882 7.301679 7.755733 8.147484 8.481902 7.837817 7.069888 8.214163 7.704201 6.871044 4.706261 5.065119 4.931447 4.084539 3.827922 4.083217 5.143920 6.217585 5.148839 4.557756 5.579390 3.882167 5.785657 7.208672 6.438505 5.233643 6.324878 6.016861 7.206621 8.675190 8.979542 8.524502 6.942178 7.894608 7.786434 8.429438 9.057162 7.575050 3.989848 0.611078 -0.350213 -0.252622 -1.247234 -2.283469 -1.361923 -3.071780 -1.446592 -0.881141 0.771879 0.637288 -0.476591 -1.329261 -0.738391 -1.231422 -0.800869 -1.154019 -1.191353 -0.107676 -1.124313 0.005366 0.001808 1.245752 1.578829 0.516259 -0.825016 0.556834 0.390385 0.992601 0.122595 -0.101772 0.249934 1.163126 -0.310276 -1.213898 -0.659447 -0.314973 -1.858583 -1.342719 -1.738031 -1.759910 -1.333693 -2.623285 -2.217181 -0.272619 -1.668145 -2.241374 -1.258058 -1.457782 -1.006118 -0.144692 -0.447881 0.098517 -1.770466 -2.565986 -2.380395 -1.123006 -0.865938 -0.457424 0.669499 1.368087 2.704935 2.208378 3.187771 1.865951 2.118438 1.364188 1.952008 1.763734 0.457861 0.189379 0.879697 -0.637175 -2.918593 -5.338358 -5.907401 -4.036609 -3.875944 -2.262535 -1.381114 -0.880279 -1.309396 -2.295731 -1.364562 -1.360120 -1.011164 -1.385683 -2.993387 -2.729211 -1.830813 -1.267315 -1.520551 -0.918072 -0.757641 0.544959 1.484936 1.424650 -0.299462 0.816130 1.178691 1.795906 -0.196353 -1.337102 -0.915694 -2.160260 -0.934517 -1.767009 -0.117460 -1.032991 -2.222747 -3.122865 -1.872010 -0.377844 -0.494186 -2.370583 -0.772807 0.542028 -0.235435 -1.065791 -1.805932 -1.684321 -2.588711 -0.985861 -3.557848 -2.477042 -1.455809 -2.486921 -2.258437 -1.562055 -1.246234 -3.473420 -1.272955 -0.877498 -0.673741 -0.755955 -0.968929 -1.960839 -2.470409 -1.413330 -2.465629 -0.364364 0.632367 0.537965 0.403663 -0.867760 -0.695473 -0.821378 -0.105146 0.705729 1.173805 -0.380627 -1.279945 -1.767024 -2.989074 -3.669245 -5.525343 -5.916879 -6.540416 -5.280214 -5.380115 -3.777160 -4.211177 -3.726802 -4.099768 -3.045280 -3.335335 1.453827 2.810000 0.758872 1.083575 2.619407 5.571131 5.474102 5.643295 5.378183 6.480216 4.761855 5.651272 3.761888 1.405534 1.961457 3.323994 1.389786 2.400077 1.204539 -0.963422 -1.208817 1.799651 1.780752 0.760839 1.423474 0.245152 -1.390859 -1.921027 -1.912509 -1.919679 -2.412615 -2.743885 -2.794627 -0.730679 -0.312819 -0.278642 0.446422 1.282942 1.643011 0.340495 0.689368 0.499143 1.777442 1.458376 3.215567 4.165507 3.508675 3.294568 2.850193 2.432205 1.944457 2.055533 0.102994 -2.895287 -1.553356 -2.479136 -5.346424 -5.716386 -5.565638 -5.134414 -6.701322 -5.650086 -4.919300 -6.304877 -4.717179 -2.863606 -3.912628 -4.018657 -2.028314 -1.244499 -1.792104 -0.972927 -2.603223 -4.465400 -1.984956 -1.973130 -0.393172 -0.002409 1.072065 -0.828395 0.936912 -1.721953 -1.172481 -2.138775 -3.321880 -2.998076 -1.817552 -2.092424 -0.446815 -0.238232 -0.685435 -0.202766 -2.403238 -3.203951 -3.164048 -3.578889 -5.126482 -5.461172 -7.513987 -7.071993 -8.162394 -6.576038 -8.020054 -7.584643 -7.424817 -7.131568 -7.342828 -5.499740 -5.660565 -6.269596 -6.407416 -5.493702 -4.548893 -5.604903 -3.363724 -1.430519 -1.374954 -1.084272 -0.503360 0.316609 -1.094922 -3.554596 -3.505216 -4.420671 -4.613691 -6.115552 -6.633812 -7.545605 -7.656418 -7.162285 -8.008869 -7.546077 -9.033272 -7.126100 -9.189346 -6.873831 -5.094332 -1.028698 2.296653 -0.790077 -1.690259 -2.696167 -3.312346 -1.755799 -2.658101 -5.234612 -2.449834 0.280376 0.203131 0.793310 0.120242 -0.015969 -0.290428 -1.262351 -2.721126 -3.341799 -1.147402 0.733443 0.288609 2.276329 2.388134 -1.106135 2.686749 6.895184 5.084632 4.970260 5.307320 7.050836 8.038320 5.480951 4.383404 2.923796 5.027130 6.956570 7.710263 8.715936 9.530065 10.519579 9.186359 10.965634 11.428501 8.757247 9.281247 10.253468 10.262718 7.925776 10.239171 10.072232 10.144741 10.380686 9.489016 9.052097 9.657669 9.037940 7.366513 7.609869 7.322053 6.995393 6.407980 4.119210 0.628701 0.241237 -0.096872 -0.166273 -1.255708 -1.768142 -1.772678 -0.752018 0.072296 -1.104696 -1.112091 -0.321850 1.340771 4.490793 2.849207 2.098804 0.571516 -1.784850 -0.420897 0.466932 0.162807 -1.039375 3.846774 4.431286 6.068424 6.482554 6.622284 4.938388 3.412597 3.842909 3.182527 3.285814 2.224960 1.526647 3.889233 2.113543 2.218271 3.009205 3.792861 3.898231 2.514716 4.171728 4.436399 4.413145 4.840993 4.424043 4.734265 6.079696 6.871467 5.909485 5.029455 5.335483 6.371950 5.712238 7.689781 7.414208 6.141730 7.843032 7.705219 7.690204 7.178935 7.107192 5.442565 5.972652 4.379096 3.377496 4.000646 3.278402 1.768348 2.781472 2.641346 2.921029 0.466256 -1.357589 -2.363938 -1.742957 -2.106024 -2.892355 -3.171141 -3.094449 -4.986142 -2.640880 -1.987560 -2.980590 -2.081402 -2.105223 -0.869858 -0.892165 -0.850566 -0.969578 -1.070239 -2.041833 -2.496196 -2.327458 -3.215118 -2.353674 -2.742437 -3.132576 -1.630060 -0.619058 -1.604367 -1.387811 -2.162182 -3.027836 -3.845900 -3.548006 -4.828234 -5.508932 -8.474669 -6.360797 -5.625951 -6.306175 -6.372314 -5.289733 -3.915602 -3.529914 -3.649345 -2.953432 -5.727968 -4.465715 -3.601221 -3.348980 -3.412057 -4.347301 -4.695575 -5.449268 -4.435001 -5.222859 -5.029269 -4.107238 -3.370552 -3.824585 -3.474113 -3.771486 -2.499347 -1.928769 -4.109482 -3.589436 -2.167661 -2.850796 -3.067244 -3.556168 -3.817900 -3.731847 -2.558498 -3.454607 -4.794662 -4.682938 -4.716343 -5.809069 -5.875468 -5.536536 -6.774553 -7.284909 -5.626252 -4.140079 -3.040689 -4.226074 -4.147582 -4.664373 -4.711844 -4.343308 -3.542480 -3.589231 -4.367495 -4.154009 -3.082407 -1.423848 -2.513774 -2.982216 -3.287027 -4.427295 -4.540781 -3.919361 -3.404921 -3.077977 -2.884389 -2.617646 -2.829422 -0.710137 -2.058246 -1.430302 -1.718696 -1.156560 0.162360 0.557318 1.640042 1.927092 1.181420 0.652780 2.606124 1.966988 1.473625 1.497903 0.585148 -0.162306 0.723934 1.382386 1.144993 1.103674 0.798780 0.324618 2.317931 1.753827 -0.872238 -0.906990 -0.444910 -1.307568 -1.921619 -0.984528 0.484132 0.689784 -0.084392 1.540367 0.336849 -0.486174 -1.102553 -1.196872 -1.653276 -0.366511 -0.146352 0.766072 -0.724544 -0.974761 0.106614 0.306541 0.676420 0.849653 1.052568 0.497416 0.203362 2.272255 -0.309398 -0.031464 -0.292455 0.471661 1.057381 0.944707 1.598809 1.225835 2.284542 2.952303 2.626761 2.157701 1.600080 1.831950 3.132076 3.567000 2.863344 1.879362 1.630355 1.968558 1.876869 -0.106924 1.145649 2.357984 1.847854 0.770246 2.147096 1.289461 2.360177 1.562818 0.653408 0.948663 1.345205 -0.644113 0.016647 -1.282997 -1.148432 -1.914271 -1.669330 -2.668806 -1.184843 -1.219347 -2.217263 -2.488534 -2.176708 -0.783583 -0.299008 0.244549 -0.041875 -0.850061 0.111369 -0.792601 -1.838933 -1.936445 -1.214255 -0.451504 -0.198787 0.405683 0.921819 0.835906 1.217543 1.385936 0.193086 -2.055807 -0.250176 0.118843 0.395131 0.548978 -0.403467 -0.181578 0.723605 1.738976 2.533596 2.541837 3.215651 3.746294 3.587888 1.811745 1.786523 0.502058 0.091634 0.909221 -0.765308 -0.028565 0.955901 1.330670 0.697013 -0.255846 0.123247 -0.849673 -1.612117 -1.289264 -1.556962 -1.720725 -1.793334 -1.395707 -2.324906 -2.824620 -1.929860 -1.090227 -2.376606 -2.971961 -2.323263 -2.737270 -1.948237 -1.700780 -2.657481 -1.811416 -0.955034 -0.564288 -1.561091 -0.437277 -0.919813 -1.163695 -1.028258 -0.507840 -1.457434 0.008990 0.764719 0.071539 -1.440384 -1.259022 -0.779241 -1.532561 -1.779314 -1.375293 -1.833894 -1.316479 -0.277120 -0.512796 -0.999649 -1.902686 -1.129435 -1.601932 -2.037531 -2.670336 -2.892655 -1.121883 -2.940280 -2.818179 -2.162808 -1.455677 -0.871997 0.645987 1.877804 1.615588 1.591367 0.231816 1.397631 2.151209 2.345509 1.266445 0.300696 1.051939 0.209544 1.025369 -1.360321 -0.871204 -0.683314 0.197406 0.335849 -0.124572 0.499993 -0.129118 0.597015 2.363745 1.327922 0.488279 -0.837221 0.473318 1.209816 -0.952986 -1.279196 -1.515995 -1.299870 -0.680878 -0.504271 -1.852493 -1.143659 -1.513672 -1.382915 -2.617102 -1.347706 -0.390311 -1.760459 -0.912227 -1.356750 -1.560553 -2.186127 -1.818924 -0.992846 -2.062791 -2.949231 -3.185973 -2.949327 -3.108665 -2.213037 -0.609880 -1.872538 -1.183971 -2.488188 -1.207971 -0.954747 -0.488059 -2.221385 -3.801170 -2.692448 -1.594313 -1.460216 -1.808135 -1.933368 -0.614063 -1.113065 -1.444594 -1.342838 -0.450926 0.258451 0.236050 -0.336178 -0.442046 0.263522 -0.983499 -1.000028 -0.406264 -0.331550 -0.024406 0.131768 0.810874 1.531011 1.540387 1.976404 0.440795 0.476810 0.320934 -0.516140 -0.102036 1.841415 2.269128 2.916659 3.757151 3.905230 4.000785 3.887135 4.256892 4.319287 4.276328 5.027179 5.498893 4.004778 5.047984 3.450036 2.753009 2.985375 3.213568 3.621847 2.844203 2.444535 2.700297 2.456915 2.918491 4.042364 3.314189 3.386926 2.746295 3.072431 3.329159 2.611311 2.950680 2.026903 1.409275 1.965416 1.169407 2.186780 1.327650 1.282771 1.469329 2.362437 2.143461 0.856199 1.708314 1.474793 0.745309 1.023604 1.224613 2.660365 3.067560 2.148634 1.207152 0.339775 0.289568 -0.469702 0.207353 -0.583733 -0.008721 -0.506049 1.232902 2.060332 1.245570 1.128043 1.458865 2.276639 1.715522 0.576781 1.452434 -0.347842 1.691260 1.668550 2.134765 1.783597 2.129157 2.351379 0.898825 -0.081627 -0.325934 -0.124852 -0.301008 -0.185171 0.069872 1.056679 0.960513 0.312446 0.225477 0.249607 -0.111686 0.698017 1.203684 1.371156 1.346815 0.245177 0.085314 -0.231872 -0.478115 -0.542228 -1.266588 -1.215320 -0.519237 0.287962 -0.905891 -1.042431 -1.598197 -2.103351 -1.794766 -2.043529 -1.433604 -1.791223 -2.154061 -1.658857 -2.288085 -2.721202 -2.557529 -1.698831 -2.413776 -2.705695 -2.108638 -1.794614 -1.453484 -2.138551 -1.620772 -1.259504 -1.732199 -2.062014 -1.036474 -0.856005 -1.477965 -2.043224 -2.092993 -1.333342 -1.861487 -2.246070 -1.769455 -2.557291 -2.095113 -1.708508 -1.274609 -1.114591 -1.404575 -1.266832 -1.183927 -1.525139 -0.865851 -0.521143 -0.851150 -1.430110 -1.635297 -0.657845 -0.920611 -0.584380 -1.056971 -0.978064 -1.931706 -0.638200 -0.606312 -0.872775 -0.655786 0.118607 0.194279 0.262470 0.936860 0.980397 0.885698 0.068875 0.173032 0.420911 -0.182941 -0.312620 -0.113693 0.847968 0.704858 -0.016181 -0.035985 0.099140 -0.206650 -1.027767 -0.565813 -1.722410 -1.772058 -0.569821 -0.755400 -0.368020 -0.444941 -0.132694 -0.362588 -1.102047 -0.118982 -1.885224 -2.308356 -2.516358 -1.622731 -0.814285 -0.622233 -0.722194 -0.906228 -0.554666 0.231438 -0.521412 -0.808666 -0.615304 -0.529390 -0.690625 0.008540 0.298291 -0.162512 -0.551889 0.371832 0.618604 1.092980 0.357947 -0.313193 0.171877 0.433756 0.742837 0.290004 0.581884 0.052992 0.323384 0.047794 0.828782 0.459293 1.523363 0.408000 -0.652450 -0.859652 0.100918 -0.247693 -1.234687 -1.292446 -0.815793 -0.657085 -0.887587 -0.933912 -2.052216 -2.471380 -2.483799 -2.467434 -2.494348 -2.537812 -3.187780 -2.625316 -1.683929 -1.656896 -0.484192 -1.093743 -1.305595 -1.103645 -1.600275 -0.979560 -2.768123 -2.978713 -4.111722 -2.812760 -3.583857 -3.154347 -2.760991 -3.356065 -3.315063 -3.096711 -2.337903 -2.645164 -2.633585 -2.584025 -1.507139 -1.893471 -2.073939 -1.447150 0.102522 0.349600 0.007164 -0.535470 -0.691974 -0.173378 -0.163616 -0.860811 -0.573284 0.235228 -0.445725 -0.380770 0.023377 0.407123 -0.535975 -0.503719 -0.434834 0.125980 -1.591565 -0.769901 -0.581854 0.976627 1.050243 0.601265 0.008320 -0.531611 0.830125 0.416201 -0.377259 -0.471243 -0.938799 -1.197162 -1.066484 -2.135306 -0.996069 -1.472650 -1.708106 -1.763563 -0.903590 -1.173699 -1.435231 -1.538701 -1.890530 -1.476984 -0.718920 -0.142463 -1.012128 -0.296756 0.393717 1.312020 2.136292 1.693246 0.678646 1.006843 1.439485 1.031844 0.602147 1.180496 0.994289 0.530353 0.612447 -0.131846 0.110996 -1.048270 -0.270777 0.311168 1.132275 1.137987 -0.177303 0.578859 0.931038 1.671289 0.323132 0.338515 0.961530 0.675525 0.645083 0.221527 -1.016828 -0.203352 -0.251524 0.623781 0.639708 1.626271 1.318962 0.039203 -0.049544 0.563140 0.587657 -0.178492 -1.557990 -1.417575 -0.811164 -1.121857 -1.478109 -2.218727 -0.718943 -1.789370 -2.407325 -1.317490 -1.347892 -1.599157 -1.994386 -0.832992 -0.807261 -0.896849 -0.499342 0.042762 -0.972746 -1.373866 -1.229106 -0.501624 -0.795771 -1.562393 -0.825499 -0.831994 0.034933 -0.425522 -0.391376 -1.261845 0.046685 1.013299 -0.198169 -1.084932 0.133933 1.326424 1.104270 0.321265 0.888736 1.741514 1.640056 1.132335 1.195502 1.119520 0.137553 1.079709 0.212020 0.163681 0.530476 0.663464 -0.087532 -0.742192 -0.086513 0.907056 0.733601 0.428055 1.175690 0.965627 1.632236 0.507923 0.114968 -0.089267 -0.093893 0.121578 -0.959474 -0.700500 -1.761054 -0.763781 -1.149728 -1.478919 -1.056203 -0.849929 -1.076260 -1.369556 -0.954482 0.008171 -0.375941 -0.847440 -0.357912 -1.374027 -1.544431 -0.812458 -1.209060 -1.189105 -3.163281 -3.319793 -3.256835 -2.055584 -2.216703 -1.850133 -1.813659 -1.340922 -0.685561 -1.843533 -2.065890 -1.749101 -1.841594 -1.690766 -2.570879 -2.660925 -2.931454 -3.072052 -2.082469 -1.882398 -2.256885 -1.903042 -1.916378 -2.216332 -3.146349 -2.049459 -0.418979 -1.137406 -1.682164 -1.221305 -0.143664 -0.441409 -0.038408 -0.270182 -0.377633 0.092416 0.299105 -0.072251 -0.813058 -0.627412 -1.141490 -1.107731 -1.682124 -1.660630 -1.407983 -1.133433 -0.401481 -0.566052 -0.206829 -0.554750 -0.394356 1.137283 0.596989 0.643252 0.205099 0.730414 1.366394 0.939115 1.672598 0.940540 0.369926 0.196915 -0.043012 0.507017 0.272009 -1.166512 -0.681198 -0.512702 0.411867 -0.164126 -0.591539 0.036606 0.152736 0.170295 0.482275 1.315271 0.926194 1.640784 0.704403 0.906833 -0.277694 0.491039 1.305340 1.292332 0.965508 -0.279343 1.133111 1.040144 0.900105 1.505035 1.176518 1.200224 1.031017 1.971946 1.370041 0.349483 0.369960 1.081581 2.053066 1.715220 1.934802 1.792113 1.146009 1.479269 2.308115 2.189520 2.605203 2.449915 2.466685 2.335575 2.258246 2.243672 3.687142 4.139367 3.435190 4.919459 5.584889 5.413702 3.226862 2.860480 2.336761 1.577674 0.494448 1.422498 1.981103 2.469463 1.825086 1.374704 2.400478 2.125914 0.638731 0.171403 0.223147 0.704272 0.626628 0.926797 0.282394 1.032630 1.419366 1.568730 1.372423 1.461904 1.956440 0.627508 0.139774 -0.448443 0.423282 -0.388544 0.016844 0.986147 1.929871 2.565507 1.250164 1.621833 1.869016 1.393146 0.050826 -1.174038 -0.328803 -0.215659 0.748427 1.474012 1.873955 3.097133 2.795377 3.202939 5.084268 6.028705 5.756125 5.864546 6.727140 7.537469 7.522715 6.796816 6.675326 6.324243 7.018809 7.327466 7.771032 7.581298 8.069490 8.908821 8.487452 8.328476 8.203831 7.848921 6.969930 7.465118 7.247768 7.142357 6.646156 6.636352 6.635356 6.073752 5.265350 3.391000 1.875090 1.440233 0.544195 -0.286296 -1.824296 -2.579232 -2.708642 -2.323873 -1.766924 -1.225728 -1.557912 -2.614068 -3.299415 -1.957067 -2.498859 -2.209693 -2.449137 -2.233519 -2.076175 -1.453102 -2.052061 -2.089748 -1.875707 -2.450610 -1.357328 -0.627249 -0.081953 -0.119786 0.593377 0.948972 1.251052 0.941459 0.211556 -0.057647 -1.397016 -1.792696 -2.464183 -2.883360 -3.136235 -3.427141 -3.056493 -2.073789 -1.582793 -2.166086 -2.026574 -1.688118 -1.793242 -2.202313 -1.281336 -0.625219 -1.204429 -1.452724 -1.349592 -0.936667 -2.130987 -1.576634 -2.084998 -2.701818 -2.549453 -1.659499 -1.707134 -2.788904 -2.145156 -2.512988 -2.211206 -2.262545 -1.371855 -1.091398 -0.699183 -0.262556 0.040838 -0.682687 -0.685379 -1.213563 -1.869427 -2.805793 -3.079965 -2.852253 -3.714455 -3.169245 -3.553331 -2.794437 -2.488399 -1.587264 -1.496826 -1.886226 -1.656972 -1.255109 -2.509278 -2.975591 -2.302057 -1.644487 -0.578201 -0.871222 -0.358924 -0.055093 0.148047 0.494262 0.533917 0.129722 0.392654 0.611721 1.704887 1.963850 1.900987 2.203319 2.240651 1.971065 1.212123 1.693330 1.488808 1.491162 0.510661 0.422310 0.356692 -0.387674 -1.284172 -1.634759 -0.413008 -0.961219 -0.875433 -0.746286 -1.104168 -0.738973 -0.970484 -0.462689 -0.863289 -0.935163 -0.233361 -1.659349 -1.097583 0.024245 -0.641595 -1.612557 -1.650470 -1.089762 -1.104364 -0.879512 -1.088961 -0.690157 -0.525517 -0.726658 -0.239658 -0.841493 -0.398064 -1.322130 -1.399433 -0.911632 -0.333980 -0.555183 -1.503392 -0.876522 -0.632987 -1.002822 -1.274423 -0.838639 -0.391196 -0.724768 -0.846929 -0.175710 -0.038070 -0.688506 -0.608746 -0.916261 -0.483903 -0.261825 -0.823215 -0.281811 -0.625177 -0.196559 -0.894031 -0.691328 -0.404681 -0.975884 -1.063476 -1.148819 -0.635113 -0.321713 -0.088526 0.204155 -0.227203 -0.423154 -0.299223 0.077979 0.184054 -1.306108 -1.854035 -1.527707 -1.178828 -1.136346 -0.995735 -1.178514 -1.390072 -1.340699 -0.212010 0.009736 -0.376793 0.165253 0.249446 0.295883 0.482324 0.329112 0.477009 0.287623 -0.309809 0.885379 0.733166 1.134036 0.668417 -0.094819 -0.081295 -0.870770 -0.215574 0.142220 0.138082 0.276861 -0.415779 0.256642 0.785729 1.355625 0.422112 0.071056 0.050647 -0.342358 -1.173850 -1.081556 0.244397 0.648088 1.070191 0.394561 1.252115 1.101939 1.145881 1.223649 0.442866 0.787292 0.706985 1.622342 0.800184 -0.137637 -0.188447 0.456685 -0.398213 -1.189398 -1.121847 -0.922399 -0.847705 -1.126276 -1.607101 -1.562110 -1.849810 -1.519054 -0.844147 -1.457561 -0.819665 -1.695100 -0.998485 -0.262470 -0.972980 -1.657557 -2.715043 -2.070740 -1.460394 -1.812699 -2.450732 -1.962316 -2.005097 -2.154909 -2.413033 -1.820324 -2.560788 -1.744221 -1.334555 -1.367254 -1.313823 -0.982324 0.112774 0.120110 -1.353161 -1.231569 -0.865028 -0.547801 -0.467560 -0.555857 -0.551148 -1.122996 -0.451223 0.028101 -0.734192 -1.273213 -1.609258 -0.910959 -0.563527 -1.114743 -0.503606 -0.019574 -0.236641 0.315417 -0.324535 0.121257 0.224654 0.630858 1.264321 0.666588 0.649486 1.068563 0.895681 0.318818 -0.320058 -0.023036 0.225259 -0.476775 -1.170503 -1.082084 -0.326404 -0.392169 0.239906 0.153573 -0.692958 -1.376774 -1.350232 -0.524854 0.073755 0.162286 0.415352 -0.289254 -0.586289 -0.691976 -0.216238 -0.193545 0.336862 0.131440 0.763082 1.717978 1.465948 1.439453 0.431544 0.404297 1.074345 1.755069 1.496860 1.383027 1.290779 1.172288 1.095476 0.318495 0.460792 0.090468 -0.070636 -0.086410 0.238842 0.674418 0.490393 0.774267 0.108087 -0.168490 -0.192463 -0.509527 0.537641 0.394701 0.016028 -0.142440 -0.149887 -0.144074 0.310281 -0.663183 -0.680255 -0.964563 -1.190292 -0.140285 -0.442683 0.880352 0.172666 0.446358 0.581076 0.895282 0.881085 -0.005512 0.695833 0.109447 -0.456474 0.375296 0.505132 0.500381 0.165643 -0.487596 -0.957679 -0.918786 -0.362733 -0.684107 -1.054604 -0.976669 -0.738669 0.739714 0.351785 0.470915 0.197474 0.724614 0.754683 -0.176152 -0.113709 1.194766 1.498132 0.700532 0.882054 1.432783 2.275448 1.164788 0.722391 1.118681 1.941835 1.042868 0.346397 0.884898 1.565650 1.224051 0.872255 0.883189 2.152252 2.789483 2.259768 2.248292 1.250174 2.245562 2.043960 2.269438 2.034817 2.085469 2.411481 2.246741 2.652679 2.911343 3.410366 2.855183 2.387827 1.888208 1.665259 0.574823 0.597537 -0.385835 -0.104678 -0.253419 0.106418 -0.270701 0.025818 1.223694 1.132838 1.389928 1.453569 2.319579 1.755293 0.996733 0.626318 1.397320 -0.081199 -0.852019 0.357510 1.107075 0.685422 -0.074326 0.351615 1.395239 1.414530 0.934273 0.887136 0.500694 0.664821 0.270608 0.358780 0.981684 1.534776 0.820730 -0.134431 -0.879130 -0.330938 -0.008495 0.103131 -0.789939 -1.461594 -0.801761 -1.149819 -0.608084 -0.362646 -0.808742 -1.655164 -1.919465 -1.019321 -1.410871 -1.654288 -1.364027 -1.196792 -2.050094 -2.287823 -1.186579 -0.539252 -0.915671 -1.819274 -0.967150 -0.994703 -0.522093 0.252879 0.073933 0.513555 -0.103945 -0.077332 0.317184 -0.158365 -0.257365 -0.350627 -0.089580 -0.176314 -0.973336 -1.133890 -0.835284 0.368122 0.896508 0.898195 0.496573 0.229563 0.649335 0.603076 -0.671150 -0.702090 -0.332093 -0.267086 -0.270986 -1.210573 -0.226473 -0.208381 -0.206665 0.247061 0.521643 1.112813 1.075914 0.744168 1.585960 1.746393 0.613465 1.174958 1.900042 2.209605 1.316740 1.298843 1.322436 1.405963 1.176855 1.911337 1.560245 1.749451 2.522840 2.488337 3.052259 2.432230 3.107805 3.212999 2.884357 2.576831 2.489248 3.347726 3.978788 3.215621 3.702568 4.221204 3.974153 4.111591 3.784618 4.390757 3.590983 2.367444 2.395612 1.870774 2.252611 1.032238 1.047914 0.657244 0.659330 0.920685 0.721419 0.750721 0.588418 0.467571 -0.138963 -0.056566 -0.090617 -0.932531 -1.591080 -1.711993 -1.796960 -2.055922 -1.397260 -1.344978 -0.909071 -0.441815 -1.145434 -0.691577 0.423348 1.204223 1.339763 0.580965 0.561694 1.306003 1.746024 2.741178 2.057710 0.462184 -0.461790 -0.575881 -0.256710 -0.062542 -0.403531 -1.194714 -1.907509 -2.090895 -1.350670 -1.447484 -2.068832 -1.610651 -1.596232 -1.473479 -1.519293 -1.434344 -1.246195 -1.494506 -1.113310 -1.133373 -1.477554 -0.198254 -0.967656 -0.887635 -0.069106 0.687274 1.897665 0.470738 0.866238 0.861067 0.864012 1.106530 0.324028 0.234496 -0.024062 0.547001 0.922737 -0.386057 -0.268506 0.777505 0.930071 0.591229 0.041002 0.541022 0.497572 0.348629 -0.042959 0.248196 0.801318 0.634100 0.089821 0.051159 0.346695 -0.400559 0.168916 -0.078239 -0.764147 -0.295349 -0.365432 0.501302 -0.183310 -0.180278 0.079991 -0.999080 -1.185630 -0.898970 -0.712227 -1.709143 -2.179376 -1.183759 -0.405916 -0.967377 -1.359415 -1.226075 -1.254684 -2.133256 -1.628700 -1.099098 -1.873964 -1.551582 -0.901644 -1.237017 -0.908615 -0.263319 0.377884 0.152300 -0.397773 -0.111855 0.241779 -0.710815 -0.814512 -0.938086 -0.695182 -1.346690 -1.713691 -0.731899 -0.622303 -0.931642 -2.027274 -2.687603 -2.310623 -1.412758 -0.670534 -0.970249 -0.987831 -0.822063 -0.420001 -0.581153 -1.745533 -1.492529 -0.436257 -0.912576 -1.197542 -1.253641 -0.920458 -0.748421 -0.294172 0.033437 -0.568112 -0.102622 0.104948 0.139416 -0.345047 -0.321259 -0.333873 -0.909925 -1.221748 -1.412197 -2.258881 -1.527405 -1.139626 -0.795292 -0.637714 -0.685743 -0.940912 -1.674718 -2.295112 -2.259551 -1.513832 -1.375401 -0.951702 -0.859404 -0.788382 -0.763359 -1.613465 -1.773284 -1.496167 -1.226410 -1.339115 -1.859357 -0.999324 -0.598272 -0.911975 -1.420719 -0.324771 0.001453 -0.812712 -0.263942 -0.698925 -0.587916 -0.389389 -0.707234 -0.707270 -1.357843 -0.484775 -0.386623 -0.762484 -0.180438 0.739945 1.514549 1.848204 2.931007 2.953901 1.948122 1.395619 1.853563 1.716177 1.064934 0.542417 -0.130641 0.295272 2.496067 3.084772 2.287617 2.494299 2.793205 2.211270 1.862377 2.718192 2.142301 2.567707 2.177706 1.969500 2.071386 2.453315 2.129314 1.014536 1.602452 1.588187 1.727765 1.832381 3.067771 3.289751 2.739911 1.196569 0.107649 -0.352024 -0.316255 -1.206379 -1.938930 -1.301786 -1.528589 -1.168531 -0.829507 -0.535517 -1.213698 -1.040766 -0.401887 -0.633573 -0.427978 -0.079252 0.236852 0.281814 0.648174 1.007955 1.345027 1.343171 0.537660 -0.237733 0.156566 0.157529 -0.307992 -0.308849 0.284577 1.448999 1.311344 0.870076 1.102961 0.917418 0.457699 0.011625 -0.927080 -1.145589 -0.888237 0.000591 0.153442 0.730671 -0.056163 0.364103 0.194775 0.187057 0.333299 -0.355966 -1.017678 -0.344093 -0.075421 -0.754815 -0.978480 -0.837787 -0.685624 -0.772455 -1.501214 -1.296993 -0.386727 0.370003 -1.009970 -0.811121 -0.442860 0.426683 0.367269 -0.619774 -0.717640 -0.556882 -0.621316 -0.181607 -0.515996 -1.495144 -0.847047 0.086000 0.445331 -0.026722 -0.583420 -1.210408 -0.788852 -1.027038 -0.645692 -1.242121 -1.643359 -1.346483 -0.409013 -0.402643 -1.503400 -1.804653 -1.824952 -0.906270 -1.435982 -1.883552 -1.150435 -0.478291 -1.035152 -0.882119 -0.008366 0.258808 -0.289064 -0.697613 -0.302495 0.450607 0.187092 -0.250779 -0.347812 -0.001398 0.013745 -1.246275 -1.258683 -0.550793 0.282464 -0.235400 -0.052209 0.588938 0.566197 0.252578 0.480490 0.425294 -0.261941 -0.457675 -0.270554 -0.435446 -0.357855 -0.056155 -0.464030 -0.645429 -0.880176 -0.687612 -0.401938 -0.654033 -0.988650 -0.263129 0.055560 0.143064 -0.229523 0.347171 0.734985 0.561783 0.150528 0.518106 0.733035 0.968509 1.123772 1.125937 0.955558 0.211843 -0.532445 0.333330 0.299490 -0.541762 -0.208474 0.610260 0.418393 0.710948 1.282764 1.321471 1.879507 1.651533 1.283740 1.292693 1.498016 1.511471 1.252940 1.000432 0.881328 1.578389 1.202762 1.226684 0.325317 1.035022 1.242047 1.304475 0.909514 1.306721 1.574912 1.012398 0.685029 0.576747 1.302507 1.427228 1.453937 1.465442 1.691337 1.142424 0.660782 1.429733 1.618359 0.868117 0.279137 0.396382 -0.311505 -0.739532 -0.539829 0.409929 0.279277 -0.349945 0.089797 0.408570 0.297500 -0.360533 -0.333362 -1.117201 -0.809241 -0.401500 -0.446915 -0.375752 -0.557733 -0.361952 -0.632964 -0.792287 -0.902942 -0.001953 -0.861531 -1.284541 -1.482381 -1.516135 -2.252798 -2.361358 -2.078591 -1.012474 -0.529117 -0.198740 1.029649 2.173765 1.747656 0.947375 1.833044 1.732506 1.358297 0.713593 1.132241 0.829764 1.247476 0.575637 0.584403 0.736238 0.735496 1.050811 0.670863 0.519959 0.759725 1.134503 0.854448 0.442157 -0.309947 -0.689674 0.339107 0.291632 -0.948601 -0.506858 -0.278354 -0.078224 -0.108041 0.735607 0.293313 0.522646 0.890313 0.816544 0.451740 1.089417 1.250352 0.733683 0.703861 1.208869 1.088107 1.091521 0.523352 0.536503 0.189841 0.297042 -0.323203 0.660636 -0.063047 -0.953429 -0.831914 0.501401 -0.297174 0.341535 0.529916 0.057112 -0.371627 0.875203 0.657261 1.236703 2.210434 2.356581 1.933049 2.596100 2.335872 2.341016 2.674743 2.277893 1.992150 2.224680 1.109915 -0.111892 -0.629692 -0.785577 -1.779611 -2.234442 -2.424556 -2.149205 -2.350524 -2.449291 -2.385703 -2.695709 -2.235583 -2.487568 -1.574440 -0.863938 -0.595037 -0.866271 -1.420333 -1.478993 -1.795297 -1.674712 -2.019578 -0.528048 -0.403385 -0.596644 -0.380686 -0.825870 -1.470391 -2.190457 -1.843186 -1.457345 -1.220719 -1.461918 -1.314757 -0.798264 -1.006832 -1.576236 -2.034275 -1.534410 -1.111546 -0.849733 -1.106378 -0.478634 -0.269086 -0.861884 -1.419553 -2.135661 -2.104491 -1.489214 -1.704748 -1.616963 -1.215835 -0.889806 -1.398012 -1.511137 -2.740771 -2.488987 -1.948053 -1.975285 -2.609471 -1.978752 -1.033654 -0.962050 -0.937574 -1.298826 -1.090626 -1.595312 -1.762549 -2.196029 -1.822709 -1.518820 -1.453693 -0.854737 -0.142251 -1.123442 -0.906610 -0.018421 0.055725 -0.432219 -1.404645 -1.545165 -0.659226 -0.768416 -0.807221 -0.110885 -1.193589 -1.211329 -0.008338 0.243620 -0.699282 -0.495938 0.804830 2.291243 1.604344 1.466682 2.066519 2.009243 0.785915 0.825427 1.431183 0.920241 0.871575 0.849162 0.980064 0.688100 0.769515 0.953151 1.138325 0.066963 1.479272 1.445189 1.331314 0.828474 0.356474 0.857108 0.999940 0.773000 -0.313244 -0.246483 0.148363 0.258639 -0.763620 0.387328 -0.178774 -0.787476 -0.761951 -0.922328 -0.453112 -0.998012 -1.700173 -1.228796 -0.531575 -0.801817 -0.474822 -0.268726 -0.367754 -1.097103 -0.840859 -0.711758 -0.822159 -0.278219 -0.076183 -0.027901 0.144082 1.257802 1.414577 1.032647 0.169093 1.584861 0.550279 0.781567 -0.108188 0.555686 -0.077614 -0.633743 0.257408 0.643198 -0.372743 -0.169286 -0.068594 -0.186087 -0.856024 -1.465105 -1.279648 -0.471322 -0.614898 0.032548 -0.796810 0.477946 0.839620 0.796484 0.253190 0.903763 0.682682 0.543564 -0.213247 0.452813 0.344588 -0.765889 -1.100089 0.157916 -0.383198 -0.784000 -0.763949 0.080533 -0.673893 -0.711625 -0.489360 -0.587614 -0.605522 -0.259143 0.216223 0.251677 0.139034 0.290840 1.613967 0.826970 0.449516 0.715207 0.776166 0.523812 -0.563378 0.078095 0.438715 -0.387224 -0.180310 0.658299 0.069719 0.270157 1.420871 0.813638 0.783200 0.956473 0.379253 0.649858 0.670404 