-0.917071 2.473792 -0.688470 -0.579597 0.617306 5.085448 -1.763818 0.420137 4.265662 -1.813167 1.973702 2.537206 -0.777864 -1.823615 1.334867 -1.342620 4.154197 -0.366330 2.136757 -1.720627 -0.821834 2.053420 0.395233 -6.983846 -4.827107 -3.201066 -4.285361 -6.641287 -1.164919 2.360329 -1.615102 1.929106 0.065947 -1.287942 -1.052918 1.077347 1.179000 3.851273 -2.208264 -0.568669 -2.688579 0.300419 1.553955 3.143395 0.674786 -2.957785 2.444284 -1.870105 2.392116 -3.519549 4.043636 -1.806049 -0.020414 3.705009 4.028481 0.524763 -4.464465 -1.755566 2.136850 -4.849589 -7.674207 -4.982723 -1.992966 -0.274988 -5.696021 -3.300411 2.063468 2.173742 1.010985 4.444170 -3.946852 4.838427 1.781425 1.742282 3.950878 1.082537 1.924766 1.873118 -3.041988 -0.088897 2.465803 1.635353 -1.472776 0.562538 0.281483 2.511755 -2.259175 -1.157566 4.868438 2.868464 -2.043699 2.602512 2.462066 -4.840695 -3.214355 4.601749 -0.685847 2.268685 -2.415852 -2.139719 -1.133383 2.524387 0.626937 1.584355 -0.084582 2.980997 -0.116440 1.115361 -1.105125 1.357857 3.397925 -2.035554 1.211490 0.005663 -2.449183 3.405789 0.089373 -3.305947 2.798603 0.482706 0.187382 -0.275175 -1.540822 -0.995435 2.752324 -3.686126 -2.371398 -0.279558 1.334649 -1.195550 3.638980 1.113562 -1.842787 2.445953 -4.103299 -0.758625 -2.187810 1.158991 2.057705 3.289001 1.140835 0.717777 4.866532 -2.295241 1.988074 -1.314260 -1.335900 0.838932 3.783156 -0.703169 -0.013602 -0.817315 2.385377 -0.383642 2.170535 0.761310 0.344942 1.648472 -2.050977 -0.171096 1.337303 1.693110 1.501002 -3.041459 0.233750 -3.084939 -1.417024 0.601897 3.295680 -1.060246 -0.592285 1.937020 0.737258 -2.781483 -0.370282 -3.686159 2.461919 -1.429464 -2.489566 -1.230641 0.712431 1.105388 1.846015 -3.104317 -0.052280 -3.485317 -0.866834 5.043873 -4.710673 1.198662 -1.979320 1.656238 -2.853756 -4.490617 4.752243 0.359500 0.791243 -1.749576 -2.948599 -0.046733 2.862094 1.736470 -1.768523 -1.028557 -2.070941 -1.916083 -0.144077 -1.360066 1.075033 -1.501240 -1.425927 -2.009757 1.413339 -0.344677 4.955621 -4.053130 0.165373 -1.613563 2.186490 -1.389990 -1.145164 0.602901 0.994031 2.736984 2.045825 -0.753682 0.798696 3.819439 1.373045 -0.873563 -2.210264 -2.669350 3.509956 1.328982 -3.362578 1.653290 -1.278861 4.075627 0.141700 2.101438 -0.122483 -0.357600 0.055567 -2.136532 0.796849 0.718435 1.419183 3.493144 -1.884598 -0.069225 -4.099811 4.452207 1.104904 -2.767355 -0.013230 -1.337160 0.852541 1.942756 2.347913 -0.321653 -3.359492 1.035509 -2.741441 1.091411 5.540668 -0.792727 -1.377183 2.826525 -3.896828 0.456464 -0.316550 -1.765232 -2.044802 1.788129 -1.122687 -2.051609 2.101098 -1.023337 2.350896 -1.402119 -3.364884 1.140359 4.750980 -2.391698 -0.242899 2.425886 -3.157084 0.052454 1.268146 3.824069 -0.345476 -1.146376 0.705888 -0.888081 1.556948 -5.330556 3.939734 -4.760728 2.720434 -1.904405 -2.001716 2.424959 2.174531 -1.671970 2.325625 2.785086 0.635062 -0.256562 -3.305191 -1.201529 1.206163 0.560445 1.680700 -0.778705 1.726862 -0.904227 0.328662 -1.754301 -1.376325 -0.863412 0.235778 2.337412 1.607454 -0.882323 1.757283 2.312981 -0.647774 -4.562195 1.270711 -2.599987 0.026487 -1.927425 1.624866 -0.875294 1.276203 -2.143988 -1.781036 2.088798 -1.162721 0.290473 -1.882549 0.691409 0.426622 -3.263860 -0.014883 3.078182 -1.389139 0.222198 -0.739458 1.416537 3.165109 7.579461 3.630898 -0.197128 -1.463301 -2.098294 0.566442 3.469299 0.505001 4.240155 1.480205 -1.922095 -0.850646 -0.681870 3.913788 -0.444990 0.134257 0.771252 1.662190 -0.767799 -0.481957 0.064604 1.131695 0.963549 0.830313 -0.107464 -0.953206 2.763466 -3.537446 3.082390 -0.823200 -4.013603 0.960005 -0.862933 0.520922 3.571677 1.626443 -0.625131 0.891357 -1.453775 -3.348155 -0.293191 1.796935 0.098862 0.203881 0.471391 -0.664524 -2.733008 2.297497 1.523752 -2.358861 3.069410 0.056474 3.301778 -1.889513 -1.303093 0.616921 -2.288300 -1.440466 2.043204 -2.902505 -2.035571 0.832945 0.248136 1.145545 2.913336 -0.954962 2.808122 -2.273870 -2.787971 -1.820126 1.413598 3.087993 3.040847 2.803223 1.369618 -0.771827 -2.618606 -3.000383 1.988589 -1.076661 1.466860 -0.676147 1.861362 0.509526 2.297286 2.008442 -1.841140 -1.833526 -1.302987 0.014609 1.940970 2.471173 0.000094 -0.569607 -2.286702 -1.727625 2.864260 -0.490144 -2.274091 1.087537 1.842360 1.208204 1.991024 5.062916 -0.432416 -2.099609 2.242200 0.237624 -2.069025 -0.108248 1.302119 -0.109953 0.025260 -2.934165 1.348277 -0.219917 3.978460 -2.256974 0.795972 0.110969 0.691845 -0.300946 0.660493 2.047299 -2.993995 -0.649354 -1.520147 0.819975 -1.675455 0.905295 -0.084570 -1.334759 -1.762618 0.677042 0.387512 -2.188352 1.961771 0.266186 -0.997023 -3.825561 0.433569 2.261008 -2.247571 -2.328174 2.846594 0.661940 -0.902363 1.847968 1.342443 -0.162980 -0.060085 -5.388710 0.426109 2.108802 0.965203 -1.112589 -0.495248 -3.318576 -2.891650 -0.226432 2.492957 -1.565336 2.343675 -0.106970 -0.324751 -2.316043 0.044798 3.260460 -1.427953 -0.595614 -0.222468 1.832001 0.003621 -0.139284 3.523105 -3.031832 -1.973941 -0.266143 -0.767282 1.529633 0.927749 5.377956 -0.244286 1.217906 -0.848691 -2.080489 1.888247 -2.445636 -3.684685 -0.297460 -2.726019 1.063452 2.752374 -2.434329 0.918841 -1.529623 -0.304925 -0.418468 0.375984 0.469427 1.282879 -2.117607 -0.482142 0.708886 0.055786 1.167848 -1.345962 1.469319 -4.443630 2.073518 -1.902770 1.407089 -0.752095 -4.149407 -1.364328 1.522568 -0.286890 -1.510739 1.457484 1.042940 -2.714215 1.272395 -0.333015 0.620285 -0.646315 -2.685225 2.624357 0.301049 -3.130496 -0.901520 -0.821276 1.292831 1.659223 -4.201000 1.821630 1.035628 -2.960945 -3.079638 0.829876 2.556563 -3.030404 0.360061 -0.656980 1.397655 -1.457335 0.945746 0.922995 0.378759 0.470048 2.384139 2.925815 0.985915 -0.012999 -1.973758 -0.365554 1.520515 -0.258102 1.204781 -3.156938 0.177320 -1.206996 -1.297418 2.390497 3.737186 -0.114149 3.584567 -1.483241 -3.220705 -1.373691 -0.496563 0.646011 0.340293 -2.520793 1.766139 2.131903 0.210787 1.438553 -2.036344 -1.209948 -2.264314 3.427962 -2.054036 3.030170 3.772180 -3.759020 1.064834 2.496027 1.684378 -2.036089 -1.075088 -3.640325 -3.108356 -0.521740 2.483582 0.861997 2.131099 -2.236081 -2.652425 -0.072314 1.299802 1.878460 -2.759697 -0.206296 -2.364618 -0.130466 2.793446 -1.482962 0.640092 2.798971 -1.370221 1.171003 -1.460281 3.329939 0.153310 0.124089 -1.564506 -0.233342 0.851292 1.263974 1.208402 4.436058 1.401587 0.188313 0.421091 0.144460 0.024842 -2.266177 0.823367 -1.514036 -1.104150 0.398110 1.273067 2.209572 -0.466698 0.083270 3.419325 -2.075916 2.968330 -4.235945 0.268766 -1.931730 -1.979981 -3.289431 2.618187 3.236806 2.164753 -0.919666 0.715131 1.606460 2.703036 -0.146377 -0.841489 4.207784 0.674926 -2.665932 2.722288 -0.237107 -0.178745 5.457326 0.867159 1.246792 2.369502 -0.326620 -1.170863 -3.159822 1.097366 -0.460964 0.772717 1.097021 3.257186 0.533329 0.526497 0.715404 2.607210 -1.302616 3.647841 0.809666 0.773857 -3.274214 -0.178342 2.062355 -1.164929 -0.215297 0.195438 -0.740084 0.526089 -2.981479 3.499984 0.255204 3.576181 -1.227454 2.603680 -3.289528 0.610138 -0.609512 -0.806577 -1.195899 2.337651 -1.393172 0.110815 -2.954725 3.164529 -1.162470 -3.129564 -3.879710 -1.052700 1.032242 -1.969864 -2.061349 -0.213436 -1.543291 2.892886 2.889180 -1.070352 -0.230112 -2.479454 -1.095135 -1.324639 -3.470420 -2.383854 -0.876283 -2.070444 -3.881404 0.326928 -0.243824 3.877403 -2.704095 1.573751 2.148096 -1.272546 0.300795 -1.185299 2.366932 -1.879905 -4.591028 1.166666 0.117007 4.225120 -3.420907 1.339143 0.942555 -0.992552 -2.862564 -1.146796 3.408327 -1.259539 0.539256 -1.623779 -0.150302 -1.457564 0.777852 -0.555973 2.836974 -2.215080 1.849711 3.419937 -0.016749 2.656809 -3.624342 -3.360587 0.531114 -0.382506 4.251040 0.957077 0.291848 -2.650754 -1.054323 -0.054546 0.542328 -0.484565 5.388324 -0.386761 -3.054305 2.421708 -2.304737 -2.544903 -0.819780 2.452894 -0.351530 -0.000668 -3.003746 -1.097796 5.424932 -1.110925 -0.000452 -0.840203 -0.709675 0.477015 -0.161104 1.200477 0.936267 0.864251 -1.426688 0.127542 2.083056 0.198513 0.455059 0.485674 -0.618264 1.815666 -4.394362 1.584168 1.798911 -0.918083 -3.361790 -0.276179 -1.497247 -0.267821 -0.338558 0.897523 -3.524847 -2.382344 -0.950120 2.019492 -0.972086 -2.606777 -0.508331 2.452023 2.429093 -2.612421 0.825046 -1.879189 0.641033 1.121264 0.616632 -0.293545 0.916629 -0.481063 0.629286 -1.912959 1.923637 -4.305771 -0.706082 0.256029 -1.312101 3.657401 3.337575 -0.350804 0.143846 -1.140669 -1.042849 -1.175757 2.236347 -0.609287 -1.154600 1.527267 1.860414 -1.937696 -1.203178 -0.952184 0.142589 -0.124639 -3.351460 2.243795 0.039416 0.171053 3.455994 -0.948541 -2.350264 -2.983254 2.975921 1.479790 -0.936962 2.155763 -0.720962 -1.410320 -0.258018 -0.489133 -0.336802 -3.580200 -2.302735 0.197247 1.873143 -0.906410 1.901462 -1.873398 -3.338178 -2.687936 1.803891 2.982692 -0.012156 4.036889 -1.496596 2.612271 -0.959223 -0.659061 -1.578432 -1.325922 2.409904 1.321135 -2.979459 0.437134 -1.106365 0.234386 -2.344419 -2.603870 2.546170 -2.012265 0.101685 0.921196 -0.373347 -1.276339 1.054106 -0.462683 2.927022 -2.475158 -1.272326 -0.052043 1.762708 -2.145185 0.833361 6.014470 0.811603 -2.050122 0.877246 0.382519 1.099141 -0.522006 -2.130396 1.993477 1.004811 0.891609 1.841825 0.392562 3.878744 0.327696 -2.562973 1.652360 -0.340368 2.157719 -1.901825 1.494567 1.033603 -1.438009 3.655627 0.053096 -0.372947 1.980874 0.281068 -2.723866 3.566281 -2.119200 -0.868743 2.477274 0.648671 -0.197173 -0.117091 1.341086 -1.354214 0.287570 0.183329 0.288280 0.301193 -0.764371 1.921370 -1.012409 -0.349903 0.830299 -0.511845 0.941400 3.838168 0.648344 -2.260464 -0.155980 -0.308049 3.956307 -1.929206 0.695630 1.713648 1.228385 -1.229322 0.384950 2.629842 1.724445 -1.777893 0.407506 -2.978338 3.512469 2.866272 -1.921790 2.847220 -1.463968 0.655052 -3.363002 2.341630 1.384934 2.213894 -0.186485 -4.021935 0.946661 -1.304179 2.459284 -0.722522 1.322430 -2.084294 3.068942 0.597419 -2.713634 2.981934 2.669714 -3.198924 0.357517 2.214914 -1.660206 1.145837 0.572288 -3.391671 -1.030789 -1.166480 1.527306 -1.566221 1.483885 1.141257 -0.217279 -0.009745 2.015934 1.390943 -0.129841 -2.018366 1.112001 -3.910147 0.808902 0.008237 2.400298 3.848306 0.430673 -1.010245 -0.671335 -1.602194 2.013090 -1.343781 -0.328065 -1.169215 2.644885 2.647667 3.901566 -0.328234 0.482579 -2.776608 -1.758679 -1.489863 3.111223 3.063451 -1.966406 -1.470264 0.153872 1.060248 -1.897327 0.004681 -1.987485 2.301405 -2.220528 2.184246 1.179328 2.135013 0.486567 -2.821930 1.928593 -0.436783 1.085583 2.692947 3.072639 1.461076 -2.102626 -1.936725 -0.274511 0.549430 0.208898 2.550179 -2.405851 0.250637 -0.176261 1.039243 0.567450 1.485682 -0.814436 -2.399175 -1.473769 3.172659 0.590168 0.707450 -0.395443 0.225457 0.126415 -0.180857 0.000894 3.331042 -1.157234 -1.249110 0.251506 0.165852 2.313222 0.062587 -0.417508 -1.156962 0.427983 1.245621 -0.421034 0.025261 2.315990 -1.714849 1.464366 -1.604012 4.966704 -2.801162 2.316800 3.374406 2.406432 -1.323972 1.520611 -5.243729 -0.551211 5.362776 7.666517 -2.312612 1.844023 -1.839440 -2.567652 0.009134 -4.729222 -4.168339 -0.908390 -0.642129 -5.742285 -0.306868 -2.873550 -0.358217 -1.015401 0.438383 0.269741 -1.208690 -1.756107 1.914094 -0.396827 -1.251714 3.369557 -2.665046 1.158958 2.019541 -0.777844 -0.244060 -3.894114 -1.904152 -1.807158 2.947656 0.239824 -1.756706 0.066909 -2.375785 -1.361016 -1.530143 1.149903 -1.804423 0.046736 -1.454652 -0.828239 1.273511 -1.818407 2.372671 0.772586 -2.501765 -1.562083 -0.253446 0.810152 0.084377 1.084626 1.721446 -3.349936 1.453276 -0.883493 -1.269246 2.129790 -4.425160 -2.042220 0.157599 -2.159608 -1.388047 1.891850 -1.126408 1.577847 -2.973813 -1.355755 1.867441 0.718947 0.483080 -4.361066 -2.261102 -4.109525 2.783452 -3.674098 0.403204 4.855284 -0.573143 -1.165402 1.988772 4.399983 -0.871861 -1.465991 4.580549 0.317633 -2.731869 -4.979751 2.814419 0.979520 0.692997 -4.084683 0.370547 2.992708 -0.654343 -2.433997 -1.409200 1.382708 -0.653940 -3.722311 4.423248 -0.168942 -0.727312 -5.192486 2.800530 -1.328745 0.464091 5.265561 7.394373 0.123493 3.957281 -7.513646 0.032289 -2.127592 -5.104039 -3.061502 -0.891598 -1.763824 0.858864 1.155126 0.678534 13.309961 4.813391 -1.411061 -5.827170 -4.784423 -2.110274 -0.703068 0.529946 1.506134 -3.344921 0.532357 0.905858 4.864075 -2.992457 -0.990663 0.267045 3.450309 0.475163 -0.412142 0.014881 -4.234089 -4.500790 2.581850 0.950412 0.708153 -2.865468 -4.529384 -0.705245 2.192056 -3.483406 -0.666920 -0.798169 -1.656439 -1.430626 -1.138265 -2.038256 -4.758999 0.273213 8.067542 3.947050 2.586831 4.950433 -0.310138 -0.960597 3.716842 2.086183 -0.569945 3.366796 -1.136410 1.157155 0.561051 -0.234713 3.409185 -2.247662 -0.475672 4.033604 -5.107476 4.424060 2.958257 -1.624711 -6.119585 -3.119300 -4.180872 -2.559468 -1.968479 -0.063332 -0.310755 -0.347771 1.697392 1.764378 0.890674 -1.752195 -6.438856 3.827670 5.644448 -1.024430 1.836873 -2.170302 -0.901417 2.228666 -2.110130 0.131377 -2.251069 -2.169671 -1.570335 0.043250 4.080956 1.022678 0.845364 -1.700205 -4.022520 0.775094 -0.021469 -1.108517 1.480153 -0.275469 -1.207976 4.612657 -2.036649 0.371888 4.244004 -1.817299 -1.905168 -0.005954 2.228299 -0.063806 -0.853608 5.095287 -1.555193 -1.456201 3.402397 -4.472234 -2.182235 -0.427695 -3.365256 -3.140913 -0.841315 1.429049 -3.886380 -2.101720 -0.575239 5.946671 3.643455 0.142310 5.654487 1.947881 -2.924638 -1.501687 1.373618 -3.689724 -4.992658 2.581631 1.028674 -0.350749 1.915709 -1.064298 -0.431896 -0.487645 -1.381988 -1.939461 1.054706 -0.824081 -2.537616 2.823631 2.242212 3.519306 4.060886 2.559739 1.698776 -4.238149 -0.837139 -1.851999 4.644461 1.147985 1.480020 -0.131169 3.734856 -2.524136 -2.876554 2.726537 -2.823899 4.284634 -0.051127 0.769932 0.347902 -3.693958 -0.887783 -2.734061 -0.308122 0.674722 4.923376 -2.909507 -1.984244 0.798115 1.494638 0.551167 -0.507110 -3.378204 1.535789 3.706074 -1.226504 0.748862 1.610212 -1.221002 -1.737573 -1.937036 2.160484 -0.156917 -4.168511 5.452679 -2.847952 -3.280944 -3.268564 -1.526740 -3.835353 -0.890149 -2.190291 0.955692 -7.738924 1.343434 2.758865 -2.904684 -1.089739 -0.636354 5.597804 7.709266 -0.045521 4.621350 0.345157 3.697174 1.496381 3.771759 -3.528901 -1.984228 -3.560618 1.719442 6.935660 0.952947 0.086579 0.572159 -0.497087 -6.968802 5.325761 1.393716 1.477628 0.734287 -9.579869 3.534890 1.402680 2.087913 0.825983 0.480541 -8.707515 2.374761 6.906543 -2.647843 2.104289 -1.640032 0.520001 -0.215515 0.273377 -0.076711 0.461367 2.334533 -5.129980 -4.638058 3.918149 -1.412432 -3.011335 0.702233 1.514219 -0.627570 -2.474551 2.999860 -1.895388 -2.047044 0.843419 1.576084 -0.614398 -0.165659 -1.269846 4.776753 -3.267098 6.255440 -0.338863 1.589577 1.533218 0.443148 -1.173064 -3.270415 -2.833133 3.008182 -1.800141 2.542866 1.418806 -0.013169 1.025437 -3.528469 -2.947051 -0.360469 -0.295048 3.007176 -1.580305 0.446893 1.289246 1.825024 0.756963 0.724074 2.587262 -0.595630 2.051042 -2.076802 1.496730 -2.528002 -0.839920 -1.674838 2.834645 1.227709 0.015178 -3.242273 -1.312030 1.309027 1.799732 -3.444289 -0.382339 3.052052 -3.865174 -2.059670 -4.321425 -1.228435 0.034345 1.068179 3.461378 3.072738 1.403680 4.014896 -3.437821 1.492836 -2.629528 3.126257 -0.849913 0.023041 0.751489 -2.458735 5.961831 -0.066588 2.206895 -5.449370 -0.235970 0.371741 -8.216550 -2.608536 0.944819 -3.264343 -3.170943 0.300314 0.622557 -3.373639 -0.135121 -1.734599 -0.293807 -4.159852 -0.409580 2.231073 -2.582584 0.057848 0.678452 -0.340249 3.520387 -3.043967 3.352663 -2.051379 0.830687 -3.635016 -7.322806 0.761975 -2.001338 1.344784 -5.250199 -0.843844 -0.279059 0.593323 4.572837 3.208297 0.905552 4.587370 0.807913 5.522655 1.543267 2.990715 3.627916 3.343422 -0.538470 1.433330 1.966811 1.475905 -0.044422 -0.581506 3.376208 -0.031215 -0.685943 -3.191502 1.103828 0.705926 -1.367864 0.560604 0.820882 2.765465 2.825502 -1.481927 -0.361024 2.475929 -2.839376 4.397699 3.676441 -0.922566 -1.137740 2.363423 0.300080 2.916488 4.040322 1.615271 0.358564 -2.318305 2.684678 0.789183 2.139550 2.740357 -2.100304 -5.922029 -6.548864 -1.924463 0.281785 -1.846698 -1.792949 1.575181 -3.566351 2.653320 1.168376 2.922650 0.310524 -2.701663 -1.464700 0.597768 -0.971183 0.722350 -0.695294 -0.241946 2.074594 -2.191784 2.187751 0.050915 2.318447 1.151845 -2.381969 -2.340188 2.343545 -0.065092 1.254956 -1.471015 -0.544054 0.826576 1.619047 -2.518185 -2.087369 1.046896 0.538621 -3.035528 0.735386 -0.828638 -0.390449 0.765519 -2.893129 0.621868 3.532818 -2.735566 -1.297282 1.502192 -0.529243 0.805918 1.490095 -0.418254 1.021538 -3.845872 -1.931440 0.001113 2.043991 0.831624 0.619143 2.437793 1.354157 2.881163 -0.597384 2.122695 -2.092270 0.358995 -0.948587 0.932268 0.377953 -2.676579 -0.248811 1.139921 -2.798127 -4.530662 -5.500327 -1.966999 2.988689 0.045018 3.176188 1.578312 0.710900 -0.868984 -2.611926 1.658868 -0.355481 0.738789 -0.695818 -3.591254 0.203303 1.033376 1.228262 -0.426015 0.918754 0.315438 2.336597 2.123330 0.088903 -3.128996 1.865878 0.745832 1.469962 -3.518849 -2.623791 0.694201 -3.008094 2.596466 -1.910435 3.281931 -1.648726 -2.922561 -1.738748 1.338957 3.357748 -0.324079 -3.486278 2.753435 2.245143 -1.253942 -1.568063 -1.828134 0.005953 -2.295199 2.980390 -5.165788 1.779895 1.799235 -2.487046 0.737947 0.521121 0.928796 -4.831750 3.958640 0.680745 0.299711 0.110506 -0.884323 -1.748549 -1.834133 1.963833 -2.354870 4.167775 2.078192 0.000701 0.104970 -3.026625 0.435705 -0.821557 1.492924 1.872470 1.064552 -2.676555 -2.213252 -1.314735 -3.012853 -1.794057 -4.393067 -1.450993 -2.157756 1.732721 -0.627888 2.736939 -1.059915 0.454062 -1.134331 1.408588 -0.751393 9.348306 3.452402 -3.377369 0.840728 2.682562 6.587623 0.343831 1.514826 0.236206 2.666437 -2.820098 2.154706 -3.119386 -4.523119 1.089618 2.698580 -3.048403 2.142625 -2.160027 -4.256472 -1.013707 5.764956 0.557798 -1.621216 1.567984 -2.382273 -3.398903 -1.773500 -0.161084 -0.177570 -1.268510 -0.780602 -0.452798 3.962399 0.806651 0.390233 1.450754 1.822064 0.992009 -2.634685 0.860722 -0.568415 2.909395 -0.537731 4.163402 2.423316 -0.691397 -0.014974 -0.871731 -0.405599 -1.056476 0.546436 -3.906588 -6.295300 2.186550 -2.403920 -5.817819 -1.831955 -0.343140 0.625165 -4.144773 1.816108 0.792519 -3.185434 2.593892 3.216593 -1.884721 -0.808998 3.689707 1.725343 -1.216069 1.539803 -3.621063 -4.149808 4.285429 -0.355142 4.021811 0.280573 3.185829 -4.417441 4.052559 -6.425928 1.709667 -3.187903 -2.204006 0.087671 1.963411 -0.292905 3.271898 0.549316 -0.736823 0.815397 -5.112315 -1.808008 -0.995647 -1.024529 -3.874051 -1.225176 -5.247801 0.088023 -3.621197 2.933816 -4.104541 0.619252 -0.903578 0.031428 -1.351073 3.227883 -0.797939 -1.729236 -1.121718 1.196778 1.371197 -2.852746 4.747406 3.591560 0.559640 0.496080 1.288151 1.789199 -3.407461 -5.281757 -0.650688 -2.895614 -0.901549 -3.996766 -1.417309 -3.096622 -1.108047 0.079214 -2.613490 0.400602 -4.444343 3.576349 -5.987947 4.791807 2.460162 9.397197 7.498696 -5.666781 -1.504243 -3.894391 -1.812286 2.063487 -1.691094 -5.169695 5.033599 5.509626 0.582684 1.738314 -1.047815 -0.387113 -1.354393 -2.182940 -3.405082 -1.956656 4.112163 4.091819 0.019404 4.822879 0.645116 -7.113791 7.291102 8.951876 -1.809299 1.090574 1.203726 4.141244 2.398645 -4.044740 -1.484306 -3.657379 4.356845 4.442798 3.612002 3.957836 2.960931 3.247899 -2.097736 4.704174 1.844637 -4.064365 1.893748 2.473735 1.514131 -3.940260 6.050557 0.475251 1.746538 1.686684 -0.719929 0.184018 1.724540 0.039123 -2.604469 1.261186 -0.063040 0.235107 -0.519866 -4.289214 -7.449177 -1.766736 -1.370882 0.066822 -2.039281 -0.942539 -0.423129 1.771225 1.848508 -2.244453 0.029951 1.134526 3.624410 7.424884 -2.269581 -0.623110 -4.234265 -5.977060 1.841770 1.573899 0.690526 -2.275661 10.938298 1.690243 5.476473 1.660633 1.251005 -3.250474 -3.745086 1.060202 -1.548371 1.300237 -2.072513 -1.006137 5.155884 -3.750026 1.306934 1.209172 2.608840 0.741575 -2.629993 4.220567 0.390193 1.227573 1.261995 -0.245555 1.275560 3.161784 2.921901 -1.129987 -1.244354 0.743047 2.636474 -0.566411 5.568306 0.333436 -1.556518 4.100051 0.233431 1.480649 -0.669759 0.950660 -3.326578 1.629817 -3.249921 -1.640125 1.560396 -1.230674 -2.676917 2.121942 0.030673 1.275152 -5.541909 -4.167314 -3.424351 0.866723 -0.836561 -1.556504 -0.762307 -0.476346 -4.912858 4.625717 1.194062 -1.637857 1.542282 -0.445117 2.856249 -0.559998 0.555661 -0.576223 -0.456365 -2.538439 -1.566817 -0.021215 -2.373793 1.787606 -1.258288 -0.871085 2.791984 2.379014 -1.908963 0.165503 -2.236797 -2.556733 -2.785506 0.212775 -3.362860 -2.085664 -7.957460 3.737941 0.529621 -1.299524 -0.621822 1.625204 2.723814 0.256493 -0.130401 1.079856 -7.257361 2.066935 0.805541 1.034082 -0.307667 -2.425060 -1.486512 -3.317494 1.806989 -2.477005 0.499510 1.403436 1.579297 -1.333924 0.218551 -1.216471 2.362757 1.097750 -4.923652 0.538733 2.208574 -1.389905 -0.700655 -1.570070 -1.075885 -0.809395 2.383503 -2.060948 -3.344971 -0.910940 -1.020915 -3.169579 -0.984852 0.172878 -3.441704 -2.205259 2.669193 3.190840 2.792777 -2.676992 -0.404661 -2.671488 -1.068819 0.064031 1.871979 -0.027549 -2.171497 -0.309588 1.651786 3.846286 -2.187533 -1.106832 -1.739447 -3.627499 -1.405561 0.880998 1.340919 0.816110 0.478689 0.274537 -1.094417 4.564573 -3.023313 1.588822 -1.232969 1.227944 2.838414 1.509063 3.286997 1.102637 -1.377370 -1.732768 4.244635 -0.992167 -0.361288 0.124333 -2.090283 -2.275678 1.740593 1.940701 0.186163 0.419799 -0.633444 -1.422320 4.508352 -0.760274 -5.653828 -0.843562 0.284612 -2.358000 -1.491951 2.400970 3.651884 1.097177 -1.285451 3.861837 -3.213445 -2.002020 -2.262177 -0.545370 -1.533374 3.298963 0.930553 2.903758 -3.456124 -0.863307 1.580834 0.510329 1.412914 1.053995 0.891708 -1.483464 -0.917489 4.845170 -5.945783 1.012589 -1.438292 2.107428 1.353066 0.776842 1.990313 -0.838020 2.818309 1.767901 0.016529 -0.741881 -1.357116 0.299023 3.348492 2.054635 -0.557503 -2.031378 -1.042079 0.303526 -0.029946 -4.300118 3.145760 2.988705 -0.403091 -2.072654 3.374504 -2.365660 2.861053 -1.481892 -1.773879 0.229038 1.026955 -4.826262 1.530176 -3.496555 -0.013912 -2.332342 0.615354 -2.906260 3.548503 -0.121935 -2.274642 -1.281541 0.075715 3.032238 1.631914 2.230898 -0.504663 -2.411065 1.661377 -2.586069 -2.785732 -0.660623 1.606528 1.961720 1.184133 2.007566 1.387123 -0.237059 0.923523 0.524591 -2.936166 -6.127533 3.744288 0.828779 1.532916 1.238128 -2.208984 -0.183473 1.759346 3.018974 3.076980 1.172761 2.238299 1.546936 -0.092549 -4.317411 -0.374722 -3.640486 -1.280308 2.389389 -3.901137 2.125098 2.465771 1.467606 -1.103542 -2.665764 0.458057 -3.207413 -2.245544 0.689636 -0.734542 -0.475865 -0.320336 0.836466 -2.842374 -1.918681 1.851293 2.044722 -3.163483 -1.878178 0.900477 -1.929996 1.761383 0.976236 -2.540836 1.696929 1.949932 1.102146 -2.553703 2.820008 -1.567079 -1.072301 0.276079 1.245713 -2.535482 3.886327 2.434478 -1.581262 -4.148042 -0.438228 0.486586 -2.161977 -0.302999 1.049041 -1.524862 1.129683 2.807674 -0.403175 -1.248024 -2.933916 1.253609 -1.693722 -1.212831 -1.861100 -1.221265 4.465307 -4.940820 0.157367 1.131277 1.571317 1.959022 4.652789 4.228576 -0.276272 -0.012806 -4.354074 2.463809 2.389654 1.635832 -1.833740 -2.938629 1.300833 -2.726371 2.480947 -5.977465 0.772889 0.282030 2.275491 1.392921 -0.930549 1.711166 -2.189966 1.712118 5.350641 -1.875498 -1.932573 -4.368739 2.413892 2.194536 -5.091400 -0.744902 -1.509168 -0.179053 1.790415 1.174617 -3.364297 1.263535 -1.622682 -0.154386 -3.552232 3.148441 2.980146 -3.424721 2.323027 -1.787850 -1.330493 -2.204766 0.618053 2.448592 -2.728815 -2.735157 -1.833219 -0.489293 -0.710322 2.739284 5.133747 -3.003792 1.548350 -4.583785 2.192165 0.925236 1.776272 -4.136283 -5.666361 1.381927 2.466216 1.377162 0.159781 -0.576376 2.830303 -1.757818 -1.253676 0.173806 2.258834 2.461400 0.662641 -1.496594 -0.923490 1.365798 -3.706407 -0.277096 1.921209 0.234008 1.248572 0.938721 1.871046 2.280102 0.464668 1.542881 -4.355259 -0.640926 -0.681553 -2.713596 1.393331 6.432141 2.300481 2.959253 3.398193 0.369454 0.216340 0.115851 1.316292 0.941949 0.875228 3.097341 2.342876 -3.589890 3.359487 -4.235230 -2.638657 1.332459 1.100233 1.964601 -0.624964 -0.936101 0.558896 -0.783733 1.648479 4.468254 -1.014407 0.813742 -1.432946 0.309215 1.085274 -1.343413 1.569282 -2.032743 -2.188168 1.716767 -2.101446 3.073538 -1.206013 -0.334517 0.814027 2.822351 -0.242629 -3.287609 2.376184 -0.649497 -2.590210 1.422227 1.151408 4.231847 2.802023 -1.966356 -3.226255 -3.372818 -1.411124 -2.450540 2.676234 -1.275120 1.698837 -1.060320 4.893245 3.151994 -2.044660 -0.141800 1.063284 1.819517 -1.186407 -2.813868 2.685373 -5.837507 5.780484 1.551439 1.567109 0.002055 1.437350 -0.007400 -4.603681 -3.158975 -1.094869 0.233040 0.023956 1.283692 1.159894 3.080122 -0.097611 -2.192206 -0.459943 -0.380077 -1.502549 3.218704 2.403119 0.800536 0.628339 -3.717681 -1.527765 -1.370397 -1.054846 0.282257 -1.836549 -0.019375 2.114781 2.513597 -3.747105 -0.364619 -2.404679 -2.932854 0.855744 -0.534662 1.908043 -0.873258 -1.594474 0.965188 -2.790208 -2.145604 0.486826 2.523194 -2.684266 -0.859574 1.634229 -0.035184 0.762032 -1.742214 1.146375 0.649225 -1.874364 -1.380678 3.336544 0.148988 -2.193497 -1.550440 -0.964175 1.289625 -1.632483 -1.083846 1.504143 -3.318817 0.763422 1.412155 1.044526 0.629224 -0.604175 -0.296409 -0.416802 -1.574381 2.058016 1.414711 -1.097646 -1.844190 -1.250684 2.243298 -0.903742 1.555263 -0.951532 -0.466835 -3.808854 3.705405 0.239404 -0.873884 1.585420 2.469178 -0.479746 0.544207 2.666591 -0.184226 -0.221785 -2.305092 -0.392441 0.598242 -1.830604 -0.134138 1.086918 3.069630 -0.078101 -2.122520 -0.315794 -0.303455 -1.539240 -2.335760 1.747691 -4.186248 -0.862270 4.627814 -0.959861 1.388118 0.978378 -0.060195 -1.489440 -2.377989 2.699541 -5.954129 -2.035515 -0.552742 1.805410 3.060949 2.217615 -0.193290 -1.221321 0.017249 1.811262 -2.287616 -0.481592 0.858552 -0.465282 -0.590213 2.806692 0.976904 -1.534958 -1.112950 2.512587 0.458987 2.357404 -1.429299 -2.914585 0.994598 0.473345 1.267406 -0.168312 1.341661 -2.258739 0.420232 -0.974062 2.544756 -0.450015 4.256121 -3.386055 -4.481358 -1.264043 2.192909 -0.974406 -1.739472 0.318585 0.357490 -0.136276 -0.310289 -0.093231 -4.424769 -2.224517 -0.721491 -0.714901 0.356329 0.381039 -2.850746 1.075039 2.698286 -0.422366 5.013588 -1.610872 -2.085871 0.316898 -3.151460 1.720223 -5.440973 -1.460157 -4.515252 3.176103 -2.480609 1.573368 2.243047 -3.601222 -0.816719 0.239341 1.117203 -0.729449 0.672186 -0.429149 2.796860 -1.554934 -1.169777 2.283252 4.928037 1.191077 -0.152655 -1.999363 -2.555171 0.868368 0.341274 -1.860899 2.101075 2.894511 -3.383120 0.560787 1.575118 0.066641 -2.513427 0.599305 -0.538369 1.561794 -5.562829 2.689672 0.761766 4.925269 2.260373 -1.102847 -2.851893 -3.365352 3.709311 -0.941770 -1.633845 1.328607 -2.957564 -2.503440 1.016725 -4.584194 4.114023 -0.310820 -2.027378 0.382246 2.612958 -2.620053 -0.172242 0.085176 -3.088802 1.628079 3.397899 1.549942 -2.298104 2.942447 1.141431 2.641338 5.006186 -1.266486 -4.087724 1.304469 -0.103350 -1.615080 0.988592 2.522972 -1.316930 -1.117604 0.450822 -3.985020 1.137688 -3.459959 2.076439 3.492126 2.919323 1.014822 -4.441620 1.246075 0.494886 2.329688 -2.774226 0.758556 1.835031 -2.063624 0.403465 -0.660897 -5.699585 3.174379 0.171247 2.395063 2.602852 3.669095 -1.694067 -4.672598 -1.221553 1.037767 0.411838 -0.718106 -4.332673 -0.784913 1.242490 -1.562812 -0.176615 -2.019893 4.162001 -3.904082 -2.850644 4.299675 -1.173668 -1.160502 0.165104 2.726302 -0.635339 0.413584 1.578058 1.164169 -3.760235 -1.668645 -0.190854 1.833324 0.000836 -1.900705 2.129124 -0.801360 2.470635 -0.587407 -0.133553 -3.447618 3.968606 3.749423 -3.767403 -2.555198 3.791634 2.576323 0.297106 -0.566260 1.315476 1.847706 -0.087695 -1.068169 0.541323 -0.602839 -3.790770 3.751586 -2.637607 -0.667677 2.665727 0.125642 -3.272791 -1.421610 1.424033 2.958468 0.879332 -0.033788 2.458859 -1.560673 1.925832 -3.106544 -1.982850 -0.500108 -0.298828 0.793269 -2.702181 0.555683 -4.077026 2.432966 -0.756914 -1.472946 2.119681 0.593234 -1.809149 -0.504935 0.865552 2.618614 -0.542801 -1.266398 1.371655 -4.592791 -1.410909 3.108100 -2.008171 0.553382 -6.034434 -2.987205 -0.666160 3.618514 0.215400 2.540996 -0.027345 -0.082308 1.609809 -4.521496 -1.198082 1.190134 -1.326601 0.932869 -2.508167 -1.642714 -1.566412 -1.308607 3.186699 1.095143 -1.297180 1.252752 -1.290508 -2.373495 -3.168294 3.218053 5.395976 -1.690664 -0.968832 0.672575 1.310019 -0.850848 2.731584 -0.934648 -0.689862 1.615207 0.069425 -1.211683 -1.913506 -0.061559 -2.409722 0.309148 -1.885227 -0.195897 0.898278 0.670362 2.604252 -0.285109 0.997170 -1.518786 -0.052643 5.271636 -1.691056 1.059228 -1.143439 0.412904 2.097153 -0.695841 3.032004 -2.042331 -2.376802 -0.690013 -1.584476 1.953766 0.335177 -4.865276 2.052964 -0.594316 2.532466 -0.555385 -1.051773 1.577309 -0.124601 -0.223617 1.958392 2.753694 -1.339039 3.430652 -3.819813 0.404210 -4.152318 2.501638 2.835336 0.939623 -0.129473 -4.160196 3.642171 -1.037730 0.153321 3.573781 -1.392645 0.031361 0.010610 2.364925 -1.849844 -2.339719 -0.228928 1.931222 3.399008 0.239361 1.662502 -0.747820 -2.797186 1.113441 2.951802 -0.073050 3.306132 -0.399721 -0.261120 -0.295802 -0.183792 -0.126709 6.415991 1.675386 -0.983392 6.245922 1.461698 -0.321352 -5.634859 -1.292357 -3.137260 -1.550658 -3.003930 4.599127 1.457896 3.052105 -1.833176 -1.219605 2.474559 -0.765421 -4.888263 -0.157427 -0.812710 1.287769 0.775848 1.914450 -2.782443 3.289692 0.326413 1.001677 -0.268513 0.990486 0.872505 -4.016428 -1.623550 -2.254537 2.673386 -2.590684 2.562062 3.223548 3.321868 2.355001 -3.760795 0.807959 0.415967 -2.033635 -3.759063 -3.525291 2.050135 0.098816 4.338756 3.362719 1.534882 4.400262 -1.197420 1.280488 7.416517 3.347199 0.215747 2.668512 2.557909 2.785402 1.974168 -1.286236 0.531198 -0.438659 3.187565 2.493479 3.276864 0.650499 3.023563 3.626863 -0.487620 1.024524 1.182254 -0.877991 -1.616919 3.625573 -0.147749 1.157186 0.166412 0.657393 0.661361 -0.435669 -2.064270 -5.629816 -4.855248 -1.164928 -2.922503 -2.036237 -4.490725 -2.963408 -1.127987 1.173108 1.868098 2.390596 -1.437753 -4.392970 -3.349696 3.872056 -2.941411 1.953344 -0.532429 -0.306508 -0.535697 2.568104 -3.526454 0.333676 0.357846 -3.144376 3.966662 2.860177 1.025494 0.467393 2.675852 -0.232675 1.583068 -0.913539 -2.797959 -0.986749 -5.093487 -1.579870 -2.283901 -1.619709 -1.206936 -0.959527 0.418465 3.319059 1.242291 -2.524921 0.241040 0.101997 -1.326654 -1.219288 3.559132 1.550322 -2.376158 -0.700457 -0.446811 0.547329 -4.225977 2.432312 -2.482241 -3.059394 0.838078 2.874551 -1.284776 -3.415327 2.037268 -2.968808 0.677170 0.378170 2.614785 0.633935 1.445752 1.053489 0.616059 -2.963636 -0.059277 -2.242824 -2.810045 -3.250317 -1.227642 0.132149 -3.376921 1.844337 -1.983475 1.666909 0.899036 2.766671 -0.327577 -1.519982 -0.049789 0.801388 -5.069842 -1.644278 2.084753 1.398977 4.003713 -0.349899 1.021984 0.496866 0.180146 1.055648 0.696477 -1.539284 1.035158 0.759384 3.802320 1.604993 0.242068 1.384381 -0.021347 -1.161700 -1.994693 2.028494 -0.645784 0.641051 -2.644591 -0.580283 -0.498863 -2.622439 -2.974748 -0.990790 3.722994 -1.867182 0.863084 0.777182 -2.625861 1.008509 -0.445661 0.880817 -0.714463 -0.309147 1.951131 -5.294465 1.595432 4.314653 -3.350264 -2.678001 0.482486 -0.564961 -0.028103 2.175328 -1.318977 1.078459 0.683969 -1.660084 1.818926 -1.940331 0.846459 -2.870618 -0.854608 1.405484 2.008151 -0.754507 -2.719043 1.500601 -0.221857 -1.561666 -0.105609 1.251577 0.809191 -0.737012 -0.411167 1.885912 0.114399 -2.215557 0.608474 -1.664377 0.816030 1.464686 -2.042957 1.782114 -0.953700 0.469828 -2.153496 0.715482 0.501052 -1.980528 -0.329542 -0.253743 0.911416 1.477587 1.152580 0.907919 -1.579217 -1.158929 0.117812 1.075012 0.687765 -4.885779 -2.313074 0.409583 0.075502 0.811191 1.854085 -1.566599 -1.388234 -0.088538 3.134402 0.912765 -0.400844 2.169667 -0.553588 -0.634699 1.506238 -0.858016 0.393235 0.252896 -2.823826 4.332749 -0.126500 1.128931 -0.350959 -3.146646 -1.277581 -2.367666 1.712274 2.165039 0.732644 0.754296 -2.641227 1.344562 1.782494 2.364063 -2.552822 -0.508209 -1.229070 -2.280486 -2.959265 1.166757 4.368944 1.971067 2.678482 -2.090575 1.878954 -1.142826 0.117601 1.183623 -2.150806 0.830880 0.503847 2.784339 -2.480690 -2.733863 -0.688622 1.560772 -3.435673 -1.474622 0.422284 -0.723138 0.182263 0.120404 -2.863363 -0.187413 -1.312448 0.077939 3.032600 -1.998376 1.899576 -3.095301 1.063708 2.558553 -2.536064 -2.910064 -3.310712 -0.064500 1.479054 -0.219122 -2.047260 1.867106 -1.895651 -1.853754 -0.614600 1.823027 -4.232712 4.142143 1.134185 -1.468474 0.735925 1.760983 1.414760 1.394893 -5.179871 -0.451393 0.497526 0.108425 0.858778 1.844740 -1.368387 -2.492601 2.416473 0.622951 -3.162277 -0.248905 -1.925945 0.559621 2.010199 -1.646807 2.143840 2.588596 -2.297735 2.249453 -1.613670 0.081480 0.690906 2.734398 1.200507 -0.560418 0.001718 1.075145 -1.561947 -1.423477 -1.972114 0.816532 0.486695 -1.976966 -2.398075 0.447928 1.420927 -0.455723 3.947788 0.013290 -4.293427 -2.381022 -0.630222 0.411418 3.930247 2.219329 1.019965 -2.525529 -1.836960 -2.645805 1.813705 0.235771 3.479119 -0.332766 3.142617 2.508157 -0.630787 -0.377772 -2.531645 -1.519231 2.880444 3.309573 -0.636941 1.814580 -0.243538 -2.322344 -0.007853 -2.100780 -0.218380 -0.346572 0.037977 -0.878298 2.426258 1.023193 -0.490590 1.889470 -2.748430 -2.070630 0.399987 -1.749112 4.035089 0.813124 -1.219641 -0.834440 0.421201 -2.841429 3.705967 -4.386619 0.955092 -2.301505 0.166195 1.482943 1.523196 4.006718 -1.685338 1.202176 -0.167001 0.785427 -0.625269 -1.707991 2.447623 -2.626090 -2.046040 3.971202 -0.142074 -0.278829 0.810473 -3.228206 -3.673680 1.155588 1.109600 -1.636632 0.860991 0.133159 -1.042896 6.353884 -1.679907 0.885659 -0.330075 2.122087 -2.775122 -0.625004 -0.787835 5.698094 0.023284 -0.278919 0.521115 2.526540 0.889447 -2.129675 -1.010791 1.624535 2.331142 -2.845485 -0.840611 2.054766 1.533353 -1.312229 1.231983 -0.578927 4.889347 2.550734 -0.247062 0.305660 -2.934337 2.453467 -0.701750 2.797733 -0.679658 2.852076 -0.451503 1.426778 0.520303 3.408608 0.985359 0.503912 -2.199116 -0.624747 -2.293973 -3.149434 0.136174 -3.150418 1.117399 -0.246764 2.092592 -2.627191 3.213140 2.920923 0.634797 0.728056 2.655648 1.501126 -1.548117 -2.076202 -1.319097 2.323994 -6.090674 -1.340526 4.884641 2.579598 -2.540552 1.151284 -0.276915 2.566904 0.426579 0.402067 -1.306115 -0.172701 -0.883118 -1.052462 0.428224 3.609850 1.890656 -1.941585 -3.414733 -3.554724 0.461695 1.002718 1.770246 -2.708445 -1.815161 1.040932 -2.891191 1.826889 2.381785 -2.223500 -3.952618 0.178000 0.453293 -2.617484 1.062836 1.321751 -1.134769 -3.466946 -0.411050 2.030378 2.042234 -0.765884 -2.549554 2.743990 -2.450415 1.967748 3.702707 -0.322618 0.972127 -0.535146 -2.077287 1.193830 -1.361477 -0.864277 0.347156 1.551985 -1.964737 -1.859913 -1.045810 0.222365 4.305062 3.115579 0.416895 -0.664567 -1.343761 0.024574 -0.386443 -4.698704 0.948714 0.985653 -0.470759 0.560191 -2.707007 2.601851 -0.563087 0.512140 1.603215 2.241806 0.875960 1.376314 -1.861899 3.927095 -0.190303 -3.626520 2.963122 3.491935 -0.509210 -0.820111 1.163021 -2.095066 1.154941 -0.021142 3.481944 -1.619328 3.097966 1.817507 1.044974 2.172538 -0.572334 2.233889 1.562282 -0.721067 -0.386285 1.020192 3.299629 3.542832 -1.442963 3.699651 2.135856 -0.549562 1.898703 0.689444 2.129465 -1.728227 -3.086724 0.346541 -1.836566 1.992840 -3.815496 1.804096 -2.543547 1.157584 0.100945 0.969418 -0.975085 1.219212 -1.851815 -1.688686 0.052493 0.013857 -4.274045 -1.204095 -1.591822 -1.425267 -1.294402 3.376948 -1.601863 2.758359 1.277007 -3.510548 1.605216 4.471681 1.218879 2.666087 -1.791250 -0.988388 2.349192 1.647921 4.525110 -0.794485 -5.527663 -3.891538 -1.836059 -0.591152 2.402944 0.063429 -2.833237 -3.097289 -2.348894 1.144080 -0.653622 -1.615034 2.313653 -1.387408 -0.279135 -0.371512 -0.296057 -0.352101 -0.512085 0.855222 -0.590901 -1.636550 5.282158 -4.705570 1.545044 2.578989 2.873448 4.320608 -3.419952 1.299888 -1.261768 -0.149240 0.953907 -1.458561 -0.664189 -0.564154 1.886677 1.323323 -4.504011 1.175979 3.245055 0.017953 -0.133930 -0.887345 0.752452 -0.842453 0.288012 -1.751981 1.907399 1.608184 -0.045637 -2.071704 0.644662 -0.420213 -2.911688 3.279916 -1.670121 -2.529432 2.507325 -1.252197 3.167754 -2.082149 0.768419 -0.343689 -3.896436 -1.743723 1.699478 -0.788529 -3.176682 -1.106461 2.620248 1.606407 -1.372774 -0.829452 -0.455513 -1.698499 -3.871086 2.447365 0.833236 -2.989075 2.134162 1.793876 -3.240221 2.535323 2.189380 1.526797 -0.222947 -1.105506 -0.571526 1.310162 -4.516305 0.788346 -1.304635 0.989368 -3.631743 0.283477 1.731919 0.740883 -1.560235 -3.441557 -4.535762 0.484976 2.285962 3.566706 -0.454242 0.933547 -1.235149 0.779419 -1.808427 -3.832953 0.603653 3.622792 -2.894140 0.853897 -1.047646 0.096277 -0.241132 2.856815 0.214075 -1.211068 1.567024 0.002652 -0.212932 -1.347717 0.218852 -0.906722 -1.996627 -1.432237 -1.132783 -4.230129 3.152304 0.223307 2.003704 0.552215 0.378496 -2.864888 -2.626901 -4.093906 -0.216867 1.912233 1.147646 2.081591 0.546807 -0.656845 -0.747878 -4.067852 -1.054976 0.175891 0.969708 -0.412361 -1.412029 2.362121 0.389669 -1.123787 -1.922445 4.023484 -0.367801 -1.806054 2.262594 -2.672496 -0.074053 0.887185 -1.513400 -0.122376 -2.323330 2.676362 -0.396357 -0.510232 2.033893 3.620999 2.687542 2.992416 4.830817 0.463184 -2.843528 -1.845836 0.882704 -0.673017 -0.540962 -0.985829 -2.650280 1.294345 8.506862 3.029158 0.255477 2.142646 -0.248606 -2.732029 0.031664 3.653763 -1.570121 4.461610 -1.424121 0.054582 0.259404 2.336731 -1.324489 -2.097268 2.286365 -0.491297 1.698816 1.551192 5.804105 1.284450 -0.039371 -6.049991 -4.518344 -3.441810 0.279548 -3.044649 -1.077250 1.823573 -2.103743 1.381847 1.005360 0.649463 -2.936544 0.998724 0.807808 -0.940931 1.455371 1.231006 0.863318 0.528094 1.555461 1.169753 1.882136 0.434029 -2.858320 -3.163843 0.866873 -0.638348 -0.658550 0.879453 1.952980 4.615616 0.158073 -0.813887 0.701337 -1.731850 -1.562905 -1.119166 -3.963122 -0.855798 0.440570 3.445116 1.452805 3.472191 -3.664414 1.479876 -2.222936 0.122792 1.216363 -2.209343 -2.615429 2.409726 -0.449061 -1.810603 -0.040252 -0.908213 0.043108 -0.108237 -3.295042 0.709741 2.690051 2.872731 -4.432204 1.315171 -1.066011 2.932531 0.971494 -3.335785 -0.166477 -1.161643 -1.324451 3.103618 -1.705739 -3.558508 2.873855 1.128815 2.372880 -0.176329 -2.986398 -3.529310 0.363755 -2.250221 3.436020 -2.413610 -1.828087 0.744917 1.527778 0.578050 -3.807272 -1.627915 -2.431526 3.033113 -2.265674 -0.658370 3.049786 0.119230 -1.658872 1.066702 1.990766 1.102526 -1.362275 -1.920404 0.656954 2.430745 -0.519634 -0.270071 -0.937530 0.237581 -0.122035 -5.607923 1.097556 1.098004 3.653436 -0.465361 1.133961 2.032979 -1.891457 0.306773 0.613665 -0.711552 -1.752611 -1.068958 0.215907 -1.064079 1.283875 1.207391 -2.366727 0.227841 -2.860752 0.654674 1.560810 -1.991326 0.453325 1.890008 0.084443 1.961451 -2.478873 3.366010 0.621412 -0.841931 0.439641 -0.223209 1.610469 1.414204 1.197902 1.062261 -1.103045 -3.095469 -3.422694 3.891941 -1.319096 -1.264067 2.873199 0.378074 0.672245 1.976983 1.705648 1.154947 3.320378 -1.583159 -0.242980 0.145225 0.156449 2.154208 -1.114329 0.255151 -0.564847 2.847759 -1.105588 1.471324 -3.992694 3.475615 0.599887 0.409662 1.455280 -0.316783 2.576551 -3.134057 -0.373231 -0.031034 2.274910 2.654900 0.360853 1.439202 0.349224 -3.138696 -0.394337 3.373875 0.433110 -0.836276 -2.258938 -0.568729 -3.951702 -1.052328 1.566471 3.556792 0.429966 -2.708831 2.291170 -1.419684 0.447473 -1.622701 -0.963613 -3.173742 0.884186 1.666324 -0.926872 2.390192 -3.142722 1.400983 -2.074829 -1.809779 1.617692 1.721170 -3.553854 -0.519337 -3.379736 -1.007820 -3.166666 -1.348181 2.025090 2.823652 2.838687 1.253188 5.278474 4.039380 -2.573344 -1.066341 2.998056 -2.264449 2.192017 -2.901891 2.099100 -0.512515 0.871979 -0.646605 -1.075348 2.181931 -1.253006 3.106034 -1.583254 -1.210580 3.299772 -1.312747 1.581238 -1.418922 -5.377893 0.827734 2.295284 0.171829 -3.057824 1.455506 -1.170242 0.784403 1.676716 2.799886 -1.315787 1.313334 1.088639 -1.456578 0.806918 2.270811 0.549974 -0.693251 -0.166474 2.057374 -0.619226 1.696885 -2.660104 0.104434 -0.986693 -0.626122 -0.719186 4.281658 -4.328881 -2.499274 0.588532 2.664297 -0.838263 4.340276 -0.651417 -3.009989 -0.341465 3.374134 -0.044202 5.642793 3.982415 -0.255938 0.699068 1.131631 -0.614515 2.928390 1.839068 -0.670946 0.823835 0.023844 -4.569645 -3.449997 -3.315342 -0.610392 -3.725667 -1.636872 -1.179233 -0.986661 -0.168305 -2.148326 0.135129 -3.201935 1.475401 -2.258679 3.451772 3.630601 -1.446020 1.559848 -6.901666 0.201618 -1.923250 -1.607419 2.637759 2.982015 1.489846 -0.818610 -0.625945 -3.025573 -3.672355 -3.028052 0.966750 1.711323 1.326060 -1.092788 -0.850251 1.187529 -2.601440 -1.298525 -2.908983 0.827628 2.515294 -0.085826 0.749349 1.011880 -0.701121 -1.995541 -3.578863 -4.105472 -0.107131 2.052475 -0.738297 1.668026 -0.595397 0.102385 -2.399737 -1.884803 -6.131677 0.561673 1.406702 -1.312830 -0.190212 -0.644629 3.093046 -0.034096 -0.105608 -1.222649 -1.955085 -2.166561 -1.666354 -2.596411 2.196416 -0.368274 0.409983 3.608965 -0.276521 -3.185094 1.056804 0.824876 2.103719 -1.262283 -6.250308 0.161025 0.281682 0.466625 3.829060 -0.520697 -4.514731 -0.180927 1.995696 2.950989 -2.784299 1.407377 4.452316 5.307794 0.519307 0.086897 2.379631 -2.614935 -2.586359 1.882758 0.722517 1.179032 0.568986 -1.594964 2.764319 -3.945428 3.958355 0.573173 -0.730805 0.147171 2.282080 1.933772 0.849213 -2.338147 -1.861196 1.860297 0.243513 2.259957 -6.268922 1.344297 0.164133 -1.343468 1.800432 0.619543 -1.642450 -2.186924 -2.688389 0.542585 1.776588 -3.076675 -1.457768 -0.773082 2.012843 0.206591 1.550892 1.206263 -3.383942 -2.211320 -0.408604 -0.683309 2.443595 1.443400 0.880148 0.658503 -1.592841 8.039192 -1.827632 1.269595 -2.735771 1.381321 -0.055842 -1.225978 -0.387381 1.572161 -4.571466 0.406266 3.123680 0.027548 -0.379973 -1.568790 -0.702095 0.267578 -5.093784 -0.078197 -1.672606 3.579875 1.660423 0.693322 -2.155893 4.113269 0.637821 1.350781 -0.805563 0.813641 0.148090 -1.828242 -1.702613 3.407833 -2.727948 -2.630643 -1.530124 3.161453 -1.379144 -0.844742 0.642139 0.617862 -2.412663 0.523438 -0.530428 -0.751190 1.533301 -0.627243 4.490651 -1.434521 -0.368559 3.030434 1.800463 0.492569 -1.978106 0.601410 0.356465 -1.865068 -2.679876 2.799869 0.003283 -2.510663 3.804770 -0.735118 -0.447090 3.452973 1.107783 1.088681 -0.445612 -0.371977 -1.592098 1.214515 0.991617 -3.346095 