2.307990 2.307990 2.307990 2.307990 2.307990 2.307990 1.382916 1.372530 1.283675 1.386362 1.630475 1.997221 2.000097 2.054546 2.370801 2.378944 2.409847 2.414865 2.414059 2.397619 2.407946 2.495556 2.572570 2.571710 2.602455 2.615447 2.610811 2.609652 2.600514 2.592694 2.574762 2.570596 2.559067 2.558230 2.583352 2.564283 2.591123 2.581127 2.583734 2.571695 2.579050 2.601776 2.622552 2.632328 2.633861 2.640307 2.650392 2.653089 2.647913 2.653127 2.656395 2.646385 2.645807 2.633810 2.642101 2.638444 2.626774 2.612180 2.615762 2.620144 2.617045 2.606147 2.611093 2.621067 2.626339 2.627813 2.619231 2.642559 2.630150 2.632355 2.632008 2.624723 2.626912 2.614868 2.608329 2.591476 2.583065 2.598169 2.589363 2.598304 2.594074 2.595768 2.581424 2.582819 2.581969 2.588786 2.590693 2.581631 2.573540 2.566726 2.562269 2.564814 2.565919 2.566267 2.558894 2.549498 2.543766 2.552788 2.542353 2.529138 2.512532 2.499617 2.512688 2.509088 2.514023 2.503382 2.505503 2.494654 2.494675 2.506479 2.503339 2.498349 2.488842 2.501789 2.491398 2.503278 2.498257 2.486557 2.487815 2.482283 2.466784 2.461814 2.460529 2.446222 2.454518 2.442562 2.432237 2.431566 2.425166 2.420232 2.416358 2.415266 2.416164 2.406369 2.408646 2.403753 2.397658 2.386689 2.382082 2.386168 2.379320 2.382415 2.392825 2.389050 2.385037 2.373303 2.364408 2.381174 2.392230 2.381717 2.378563 2.368509 2.360025 2.360939 2.357420 2.365686 2.365350 2.361878 2.355332 2.346194 2.345784 2.353617 2.358751 2.368642 2.365147 2.369227 2.369982 2.366628 2.364395 2.355430 2.354722 2.353464 2.343338 2.335865 2.341517 2.337503 2.350213 2.351494 2.362058 2.362970 2.359520 2.350507 2.352535 2.362114 2.361380 2.357857 2.348305 2.350713 2.350786 2.340017 2.329969 2.325626 2.324367 2.322931 2.312239 2.330467 2.330265 2.318067 2.312866 2.321708 2.321989 2.310120 2.313077 2.304313 2.302854 2.306525 2.311513 2.320681 2.317397 2.315371 2.311892 2.309850 2.320497 2.319679 2.311113 2.304992 2.299275 2.301580 2.306186 2.312608 2.309462 2.302197 2.298409 2.303019 2.302673 2.311952 2.320047 2.322487 2.323244 2.320230 2.313189 2.316081 2.320926 2.319428 2.314721 2.309885 2.300590 2.291389 2.286253 2.291052 2.292248 2.283861 2.298807 2.297128 2.289121 2.282470 2.282630 2.284942 2.278294 2.280091 2.282089 2.280766 2.286543 2.307812 2.307785 2.295422 2.298878 2.304068 2.301090 2.306145 2.298685 2.306376 2.298320 2.300918 2.294074 2.293184 2.291469 2.279803 2.275215 2.276165 2.266553 2.268962 2.271037 2.274140 2.274235 2.272757 2.266755 2.258601 2.252997 2.242879 2.236727 2.245643 2.238178 2.237196 2.232445 2.245229 2.238602 2.240309 2.239512 2.230629 2.233992 2.225714 2.225443 2.234988 2.246158 2.251530 2.252735 2.248740 2.238652 2.236401 2.227078 2.219396 2.208975 2.202326 2.210212 2.210340 2.214673 2.210384 2.204262 2.194236 2.187878 2.182120 2.181417 2.171710 2.159467 2.153741 2.167639 2.165853 2.153061 2.144215 2.146755 2.146788 2.135243 2.142597 2.141781 2.136518 2.139120 2.143994 2.143606 2.138933 2.143330 2.132228 2.134428 2.139225 2.129834 2.126358 2.120177 2.110625 2.108069 2.100261 2.102984 2.098227 2.109503 2.108419 2.118254 2.117448 2.112450 2.125018 2.128237 2.129491 2.122743 2.114504 2.102454 2.096885 2.087155 2.093414 2.100400 2.108161 2.128931 2.138126 2.135791 2.134252 2.130616 2.122594 2.117341 2.117932 2.114629 2.103640 2.113955 2.115741 2.129307 2.127988 2.121467 2.119137 2.117573 2.114144 2.119209 2.121320 2.117724 2.106770 2.094665 2.090459 2.097615 2.091880 2.089140 2.087590 2.083196 2.084570 2.083023 2.093194 2.087148 2.082629 2.090924 2.088364 2.081940 2.068344 2.070357 2.068778 2.073357 2.075267 2.071439 2.069373 2.056941 2.071373 2.079252 2.076770 2.076317 2.086883 2.077515 2.068682 2.071645 2.066109 2.055099 2.057033 2.056152 2.072950 2.075274 2.073307 2.063414 2.068672 2.064749 2.056189 2.045799 2.045342 2.058099 2.049350 2.044144 2.032622 2.025169 2.028098 2.029881 2.046803 2.035179 2.032240 2.038090 2.041324 2.037292 2.051298 2.046831 2.044113 2.031189 2.033956 2.030548 2.024517 2.021661 2.025420 2.025675 2.027067 2.026554 2.030746 2.034725 2.027104 2.039809 2.043091 2.037226 2.038134 2.034684 2.027760 2.015119 2.022107 2.027048 2.021023 2.026314 2.023282 2.028362 2.026498 2.035825 2.041990 2.037962 2.037768 2.041675 2.049388 2.043575 2.042155 2.041913 2.044725 2.048765 2.054276 2.052390 2.043849 2.042727 2.043882 2.046080 2.047722 2.058871 2.050442 2.043492 2.048537 2.046184 2.041044 2.028557 2.023207 2.014808 2.008329 1.997531 1.989619 1.992590 1.984888 1.981986 1.978440 1.985639 1.992402 2.002950 2.009164 2.002986 2.002110 2.002003 2.014423 2.025431 2.017376 2.010577 2.005032 1.995234 2.001697 1.998796 2.004274 1.994956 1.992711 1.998160 2.004072 1.998566 1.998628 2.013932 2.017599 2.019191 2.015040 2.013639 2.026782 2.033926 2.042183 2.047775 2.048270 2.045619 2.038452 2.042310 2.039067 2.030444 2.038546 2.029246 2.024598 2.024134 2.014080 2.009510 2.008108 2.003766 1.999776 2.001307 1.998394 1.994052 1.995905 2.000436 2.011583 2.010995 2.009275 2.010485 2.004391 2.005445 2.008662 2.009470 2.014864 2.011016 2.006128 2.000328 1.994637 1.998046 1.993582 2.015225 2.015653 2.010629 2.012131 2.005381 2.006346 2.012547 2.018325 2.017673 2.024833 2.014127 2.004279 2.000540 1.992599 2.001705 1.996033 1.998325 2.012132 2.014368 2.019004 2.019044 2.016682 2.018948 2.014417 2.007610 2.005044 2.003612 1.999312 1.999471 2.002337 1.998071 2.011980 2.007855 2.004361 2.007257 2.003929 1.996917 1.986819 1.976640 1.967648 1.967454 1.967159 1.967525 1.971890 1.978641 1.990297 1.985443 1.994968 1.995901 1.988598 2.003290 2.015362 2.028072 2.034727 2.037394 2.052267 2.052942 2.054041 2.065912 2.070367 2.078172 2.077715 2.071198 2.076957 2.070102 2.081262 2.072316 2.075041 2.068934 2.064308 2.053445 2.044775 2.048794 2.043573 2.060123 2.057148 2.047636 2.057575 2.057238 2.061202 2.055506 2.049496 2.044532 2.041789 2.043989 2.046582 2.032181 2.036784 2.035558 2.025811 2.032952 2.041242 2.044992 2.055513 2.046839 2.043487 2.039238 2.032591 2.026813 2.027502 2.021743 2.026304 2.023700 2.029260 2.029297 2.026921 2.031238 2.031014 2.045921 2.044306 2.039152 2.037495 2.033247 2.026382 2.016697 2.014028 2.005608 2.007621 2.006878 2.022244 2.019984 2.016522 2.021655 2.019157 2.010481 2.001472 2.000018 2.007297 2.014222 2.011052 2.019789 2.014602 2.022658 2.022233 2.029112 2.018878 2.011112 2.017884 2.013351 2.011474 2.013078 2.017491 2.013973 2.011958 2.006401 1.997724 1.992196 1.984442 2.000114 1.991729 1.993915 1.992486 2.012856 2.014389 2.008839 2.001855 2.009957 2.022657 2.013569 2.014335 2.008420 2.019684 2.016992 2.011188 2.021314 2.028541 2.033266 2.032725 2.046544 2.055297 2.060924 2.058565 2.084998 2.086842 2.096626 2.092629 2.090313 2.094762 2.084507 2.093528 2.095766 2.098100 2.097305 2.117722 2.117149 2.129031 2.139223 2.132495 2.131609 2.118966 2.116659 2.112606 2.114727 2.122093 2.126916 2.122779 2.117766 2.115951 2.114385 2.119004 2.110949 2.103210 2.102727 2.106647 2.105806 2.097462 2.107438 2.103398 2.104272 2.104631 2.110117 2.116788 2.109892 2.127789 2.129841 2.134453 2.130292 2.123802 2.119947 2.117580 2.107239 2.112456 2.109513 2.107783 2.106189 2.098972 2.098025 2.086339 2.083697 2.080854 2.075477 2.064399 2.057766 2.063366 2.065999 2.066450 2.062282 2.051932 2.051838 2.046194 2.048020 2.036842 2.036477 2.029717 2.041707 2.038648 2.030701 2.027706 2.033302 2.033860 2.024253 2.015525 2.011960 2.001062 2.001511 2.001245 1.993482 2.003481 1.996840 1.997906 1.988386 1.986446 1.989716 1.985469 1.978247 1.973503 1.974182 1.970555 1.977875 1.974642 1.969592 1.968390 1.960589 1.966185 1.963131 1.954896 1.945001 1.940205 1.937801 1.926663 1.935942 1.935894 1.932087 1.938500 1.931342 1.938325 1.938327 1.933692 1.935818 1.946084 1.940253 1.941519 1.938074 1.932479 1.927014 1.939490 1.942332 1.945899 1.951755 1.943436 1.948239 1.944756 1.941513 1.935511 1.951365 1.953534 1.958905 1.961429 1.963140 1.961620 1.989367 1.983142 1.981944 1.985588 1.982902 1.982337 1.976826 1.988572 1.989881 1.983447 1.975434 1.968150 1.964167 1.964713 1.968515 1.970025 1.981832 1.982029 1.987243 1.984715 1.991318 1.991030 1.991220 1.989784 1.983585 1.986978 1.985347 1.979336 1.970036 1.965457 1.983896 1.986550 1.980613 1.989147 1.996790 1.997539 1.998173 1.992134 1.995350 2.002715 1.989847 1.992076 1.992045 1.998066 1.995635 2.000729 2.003736 2.035004 2.031417 2.056054 2.047759 2.056695 2.047091 2.040842 2.033133 2.024818 2.021312 2.039652 2.028576 2.025060 2.050635 2.048772 2.043355 2.035064 2.034478 2.031082 2.023957 2.035659 2.032601 2.030316 2.027239 2.024801 2.030273 2.022541 2.009902 2.012603 2.003360 1.994280 1.991372 1.987332 1.977330 1.993855 1.995774 1.987219 1.986445 1.981305 1.982678 1.985320 1.983491 1.975279 1.969262 1.961443 1.956966 1.959097 1.962068 1.965534 1.964700 1.970258 1.961026 1.964879 1.972903 1.969371 1.968379 1.962666 1.963722 1.955440 1.958989 1.956957 1.955612 1.956410 1.951335 1.946212 1.947786 1.938972 1.954437 1.952512 1.945807 1.940670 1.933274 1.931752 1.931666 1.928084 1.932653 1.934097 1.936875 1.937161 1.935332 1.930955 1.927695 1.935622 1.926740 1.933595 1.931420 1.921535 1.914799 1.915629 1.911484 1.921279 1.929666 1.928902 1.932597 1.945970 1.941475 1.951563 1.971301 1.960543 1.965960 1.980192 1.984875 1.981085 1.972174 1.963511 1.964933 1.973601 1.975102 1.983839 1.985962 1.992300 2.002014 1.995511 1.993097 1.985777 1.993143 1.999234 1.991273 1.987674 1.977960 1.972020 1.969094 1.975869 1.980199 1.976569 1.981109 1.975394 1.990176 1.988877 1.992308 2.001560 2.002104 2.001451 1.993973 1.988268 1.995088 1.989220 1.988127 1.983349 1.971883 1.961820 1.958391 1.951996 1.957601 1.972490 1.972416 1.967586 1.969134 1.979179 1.976686 1.977161 1.972891 1.976875 1.992673 1.993048 2.010528 2.002371 2.001306 1.997557 1.998088 1.999681 1.997123 1.997148 1.997589 2.020199 2.013281 2.009712 2.008077 2.012229 2.004735 2.000965 1.997532 2.001089 1.992580 2.000488 1.996542 1.990091 1.977950 1.986892 1.996240 2.003969 1.999440 1.996033 1.989563 1.997112 1.990711 1.986398 1.984893 1.992822 2.006114 2.001698 2.011560 2.017112 2.022388 2.014551 2.014491 2.015063 2.014161 2.011244 2.014759 2.013125 2.008429 2.035675 2.048635 2.047327 2.059784 2.059045 2.068253 2.087453 2.092303 2.102338 2.102819 2.123887 2.125993 2.145101 2.164635 2.171965 2.205495 2.222287 2.210848 2.215190 2.222709 2.228286 2.234176 2.245069 2.251971 2.266689 2.288176 2.293138 2.301154 2.308108 2.331585 2.332825 2.322089 2.349050 2.402499 2.410466 2.427232 2.424484 2.433742 2.456290 2.468613 2.460240 2.466341 2.458890 2.469167 2.468525 2.454597 2.453689 2.476315 2.472909 2.480754 2.468842 2.456789 2.446898 2.437140 2.434873 2.438938 2.466197 2.470265 2.466547 2.469535 2.462820 2.478146 2.472541 2.478471 2.470175 2.461820 2.473175 2.475107 2.466597 2.459710 2.446608 2.443688 2.443000 2.445199 2.438553 2.422767 2.452964 2.443280 2.433144 2.438680 2.449697 2.464778 2.487920 2.489616 2.484599 2.479457 2.483507 2.487378 2.490359 2.485583 2.519006 2.518844 2.535030 2.535244 2.543952 2.542611 2.542058 2.546563 2.561711 2.569689 2.564315 2.571212 2.596410 2.595557 2.613558 2.613232 2.599820 2.610555 2.613014 2.622724 2.613112 2.622592 2.635699 2.653160 2.660211 2.667708 2.684537 2.676685 2.686267 2.716285 2.711336 2.723359 2.729306 2.726780 2.743756 2.764006 2.792946 2.796714 2.810120 2.819959 2.843197 2.856434 2.867558 2.887950 2.892624 2.890393 2.919782 2.966782 2.996386 3.000139 2.998377 3.013928 3.033894 3.040997 3.039627 3.029785 3.016814 3.010529 3.065918 3.069199 3.088326 3.077636 3.071903 3.057001 3.051352 3.063787 3.056534 3.052548 3.040676 3.061152 3.056127 3.066990 3.056065 3.048932 3.042278 3.043245 3.031966 3.023596 3.017141 3.016858 3.006469 3.002125 3.001064 3.009915 3.003940 2.988833 2.996449 3.012390 3.004550 2.998444 2.987972 2.991561 3.000478 2.995185 2.978389 2.970394 2.969829 2.979091 2.978115 2.965200 2.969780 2.976744 2.964844 2.959393 2.955405 2.937637 2.937765 2.931027 2.928984 2.923666 2.915972 2.913628 2.898365 2.897866 2.898234 2.893572 2.892202 2.886769 2.891478 2.888435 2.878202 2.866118 2.868383 2.855665 2.876407 2.879197 2.870204 2.871036 2.879608 2.876034 2.861125 2.850878 2.841705 2.843162 2.843953 2.843276 2.844047 2.844458 2.835106 2.829961 2.819180 2.803033 2.812835 2.817847 2.818355 2.811160 2.805860 2.820623 2.816839 2.817846 2.814349 2.826639 2.829753 2.818494 2.806744 2.806261 2.808413 2.794959 2.784279 2.785256 2.783474 2.781465 2.794153 2.781536 2.782967 2.775004 2.765054 2.775224 2.767264 2.778675 2.767393 2.773754 2.779780 2.783931 2.785947 2.772804 2.758036 2.775808 2.785728 2.788681 2.776073 2.790756 2.794632 2.798758 2.801908 2.791407 2.802524 2.818216 2.815640 2.835898 2.841009 2.826312 2.832900 2.823940 2.812706 2.816596 2.808116 2.800786 2.805145 2.808240 2.809489 2.806201 2.794619 2.793291 2.823010 2.811705 2.812607 2.811173 2.822299 2.810229 2.842278 2.861424 2.882278 2.876017 2.885564 2.875263 2.872815 2.864167 2.868042 2.868511 2.862434 2.848799 2.866735 2.878757 2.869073 2.856578 2.861980 2.860183 2.856499 2.852155 2.861413 2.864034 2.865984 2.870048 2.868044 2.862512 2.860534 2.864510 2.849769 2.844691 2.843978 2.847567 2.867663 2.859872 2.867574 2.862071 2.866140 2.862648 2.856953 2.851096 2.854984 2.894315 2.880462 2.906965 2.910796 2.937849 2.938056 2.941487 2.941465 2.949005 2.942344 2.957032 2.956131 2.968712 2.959328 2.950382 2.962634 2.972425 2.971143 2.984614 2.989305 2.977831 2.991830 2.986653 2.986782 2.975467 2.968053 2.964598 2.965405 2.977158 2.965744 2.960054 2.955502 2.954753 2.967348 2.989585 2.986996 3.006987 3.018167 3.023903 3.029061 3.041489 3.047164 3.046227 3.051455 3.059436 3.059590 3.047198 3.040823 3.020582 3.023125 3.008542 3.014770 3.010591 3.001681 3.006884 2.996816 2.987774 3.002007 3.001021 3.001125 2.992049 2.972644 2.969137 2.966652 2.957000 2.947566 2.938804 2.925312 2.917663 2.902891 2.890672 2.888069 2.888218 2.876712 2.865845 2.856345 2.855121 2.865704 2.854966 2.857314 2.852907 2.844399 2.840136 2.824468 2.816599 2.815330 2.816117 2.810889 2.796866 2.806733 2.789861 2.777788 2.777115 2.770143 2.758459 2.750243 2.750506 2.745420 2.744494 2.735095 2.726402 2.718764 2.706537 2.702566 2.692339 2.678152 2.677183 2.678426 2.678365 2.670254 2.675025 2.681610 2.686314 2.693614 2.705013 2.705542 2.709647 2.726923 2.719504 2.717743 2.717637 2.705760 2.718063 2.716815 2.724127 2.733101 2.725614 2.752378 2.764144 2.757464 2.751839 2.748223 2.735933 2.748298 2.748986 2.736754 2.726897 2.716706 2.715287 2.721522 2.708162 2.715381 2.725012 2.738384 2.751669 2.755186 2.757770 2.761458 2.748074 2.751223 2.749079 2.736536 2.738369 2.726182 2.723309 2.716536 2.716291 2.737771 2.735082 2.721283 2.716035 2.709259 2.709647 2.704985 2.694858 2.682674 2.680758 2.666814 2.660803 2.650559 2.644936 2.632942 2.631380 2.646318 2.670856 2.653775 2.660640 2.654857 2.652515 2.642782 2.636992 2.627372 2.629475 2.621176 2.619450 2.614737 2.603055 2.610501 2.598230 2.597285 2.595593 2.595027 2.583394 2.580011 2.575036 2.571675 2.562261 2.556739 2.553001 2.548508 2.544807 2.540995 2.532650 2.542234 2.544107 2.554108 2.545196 2.555752 2.551048 2.550179 2.544414 2.533223 2.530059 2.523892 2.518828 2.516355 2.506355 2.496226 2.487906 2.490137 2.493674 2.487986 2.490940 2.478009 2.466855 2.459576 2.459602 2.451016 2.446468 2.438327 2.432833 2.429791 2.423849 2.412123 2.406785 2.397321 2.386804 2.374123 2.367940 2.365889 2.355141 2.345726 2.339941 2.327150 2.317963 2.320427 2.319606 2.317961 2.305098 2.297981 2.292120 2.290583 2.279236 2.271390 2.273513 2.259844 2.249916 2.251895 2.249393 2.244314 2.244208 2.241553 2.234890 2.234605 2.236699 2.237637 2.242711 2.239205 2.231238 2.252365 2.253591 2.253460 2.252033 2.259222 2.252790 2.245033 2.238225 2.234516 2.236537 2.236832 2.240993 2.233658 2.246959 2.244124 2.246636 2.241485 2.239151 2.250573 2.255860 2.282316 2.284661 2.276422 2.277852 2.284643 2.293233 2.283926 2.305015 2.298262 2.310877 2.321158 2.322751 2.328540 2.326443 2.319783 2.329216 2.326204 2.318950 2.330007 2.321455 2.310561 2.313878 2.303990 2.308938 2.312351 2.305674 2.304829 2.327652 2.347356 2.337096 2.339446 2.351895 2.354773 2.352091 2.341279 2.376283 2.372054 2.380498 2.379556 2.390962 2.396848 2.402661 2.402184 2.396902 2.404876 2.427371 2.426508 2.423365 2.434539 2.425230 2.426034 2.426990 2.416992 2.421030 2.446223 2.446511 2.451515 2.459484 2.463282 2.466229 2.467928 2.467902 2.469720 2.463978 2.454215 2.453943 2.451986 2.455858 2.452106 2.461565 2.461482 2.480422 2.481012 2.475478 2.480288 2.479816 2.489710 2.503604 2.498895 2.508644 2.515011 2.523823 2.536145 2.531331 2.531718 2.520767 2.532230 2.538242 2.533745 2.547017 2.545247 2.547587 2.561134 2.574326 2.577588 2.576057 2.591106 2.594942 2.595238 2.607003 2.611249 2.614998 2.627491 2.620977 2.603335 2.604294 2.628109 2.624829 2.641660 2.666523 2.671763 2.667828 2.693502 2.708045 2.711481 2.725132 2.724828 2.721422 2.713779 2.712615 2.723407 2.718620 2.718809 2.726478 2.713750 2.721196 2.707526 2.697271 2.683613 2.678965 2.685339 2.690709 2.693195 2.688739 2.678941 2.696308 2.689792 2.677991 2.681684 2.672194 2.665464 2.663053 2.670750 2.678196 2.673400 2.678047 2.685864 2.698886 2.683273 2.678342 2.696272 2.699012 2.713439 2.707758 2.709587 2.720993 2.713786 2.714012 2.717231 2.722440 2.734468 2.724983 2.725394 2.747348 2.739319 2.731480 2.732833 2.734602 2.727180 2.726825 2.724747 2.749275 2.750324 2.753469 2.767416 2.758612 2.756943 2.772019 2.773341 2.812643 2.815231 2.801104 2.808139 2.810559 2.797949 2.795295 2.797804 2.804938 2.810765 2.812481 2.810222 2.802656 2.808587 2.835316 2.839602 2.852998 2.850649 2.861004 2.857039 2.863200 2.875360 2.893355 2.879667 2.888466 2.881355 2.879946 2.911241 2.918936 2.910926 2.918539 2.930719 2.939298 2.945759 2.944147 2.958716 2.995331 2.991889 3.001556 3.025629 3.036528 3.031119 3.025669 3.041496 3.059932 3.048286 3.052603 3.042783 3.029982 3.044279 3.044728 3.077061 3.064862 3.070612 3.080028 3.080928 3.076188 3.088534 3.096010 3.113211 3.114166 3.106270 3.119489 3.122611 3.129539 3.122532 3.152185 3.170635 3.168468 3.166038 3.161004 3.159144 3.176725 3.181811 3.169843 3.168826 3.160557 3.144550 3.138714 3.146815 3.130362 3.133066 3.131915 3.123497 3.104865 3.106244 3.130610 3.120168 3.124780 3.168877 3.202788 3.186873 3.173339 3.165893 3.149267 3.138897 3.126481 3.136127 3.128503 3.129528 3.128468 3.147778 3.131981 3.120019 3.117730 3.113956 3.099827 3.099928 3.087056 3.092835 3.091359 3.080052 3.068535 3.058310 3.058334 3.054503 3.066701 3.070022 3.059906 3.041625 3.045315 3.041635 3.040892 3.031116 3.018233 3.003898 3.008149 3.000623 2.993264 2.990850 2.990078 2.993387 2.993128 2.993218 2.992126 2.987306 2.986949 3.008476 3.006907 2.989832 2.983285 2.969916 2.960450 2.947527 2.938895 2.931036 2.946010 2.934567 2.927383 2.914437 2.908065 2.891998 2.884845 2.905399 2.889262 2.881970 2.869147 2.874035 2.863362 2.861152 2.882608 2.867298 2.871308 2.866605 2.852777 2.841306 2.831762 2.814858 2.811512 2.817689 2.803690 2.802342 2.799896 2.787946 2.785610 2.779692 2.766892 2.751432 2.748571 2.753287 2.740064 2.728604 2.743601 2.740641 2.744158 2.739753 2.751652 2.768531 2.761295 2.751684 2.761238 2.747174 2.735401 2.743710 2.728202 2.729304 2.727074 2.722563 2.717626 2.719154 2.706107 2.702782 2.693561 2.685377 2.693470 2.696858 2.677995 2.670038 2.661489 2.650887 2.650215 2.633407 2.627547 2.624803 2.621783 2.616804 2.609870 2.600463 2.597214 2.595867 2.589329 2.588542 2.586536 2.584007 2.573883 2.570522 2.565020 2.570188 2.563122 2.553467 2.543952 2.540527 2.555364 2.545151 2.537410 2.525531 2.530409 2.541304 2.528818 2.532558 2.545334 2.539967 2.529075 2.529968 2.529474 2.518246 2.507394 2.498455 2.497150 2.496562 2.487681 2.478813 2.473283 2.463056 2.450045 2.466278 2.457243 2.455888 2.448377 2.436144 2.437656 2.426449 2.421602 2.425184 2.422821 2.420530 2.416767 2.411292 2.406600 2.401546 2.397023 2.385308 2.386057 2.406668 2.408221 2.411509 2.408399 2.407125 2.406877 2.410534 2.403784 2.403312 2.394057 2.405439 2.405693 2.390549 2.380781 2.376615 2.383112 2.372937 2.369718 2.373472 2.365699 2.359617 2.351126 2.342282 2.332800 2.349461 2.339505 2.336109 2.335465 2.323681 2.317406 2.314365 2.319870 2.318747 2.315138 2.326597 2.330443 2.328209 2.322242 2.329152 2.342152 2.341492 2.335998 2.339167 2.336245 2.335326 2.342778 2.342336 2.335277 2.353855 2.351857 2.350803 2.356519 2.343664 2.341294 2.338064 2.326991 2.321748 2.320779 2.318059 2.308430 2.333244 2.323624 2.317993 2.312537 2.306622 2.305006 2.306725 2.297154 2.286988 2.282787 2.281066 2.270876 2.270588 2.284252 2.275503 2.276737 2.291480 2.290588 2.290847 2.293768 2.287176 2.300977 2.300606 2.298264 2.308208 2.315724 2.324551 2.318941 2.310691 2.301205 2.321799 2.330932 2.333111 2.335836 2.336788 2.331460 2.335248 2.326540 2.327153 2.348820 2.349484 2.348308 2.352633 2.347083 2.352827 2.363849 2.355524 2.357911 2.343692 2.340654 2.345634 2.348207 2.349795 2.349202 2.351960 2.353619 2.344925 2.349617 2.351519 2.359626 2.346733 2.334977 2.337895 2.331891 2.335843 2.331225 2.329744 2.340927 2.342598 2.359814 2.358887 2.349602 2.344128 2.341512 2.345550 2.336989 2.346903 2.342527 2.341015 2.352696 2.339988 2.344483 2.342708 2.343330 2.346110 2.344972 2.334736 2.334136 2.338984 2.344112 2.334333 2.332083 2.333414 2.322116 2.319793 2.316833 2.311771 2.304594 2.306518 2.307646 2.309553 2.305159 2.296093 2.287652 2.303222 2.293293 2.285700 2.294877 2.293879 2.302634 2.307310 2.309675 2.300199 2.298129 2.291773 2.298066 2.302188 2.305680 2.304512 2.294687 2.293529 2.293183 2.293486 2.297642 2.314159 2.313322 2.309393 2.308283 2.319661 2.312685 2.323572 2.328115 2.325327 2.350026 2.348492 2.363907 2.370050 2.381526 2.367944 2.375599 2.371889 2.387233 2.383456 2.384001 2.373165 2.371531 2.359265 2.350287 2.349490 2.344238 2.357016 2.366203 2.362656 2.361759 2.368708 2.374630 2.382830 2.389219 2.388973 2.392976 2.390470 2.387484 2.379444 2.387161 2.396876 2.387799 2.391725 2.389745 2.432735 2.439623 2.441587 2.439946 2.436921 2.439921 2.443867 2.436390 2.426967 2.415566 2.425486 2.416239 2.402425 2.408946 2.402666 2.413130 2.401035 2.410613 2.405162 2.393107 2.384951 2.376383 2.379406 2.369605 2.383915 2.376829 2.374431 2.374023 2.367142 2.373843 2.367508 2.352946 2.343623 2.343211 2.343786 2.337347 2.346963 2.343958 2.333608 2.344239 2.372349 2.371719 2.371419 2.374596 2.382380 2.380570 2.371361 2.386763 2.409851 2.421853 2.421551 2.416859 2.407926 2.406428 2.412012 2.405906 2.412986 2.405868 2.403276 2.416178 2.409912 2.402848 2.393206 2.396102 2.396275 2.399136 2.390445 2.385599 2.399473 2.392909 2.389874 2.383200 2.378756 2.373147 2.386773 2.377661 2.369188 2.362283 2.369234 2.361352 2.368963 2.364294 2.362456 2.374787 2.367708 2.358905 2.357763 2.353412 2.349465 2.344119 2.350333 2.347407 2.352385 2.347506 2.338580 2.334303 2.342685 2.333276 2.343775 2.341123 2.328200 2.321723 2.320308 2.311754 2.306505 2.301499 2.293138 2.296257 2.293092 2.286879 2.284465 2.274266 2.282666 2.270932 2.262075 2.251472 2.242129 2.230567 2.228556 2.223464 2.216369 2.213149 2.205759 2.199452 2.192640 2.187488 2.188544 2.194668 2.195618 2.201316 2.195030 2.193567 2.187338 2.177658 2.182889 2.172873 2.181103 2.177226 2.171046 2.176329 2.187374 2.186417 2.182792 2.178602 2.173681 2.162512 2.167684 2.163281 2.161935 2.149482 2.155767 2.155482 2.149709 2.155026 2.161651 2.161703 2.164782 2.164656 2.168473 2.163128 2.157772 2.162172 2.161157 2.164103 2.150849 2.142479 2.146111 2.135708 2.129618 2.119035 2.138269 2.129274 2.130650 2.140610 2.140215 2.143189 2.134600 2.142092 2.140071 2.140799 2.130284 2.124876 2.118149 2.115063 2.109881 2.100599 2.097119 2.095321 2.094582 2.087191 2.085249 2.083618 2.078296 2.074453 2.066278 2.059435 2.051369 2.048428 2.043232 2.042530 2.040114 2.036689 2.035485 2.025863 2.017141 2.007812 2.012940 2.009529 2.011892 2.023867 2.041235 2.033142 2.031833 2.031453 2.022289 2.017667 2.015454 2.017416 2.009678 2.008538 2.004948 2.003527 1.994466 2.002361 2.006112 2.011978 2.011735 2.005497 2.016926 2.017619 2.017340 2.011419 2.017090 2.018137 2.010397 2.004917 2.015283 2.034333 2.034175 2.028780 2.035916 2.035012 2.036291 2.033787 2.048174 2.057622 2.068039 2.074904 2.074416 2.074965 2.069290 2.059946 2.055547 2.056228 2.052420 2.044189 2.049628 2.046891 2.040435 2.030955 2.022550 2.012892 2.014799 2.016908 2.008372 1.999321 2.010937 2.012374 2.018815 2.021908 2.035821 2.046532 2.054885 2.051204 2.053578 2.050290 2.057357 2.052310 2.048800 2.071160 2.068720 2.060762 2.061931 2.064390 2.059527 2.075008 2.072699 2.063437 2.069719 2.072860 2.077469 2.092825 2.102768 2.110652 2.101973 2.106443 2.115310 2.127237 2.126206 2.116307 2.110676 2.130389 2.134158 2.122072 2.114641 2.139455 2.153910 2.146465 2.144279 2.145719 2.149670 2.153563 2.168754 2.170468 2.191522 2.189007 2.193875 2.199490 2.203364 2.200143 2.188282 2.201140 2.217556 2.212300 2.225270 2.231026 2.249319 2.242816 2.238820 2.231476 2.227713 2.241013 2.249105 2.252040 2.266021 2.263568 2.270157 2.273841 2.273680 2.285886 2.293526 2.315543 2.316885 2.317941 2.316317 2.310457 2.326133 2.337060 2.333211 2.326552 2.328133 2.326399 2.322999 2.333966 2.332489 2.343877 2.336372 2.324732 2.327250 2.327829 2.326583 2.357954 2.354171 2.369575 2.356785 2.350042 2.363991 2.358291 2.355316 2.353654 2.349185 2.349607 2.336943 2.350305 2.374627 2.394598 2.388746 2.387062 2.393421 2.392424 2.395273 2.391331 2.399728 2.396039 2.385978 2.376370 2.389764 2.392890 2.392526 2.397152 2.409689 2.398784 2.400601 2.391353 2.416301 2.440680 2.435201 2.441673 2.445389 2.446998 2.445318 2.450484 2.454268 2.445705 2.446939 2.444946 2.456924 2.451784 2.449207 2.438445 2.432362 2.420916 2.405658 2.410858 2.403932 2.415263 2.421685 2.415466 2.406809 2.403697 2.403442 2.411684 2.424227 2.419374 2.413526 2.405984 2.412512 2.407062 2.410545 2.415118 2.402388 2.403329 2.400421 2.413006 2.410721 2.402594 2.399901 2.394563 2.391026 2.382811 2.370984 2.368595 2.362830 2.363071 2.367148 2.376577 2.379615 2.374411 2.373391 2.361677 2.356057 2.370409 2.370173 2.378268 2.388036 2.382157 2.374252 2.369280 2.368397 2.364688 2.361202 2.354946 2.349745 2.353583 2.352201 2.344492 2.346504 2.341221 2.340480 2.327482 2.324881 2.322469 2.321693 2.320874 2.311289 2.309206 2.302168 2.290693 2.280218 2.287351 2.283307 2.283007 2.274244 2.264113 2.261248 2.256464 2.256453 2.250048 2.244629 2.249334 2.244657 2.247129 2.251812 2.250879 2.246888 2.255330 2.246663 2.237137 2.231810 2.226224 2.219344 2.209652 2.205370 2.203901 2.206564 2.203239 2.202415 2.200479 2.189927 2.214160 2.211416 2.210724 2.199365 2.196828 2.188610 2.184501 2.174480 2.176856 2.170540 2.168790 2.160223 2.167660 2.164034 2.158613 2.158209 2.148509 2.145627 2.157615 2.160488 2.166626 2.156559 2.164278 2.176134 2.173615 2.173908 2.171201 2.187657 2.202172 2.205880 2.203520 2.203005 2.202781 2.195926 2.193636 2.184907 2.196612 2.212998 2.199887 2.192831 2.199760 2.202347 2.198339 2.199316 2.200602 2.200089 2.201847 2.221240 2.220005 2.213551 2.226706 2.225489 2.225136 2.228221 2.224908 2.223522 2.224020 2.218612 2.216588 2.210533 2.222278 2.228197 2.219769 2.212716 2.212081 2.215222 2.209228 2.217565 2.215908 2.212596 2.203326 2.204651 2.216465 2.237671 2.225655 2.224729 2.233146 2.227356 2.227438 2.221849 2.223853 2.222931 2.220292 2.225606 2.222552 2.225545 2.238988 2.240681 2.250122 2.247595 2.241725 2.240575 2.242961 2.238477 2.257936 2.250422 2.256604 2.258481 2.257632 2.253704 2.255809 2.257544 2.251033 2.248242 2.272426 2.283147 2.281657 2.270020 2.277738 2.282639 2.304695 2.317757 2.320967 2.320074 2.339155 2.356056 2.354928 2.360231 2.360136 2.359554 2.363244 2.365866 2.372072 2.361035 2.349731 2.351408 2.339455 2.354647 2.349373 2.353820 2.358301 2.351738 2.358461 2.365636 2.363354 2.365370 2.360922 2.380883 2.389768 2.386542 2.401106 2.425338 2.430120 2.444937 2.438026 2.437270 2.432503 2.436144 2.437566 2.421899 2.439504 2.445129 2.430363 2.439128 2.448585 2.440475 2.432300 2.439332 2.449182 2.444674 2.436722 2.442231 2.428580 2.419632 2.412417 2.414211 2.408733 2.412285 2.410425 2.411901 2.414932 2.416818 2.411836 2.406537 2.416532 2.411589 2.411914 2.420246 2.421771 2.415624 2.436350 2.438941 2.434196 2.427007 2.421231 2.420845 2.435953 2.456810 2.464158 2.456486 2.462856 2.457866 2.453323 2.445820 2.439405 2.430574 2.416570 2.405980 2.399702 2.415692 2.424270 2.412075 2.400402 2.401672 2.395907 2.387675 2.398658 2.406008 2.394826 2.392339 2.382600 2.393009 2.403342 2.400128 2.395430 2.386089 2.387832 2.379772 2.374658 2.365820 2.362770 2.359129 2.347825 2.341752 2.351752 2.354124 2.342007 2.331443 2.342741 2.330894 2.321371 2.323214 2.325122 2.322040 2.322112 2.316530 2.304840 2.298330 2.296922 2.285605 2.277210 2.276953 2.271928 2.268281 2.270609 2.261868 2.265798 2.256888 2.242990 2.234696 2.223764 2.228253 2.227356 2.221880 2.214676 2.218148 2.211201 2.201464 2.196938 2.186445 2.183710 2.181759 2.174859 2.164807 2.161475 2.150759 2.152871 2.142096 2.136124 2.132299 2.136356 2.131058 2.134204 2.130784 2.132661 2.122984 2.123845 2.132758 2.140134 2.150975 2.139550 2.140138 2.131870 2.132588 2.130252 2.129162 2.119124 2.120236 2.113100 2.105804 2.115949 2.110474 2.104075 2.093221 2.093296 2.087145 2.080071 2.084931 2.088382 2.087355 2.082880 2.086277 2.079503 2.073818 2.081229 2.073343 2.071244 2.063138 2.054082 2.059606 2.057670 2.057317 2.060393 2.050884 2.050010 2.051128 2.071871 2.065596 2.067744 2.059042 2.052544 2.042464 2.030930 2.028357 2.025107 2.021935 2.024185 2.018756 2.016971 2.016123 2.011566 2.010594 2.003742 2.006580 2.004681 1.998479 1.991307 1.994556 1.984808 1.984080 1.988985 1.983180 1.983311 1.981864 1.977487 1.993548 2.013207 2.012813 2.006759 2.003461 1.995209 1.996260 2.002554 2.003856 2.000911 1.994442 1.991844 1.989994 1.981053 1.982390 1.981478 1.970511 1.965370 1.959300 1.952149 1.959068 1.954130 1.944659 1.944229 1.944228 1.934817 1.935537 1.934560 1.932276 1.929867 1.926539 1.922904 1.934446 1.928288 1.924153 1.924528 1.924398 1.910970 1.910629 1.901911 1.902098 1.901934 1.901296 1.893436 1.894142 1.891856 1.891921 1.890643 1.878538 1.886251 1.884121 1.881147 1.873211 1.875738 1.872838 1.875399 1.876444 1.883821 1.877848 1.877826 1.872058 1.880451 1.881558 1.896351 1.891434 1.906219 1.900747 1.911279 1.927623 1.923577 1.918535 1.916617 1.911161 1.909884 1.901418 1.905280 1.906024 1.913716 1.928067 1.939591 1.940259 1.945056 1.949092 1.947751 1.944388 1.935320 1.932918 1.938407 1.945439 1.945261 1.952595 1.964317 1.965544 1.970142 1.960475 1.964939 1.960624 1.957625 1.964872 1.969308 1.965681 1.987727 1.994846 1.986461 1.991506 1.992771 2.002203 1.999182 1.998893 1.989250 1.981145 1.974913 1.970577 1.972720 1.971687 1.966468 1.967883 1.965287 1.956399 1.953289 1.953308 1.967506 1.972987 1.972288 1.971700 1.969023 1.970433 1.962023 1.965137 1.969160 1.969634 1.969532 1.968140 1.974105 1.972440 1.973607 1.976688 1.972678 1.995897 1.996266 2.004140 2.020991 2.021183 2.035832 2.055178 2.046333 2.051747 2.038838 2.033421 2.041019 2.040850 2.037085 2.042428 2.044588 2.044931 2.044899 2.037583 2.030256 2.034318 2.031449 2.029407 2.029494 2.029334 2.034675 2.038374 2.049306 2.052163 2.045523 2.039083 2.033693 2.022586 2.016437 2.010551 2.032264 2.030399 2.031114 2.023125 2.026117 2.028283 2.020602 2.016035 2.021222 2.019125 2.017115 2.020290 2.019654 2.011210 2.010091 2.007654 2.003725 2.008680 2.001171 1.995086 2.002770 2.013302 2.012536 2.010062 2.013978 2.020320 2.015560 2.013146 2.012515 2.013576 2.016779 2.026624 2.032082 2.032109 2.039966 2.032304 2.039244 2.038187 2.049047 2.042780 2.060890 2.054050 2.055579 2.055261 2.062637 2.064695 2.063729 2.058281 2.063837 2.058452 2.057808 2.064843 2.063652 2.059620 2.064828 2.066336 2.058532 2.058396 2.053326 2.062108 2.058881 2.072379 2.078793 2.095852 2.120535 2.119145 2.122625 2.117605 2.109999 2.108686 2.107504 2.106137 2.100544 2.104316 2.110619 2.108608 2.104128 2.103316 2.094255 2.103121 2.104463 2.100837 2.107266 2.104870 2.117278 2.118653 2.116283 2.111313 2.113803 2.110503 2.109507 2.111482 2.117897 2.119583 2.119183 2.119911 2.111676 2.108937 2.106675 2.120383 2.127275 2.124249 2.120920 2.126066 2.132187 2.137405 2.143787 2.143979 2.142306 2.130519 2.126679 2.131111 2.132551 2.144858 2.138708 2.145737 2.138459 2.153496 2.172114 2.186388 2.214037 2.212287 2.206124 2.204824 2.196254 2.219712 2.210936 2.218205 2.226160 2.225157 2.217337 2.209173 2.199500 2.192537 2.188331 2.203099 2.205425 2.232292 2.243214 2.250536 2.271572 2.272512 2.263498 2.254322 2.268711 2.268366 2.275083 2.281098 2.303345 2.294040 2.287339 2.293863 2.283338 2.278443 2.267309 2.259855 2.252470 2.270385 2.262927 2.260203 2.257954 2.252331 2.256390 2.256659 2.253911 2.245966 2.234842 2.233084 2.227810 2.217595 2.210117 2.205601 2.195714 2.194023 2.197854 2.203955 2.207649 2.196153 2.192847 2.191381 2.187729 2.184920 2.194193 2.191673 2.197940 2.199273 2.192103 2.203796 2.205325 2.202066 2.199218 2.201460 2.198456 2.185064 2.178918 2.182774 2.184431 2.188503 2.182523 2.173145 2.183727 2.178764 2.184942 2.180952 2.179729 2.175134 2.169554 2.158088 2.151228 2.156570 2.158774 2.148300 2.142390 2.150420 2.142956 2.137596 2.133693 2.126134 2.123921 2.131288 2.126020 2.127826 2.131411 2.136940 2.133715 2.129040 2.133545 2.135602 2.171396 2.160559 2.158802 2.167004 2.173842 2.181111 2.188260 2.178404 2.172966 2.165151 2.161383 2.168845 2.184237 2.183094 2.179662 2.187603 2.178211 2.181971 2.198105 2.198098 2.203427 2.207902 2.204917 2.201122 2.194629 2.194960 2.197810 2.184383 2.188852 2.187489 2.184127 2.173790 2.162957 2.160881 2.161508 2.153365 2.146989 2.151245 2.148856 2.140747 2.129085 2.133007 2.140022 2.133688 2.136468 2.136566 2.141088 2.135681 2.139382 2.156288 2.176256 2.175473 2.172308 2.173001 2.175316 2.178135 2.171378 2.172676 2.169171 2.169799 2.169581 2.166441 2.181898 2.184856 2.188408 2.196926 2.190843 2.198986 2.197763 2.187214 2.210454 2.219605 2.227558 2.220753 2.213717 2.228437 2.226781 2.239183 2.245978 2.244822 2.240589 2.241660 2.236551 2.229473 2.219300 2.228689 2.225030 2.224227 2.216510 2.218383 2.210124 2.205818 2.210413 2.206472 2.210294 2.207987 2.218618 2.214178 2.218497 2.211843 2.206886 2.201809 2.196996 2.192890 2.198506 2.209139 2.217742 2.218263 2.213002 2.218762 2.214797 2.214426 2.204947 2.208008 2.199991 2.211177 2.202540 2.198218 2.195317 2.190321 2.206905 2.204552 2.197867 2.223133 2.240308 2.244833 2.245105 2.248799 2.251984 2.240325 2.228562 2.241990 2.250629 2.273758 2.293892 2.281684 2.271942 2.263000 2.251503 2.252598 2.242163 2.235083 2.246010 2.244630 2.246251 2.252754 2.248264 2.241363 2.243993 2.254786 2.259418 2.258667 2.257493 2.264410 2.270000 2.263333 2.272270 2.270444 2.266070 2.257247 2.260609 2.258482 2.250680 2.273603 2.279366 2.283864 2.278222 2.280215 2.283889 2.283503 2.293629 2.298428 2.293758 2.298750 2.298125 2.302883 2.296285 2.294059 2.292653 2.295471 2.293548 2.294308 2.295316 2.289912 2.286063 2.280539 2.281504 2.284362 2.274630 2.270652 2.265113 2.254488 2.250847 2.251644 2.260293 2.263890 2.257174 2.261655 2.265201 2.259087 2.249700 2.248254 2.251698 2.242988 2.233447 2.238415 2.243251 2.245464 2.271825 2.264751 2.263963 2.266045 2.269797 2.280021 2.271561 2.264706 2.266854 2.264025 2.269125 2.270832 2.276245 2.278792 2.276180 2.267642 2.260461 2.258511 2.259662 2.255892 2.254109 2.250458 2.259468 2.264218 2.268196 2.288335 2.283461 2.275785 2.268921 2.279894 2.288744 2.296496 2.297928 2.291184 2.290849 2.294020 2.285175 2.273303 2.271301 2.286201 2.276863 2.277179 2.284571 2.284326 2.286134 2.287413 2.292226 2.282061 2.282074 2.278450 2.271712 2.269801 2.282785 2.276217 2.289511 2.294572 2.301817 2.302179 2.299499 2.290802 2.286021 2.276113 2.271009 2.274951 2.269182 2.267577 2.259219 2.255119 2.248147 2.244783 2.234028 2.241735 2.242517 2.231258 2.232917 2.232376 2.261459 2.264217 2.261125 2.259618 2.251555 2.245884 2.240108 2.245727 2.256628 2.254050 2.251539 2.249924 2.243977 2.236369 2.225721 2.218106 2.207023 2.192604 2.186385 2.176920 2.165357 2.156201 2.160861 2.155135 2.154168 2.150612 2.144776 2.155801 2.147053 2.138135 2.147389 2.149214 2.146264 2.143575 2.143739 2.151550 2.148282 2.148323 2.152761 2.163178 2.177632 2.174709 2.168913 2.175365 2.171494 2.164772 2.160888 2.164414 2.160329 2.151223 2.145734 2.149921 2.148049 2.156498 2.147220 2.142384 2.139841 2.152986 2.154572 2.145865 2.138221 2.136163 2.141313 2.147519 2.145618 2.147538 2.145797 2.133664 2.134217 2.129626 2.137336 2.131736 2.121261 2.123798 2.115424 2.120098 2.116536 2.114833 2.109062 2.098340 2.093818 2.097591 2.104746 2.103010 2.092436 2.087847 2.085471 2.081179 2.074338 2.075813 2.090089 2.088834 2.083583 2.078167 2.074925 2.071415 2.068565 2.059055 2.055970 2.054777 2.047434 2.047040 2.047715 2.038515 2.029349 2.049083 2.046536 2.044531 2.037180 2.041176 2.034853 2.039144 2.040691 2.049426 2.057396 2.051136 2.051747 2.046682 2.044900 2.041813 2.036992 2.029716 2.022144 2.025624 2.018983 2.015212 2.011956 2.020494 2.016628 2.022166 2.024730 2.030288 2.031894 2.027922 2.025324 2.036942 2.037891 2.041847 2.044696 2.045109 2.043576 2.039801 2.037954 2.041848 2.053377 2.057076 2.057780 2.065248 2.062809 2.072494 2.061591 2.067879 2.072833 2.079237 2.080449 2.077776 2.067823 2.058719 2.058202 2.062659 2.073410 2.074376 2.072523 2.063888 2.065049 2.061728 2.072583 2.080810 2.085324 2.093095 2.085533 2.084810 2.102309 2.103115 2.099871 2.092856 2.117816 2.110074 2.111549 2.104936 2.129068 2.143031 2.145386 2.162123 2.159746 2.168899 2.179507 2.168775 2.177790 2.196322 2.188483 2.190015 2.197674 2.194840 2.226034 2.216017 2.203026 2.205002 2.207427 2.207850 2.203400 2.203135 2.224449 2.219822 2.217122 2.212458 2.214840 2.216797 2.222791 2.234148 2.232624 2.241540 2.233447 2.233591 2.233837 2.222452 2.213310 2.221912 2.211850 2.206827 2.208409 2.222638 2.221829 2.218304 2.222576 2.235443 2.236235 2.242718 2.242169 2.266261 2.271503 2.263912 2.256600 2.255913 2.268332 2.261425 2.250254 2.247241 2.251247 2.239637 2.262881 2.255473 2.245490 2.239991 2.225843 2.219407 2.230034 2.232105 2.230062 2.232357 2.239505 2.245640 2.246410 2.240396 2.248053 2.247915 2.245792 2.240999 2.233279 2.242114 2.248264 2.256084 2.258734 2.260870 2.260448 2.270424 2.261193 2.267161 2.262505 2.269551 2.282251 2.277551 2.285877 2.302504 2.296535 2.303979 2.299458 2.301222 2.298548 2.307174 2.305363 2.307054 2.302025 2.306409 2.314423 2.320459 2.321541 2.328904 2.325917 2.314946 2.317502 2.307721 2.305867 2.298635 2.292359 2.297098 2.291119 2.287481 2.279344 2.275018 2.270540 2.260749 2.254034 2.266800 2.282008 2.288455 2.280342 2.279381 2.274548 2.270823 2.267644 2.290224 2.281361 2.276038 2.279656 2.280827 2.280148 2.284556 2.281025 2.269214 2.276106 2.270188 2.276112 2.271786 2.269984 2.275043 2.272798 2.275307 2.269253 2.272137 2.266009 2.267294 2.264526 2.258434 2.245126 2.253803 2.238531 2.236526 2.235640 2.235889 2.239466 2.230852 2.251797 2.246145 2.244733 2.241579 2.235062 2.231519 2.254640 2.256154 2.272037 2.270237 2.269143 2.275245 2.283024 2.275676 2.268423 2.266142 2.265843 2.271884 2.263536 2.259373 2.254929 2.252457 2.262885 2.260098 2.266370 2.261659 2.264179 2.273839 2.291083 2.296118 2.292412 2.306441 2.297384 2.285326 2.271951 2.300213 2.306957 2.298852 2.293396 2.291395 2.287823 2.308051 2.312415 2.310580 2.308907 2.303722 2.323207 2.329279 2.321367 2.324617 2.311801 2.302782 2.299831 2.306657 2.317379 2.326472 2.328105 2.342907 2.334032 2.320824 2.320938 2.321765 2.324476 2.329206 2.334183 2.333488 2.328858 2.330305 2.322468 2.314589 2.320130 2.317332 2.318517 2.319028 2.331475 2.322975 2.324081 2.331128 2.320113 2.320306 2.313114 2.305063 2.313922 2.313145 2.308954 2.330513 2.326080 2.321289 2.315176 2.304073 2.309584 2.325997 2.324857 2.314365 2.311283 2.298524 2.289362 2.293576 2.315347 2.332971 2.348363 2.350214 2.341669 2.330451 2.318752 2.330017 2.336276 2.335617 2.331995 2.334862 2.330611 2.324319 2.322276 2.319391 2.322365 2.322699 2.317898 2.321080 2.322164 2.328419 2.332948 2.327339 2.334143 2.336969 2.326330 2.326993 2.332472 2.339267 2.356562 2.346878 2.344154 2.340483 2.332067 2.338419 2.359479 2.363201 2.353557 2.354754 2.349199 2.343633 2.352615 2.345717 2.342253 2.343262 2.354276 2.350899 2.354620 2.345013 2.337400 2.340884 2.344259 2.341595 2.349242 2.364771 2.366701 2.359824 2.358396 2.366492 2.372555 2.364123 2.357308 2.353724 2.347265 2.368485 2.363204 2.351934 2.353399 2.346612 2.368696 2.358430 2.357501 2.348854 2.352961 2.349144 
