-1.023247 2.648764 -2.803435 -2.780686 2.717004 4.565146 -2.710957 2.787439 -4.488219 3.280615 -2.773676 2.571936 2.353188 4.035456 -3.756989 6.623752 1.517756 -2.195136 3.223438 6.462155 -2.086140 -1.135980 -3.089099 -0.583687 -4.385422 5.058273 -4.764853 -5.435786 -5.944303 -3.125282 -4.800092 -0.410337 -0.739799 0.280485 -1.287922 1.324685 2.836267 0.495886 0.070626 -3.523155 -1.421066 -1.209389 2.208826 3.664797 1.466490 -0.259543 -3.393754 -3.150353 -1.162084 1.914390 -2.282080 -1.702817 0.871011 2.887305 2.431509 -3.440112 2.381390 3.910872 2.934773 -2.882106 1.252844 -2.601335 -4.102090 -3.889977 -1.642021 0.130380 0.426928 4.144603 0.532124 -1.206141 2.852875 -3.419189 -3.359113 -3.042854 0.614881 -1.184433 -4.589334 3.679758 -5.626267 -1.357411 -4.636303 -2.574039 3.192908 -2.871709 -0.717356 1.978934 -0.462265 1.672616 -6.260059 -0.115455 -7.423327 -1.415531 0.492244 -3.362293 -2.829475 -3.613092 -1.471030 0.693867 1.687907 -0.376187 -2.057208 3.848962 -0.421089 -6.263594 -0.059788 -0.461595 1.049023 2.535699 2.170193 0.417111 -4.995247 2.840559 -5.282715 2.001547 -0.449781 1.405923 3.278250 3.114572 4.373336 0.352925 1.522252 3.167940 2.055609 -0.310828 -0.335247 3.345858 1.076926 -1.124242 -0.862492 1.103199 2.680366 -1.518442 2.349155 -1.374830 2.528544 0.376639 -3.439413 8.002328 -2.240697 3.398064 1.529510 -2.444919 3.645959 6.612900 5.206165 1.294743 -0.766569 -3.560837 -1.410962 5.454324 -4.946624 -0.572625 2.093736 4.185068 -1.601004 0.483926 -1.318988 -2.724948 -0.914066 1.097711 0.808947 -2.575950 -0.020140 0.504895 2.249908 3.600021 1.233430 -2.382734 -5.280491 1.003424 -1.240331 0.246598 -5.251748 -0.315252 -3.396722 -2.719192 -2.529388 -2.153045 -0.161281 9.290687 2.498647 2.644467 -2.775104 1.536764 -2.812672 -3.305440 -3.497732 2.593226 2.292432 -2.937647 -5.802335 -0.760060 -0.988246 2.214843 -2.252390 0.170856 -1.090246 -7.907371 0.384679 -0.038338 1.107143 -4.476330 1.926437 0.363425 -1.481762 0.203505 5.502628 -2.973750 -4.270586 -1.823404 0.247936 5.174163 -1.382776 -1.116782 5.191590 2.690776 5.738277 -0.892645 0.861269 -2.736585 -0.893695 0.678095 -1.585595 2.142028 2.310925 2.160861 2.291641 0.096483 1.881304 -0.429718 1.108695 -2.767554 1.203794 1.173730 -0.763859 -0.555421 -0.257707 1.614711 -0.366910 -2.299355 -1.792746 -3.319217 2.600027 -1.486953 2.319953 4.202493 -1.601974 -2.891394 -0.557423 2.767090 3.861505 -0.680155 -1.969299 0.719169 0.739177 -3.278898 4.099405 1.577949 3.336259 1.425272 1.508588 -2.132700 -2.026487 -0.337697 -0.558690 -0.750942 1.498768 -2.003157 -6.746210 -2.026063 -0.079032 1.363098 -0.812734 -2.196923 -3.028871 1.327986 0.909985 2.231045 1.708666 -0.119992 -3.421533 0.807390 -1.456240 0.136320 1.649533 -5.792710 0.848335 4.573547 1.906880 1.647381 -2.244439 2.006019 -0.158613 -2.486371 -0.481711 -0.631969 -2.298486 0.024293 3.701736 1.509105 -2.314918 -3.603448 -1.207856 0.455354 1.733310 1.342299 -0.352775 -1.626397 -1.101091 -2.955596 2.485681 -1.956914 0.144156 -1.394539 -0.901604 3.035940 2.413897 0.082099 2.043854 1.727895 -0.212738 -7.704572 -1.310180 -1.418694 2.016894 1.689762 1.853637 -1.381035 1.070780 0.755835 2.094769 -0.633705 4.876638 -1.182157 -2.565363 -0.261217 -4.025594 -0.182809 -0.452845 -2.313491 -1.547554 -2.999968 -0.458457 3.165679 -1.246205 0.922001 -0.922097 -0.660912 -2.443105 -0.632961 4.705977 2.032404 1.805132 0.188212 -1.516025 -1.376361 1.883099 -0.740128 1.002805 0.953918 -0.604221 -0.321597 3.300034 -2.891242 -0.810163 -0.856960 -0.729683 -4.356103 -0.152538 -1.918709 3.867194 -0.432343 -1.895774 -1.420418 -3.030177 4.384979 5.250936 0.577532 1.031881 -4.276095 -3.487088 0.143041 1.039705 -1.225482 4.570839 2.700562 1.147813 2.934867 2.366089 -1.999341 3.334035 -1.101919 2.766885 2.331349 -5.139952 -4.114760 -3.638143 1.997499 -0.348556 -0.500836 3.953986 -1.559388 -1.018262 2.797448 7.410903 -6.657739 3.311064 1.307225 -0.616583 -0.763873 -0.788238 -2.419196 -0.261401 -2.334175 -1.562385 0.281575 -3.233038 -0.767658 3.022828 -1.079266 2.875619 -1.175521 -2.649894 -0.426598 2.862625 2.304842 -1.817875 -3.208031 -0.483431 -0.638469 0.933036 0.504114 0.500453 0.730173 0.839036 2.595604 0.214565 -0.055588 -1.942699 0.019697 -0.107725 -2.107378 -1.821095 2.151717 1.852922 -1.978171 0.197323 -1.529949 2.202790 -0.207856 5.105862 0.842151 -2.824046 1.452937 -0.699319 -4.682201 -2.491610 -2.444960 -0.114163 1.643462 -7.456795 -4.105340 -1.743329 1.856816 -0.513475 -4.244133 2.320923 -3.197167 0.732460 2.314305 3.396383 2.951415 -4.763931 -0.208111 8.853882 -5.970215 5.729175 -0.733406 1.421786 3.143919 4.109335 3.684363 -2.452234 -4.167023 -5.024406 3.957734 1.191879 -4.677158 -1.642150 -2.632415 5.205422 -1.298651 -6.896343 -0.105636 -3.936963 0.206963 1.808787 1.419233 3.631834 1.398897 1.557985 -5.940537 -0.213810 -2.413499 -2.685959 3.021280 -0.881938 1.578656 1.782806 1.553765 3.281360 0.453740 -1.531503 0.448460 -1.764815 2.116857 -3.884614 0.364814 2.308667 1.941550 5.470390 -4.306452 0.139495 0.182033 -0.422196 -0.540480 1.025854 -2.511434 0.036875 1.808740 1.772575 -0.488584 1.443340 -0.469717 -5.835908 7.563616 0.824892 2.475721 6.042080 -0.012494 -4.973459 -2.756469 2.503361 5.491585 -3.256512 3.432142 -3.561687 -2.733963 -0.692365 -1.241013 5.945713 -0.418481 0.125726 2.885685 4.216216 -1.790767 -0.141671 1.446132 -0.553885 2.937580 -2.792635 -0.306823 -5.559531 4.181171 -0.067062 -0.257847 -3.592324 -0.855584 -4.285841 -3.769090 5.450295 -4.397158 -1.847870 -4.689752 3.435789 -0.658414 -1.069468 1.075936 -2.509476 1.465180 3.169737 -3.086857 -4.252616 7.006237 0.502499 0.404538 5.756885 -0.281762 3.681438 -0.862527 0.931595 -1.079616 -3.407811 -0.919306 0.907573 -4.818121 -3.743737 -1.432107 2.583748 -1.546288 2.391655 -1.279452 1.006823 -2.822048 -0.785097 -4.593187 1.225782 -2.796444 -0.395546 1.604218 3.420400 -4.181575 -1.631830 2.021106 -0.307156 4.786973 -1.466003 -2.736193 -0.219758 1.287518 -0.839236 -3.016799 -0.849622 -0.435736 1.345431 4.858193 2.369628 5.928052 -2.084664 -1.672226 3.800294 -1.128758 2.389333 0.003564 -1.567287 -0.805799 6.357012 -1.774962 -1.604807 -1.501354 4.386793 -0.011385 3.454240 -5.967346 -2.950983 -2.722033 -0.761440 -2.822204 -2.534485 3.601748 0.022267 0.197035 4.151970 1.595325 -0.447314 1.136338 -0.971817 0.916182 -5.049807 -0.642055 3.065150 0.682172 0.845638 4.611085 -1.264407 -0.882717 0.692926 2.209787 -2.054745 5.351784 3.029259 4.799884 2.445608 2.304284 -1.666365 1.833459 -4.357799 -0.232752 -0.492826 5.287546 1.232939 1.522005 -3.725387 -4.784529 -2.719591 -4.665105 2.812954 -2.947771 1.665824 2.320163 -1.285837 1.017899 2.331053 -0.130334 1.690186 -0.658589 1.670067 -5.879848 0.376063 -5.243089 4.390903 1.815915 -0.014283 -1.279177 -0.761335 -0.655768 2.834233 -1.872226 2.277058 0.117982 -3.154102 -0.723675 2.787562 0.366814 0.270574 -5.230036 1.412174 2.889243 4.097971 -3.728526 -1.187178 -2.651739 3.122712 2.187788 -1.889406 -5.068426 -0.369575 3.301634 -0.960035 -2.917725 3.197247 -2.577029 -0.212665 1.464418 -2.478272 3.335313 -0.978520 1.242604 -0.658279 1.062227 1.065333 -2.980070 -0.797836 4.784233 3.911459 -5.544311 -2.781985 6.864705 -3.506141 2.202246 -1.929338 0.527598 -1.220328 -3.094096 1.148340 0.696746 2.279560 -1.285041 0.802332 0.978283 -4.789204 -0.616500 2.777514 -3.250185 -2.617206 -0.363536 3.677799 1.279673 2.835419 0.897218 2.741078 -3.197570 -1.036760 -3.135165 7.910013 -0.739186 5.214241 -0.573725 -1.792483 -1.554020 -1.891563 -4.016290 -1.927437 -1.836873 -0.930859 1.229688 -0.359751 -0.062912 -3.698005 -1.441837 4.025437 -2.362409 3.547366 1.372233 -5.780535 2.553290 1.685176 3.112648 -3.054972 1.042994 -2.242013 1.537357 2.875363 -1.282616 -1.115512 -0.791643 -2.460272 -2.144362 1.346376 -0.667490 3.151138 2.890295 -0.749351 1.382553 2.814762 2.196029 -2.065803 -5.625437 0.759547 0.366560 1.966059 1.755902 -1.823640 0.781847 2.520342 0.145812 -3.762144 -3.519258 -1.163314 0.682854 0.461570 -1.223892 1.123347 1.239283 -0.658838 1.147407 4.366741 -0.012686 -1.768383 -3.279035 -0.964876 -4.815416 2.806571 2.257809 0.384121 0.821265 2.976897 0.890445 0.492040 -0.032850 -3.796138 0.165229 -1.812972 2.146236 -5.435934 1.023367 1.054387 0.909867 0.783013 -1.115208 2.830893 -3.059168 -0.960449 2.779240 2.060837 0.074579 2.011815 0.145747 -1.540089 -3.460882 4.151517 1.373362 -0.672252 3.376746 -0.383742 -1.886567 -1.823486 3.593445 1.024101 0.677737 0.944099 3.076975 -4.560539 -3.912543 1.783525 2.978834 2.371406 4.153938 0.571073 -2.539380 -2.294526 3.116256 1.999085 3.178969 -2.411789 -1.298349 -2.617802 1.261958 0.630579 5.708754 1.361090 3.686546 3.627024 -5.748091 -3.265638 0.207114 3.231187 2.630830 2.473392 1.363564 -5.471119 2.698524 3.670429 0.702911 2.286495 -1.389321 -2.237867 -1.781325 0.003643 1.671923 -2.570847 3.629764 1.766869 -1.746650 -4.877659 -0.652269 -4.486844 -0.535420 2.968774 4.791088 -4.482533 -3.126117 -0.615891 -2.646753 4.295985 -4.009430 -4.859540 -1.865801 -3.284426 1.010444 2.170862 0.055062 0.577982 0.622279 -0.901317 -2.810540 2.586949 3.756637 3.089089 2.858354 1.083213 -0.596543 -8.026948 -1.848458 -2.278648 -0.660375 1.316772 -2.010689 0.979666 -0.657445 -4.230460 1.698872 0.720785 0.576033 0.555033 -2.943764 5.238844 4.191381 1.674423 3.354629 0.904706 4.646177 0.048464 -2.026064 -3.583544 3.806094 -0.532872 -2.240252 1.929240 -1.654182 0.613997 -1.365946 4.254057 -3.624315 -3.211478 4.818012 -1.457425 6.080451 3.403270 1.418875 -0.135116 3.240326 -0.828706 2.503729 -1.972352 -6.822562 1.456221 -2.493175 -7.489834 -2.692778 1.267166 3.330182 -0.771166 3.546940 -1.829482 0.206300 7.294114 2.197042 -1.881572 -3.371929 -6.350126 -1.799789 3.101944 -4.814653 3.516245 3.333297 0.040379 -1.407690 2.188642 -1.930089 -2.168086 -0.448733 -0.151927 1.649006 1.578073 1.737998 -0.092940 -1.983954 -1.691935 1.849242 -2.434307 -3.909969 4.065027 -1.853375 0.503415 -1.349238 -2.870534 4.895057 -1.759795 -3.123871 -0.728717 2.815823 2.656913 3.857674 -0.125642 -5.158255 2.727530 0.238500 -2.009213 -2.003276 -1.684272 4.477449 3.759037 -3.877853 -2.870133 4.608175 0.153981 -0.134431 1.513715 -0.221706 -1.795904 3.834730 -2.178715 1.757197 -2.464924 3.625834 3.163670 0.788419 -2.694253 1.477867 1.037262 -6.439632 1.438628 -0.622473 -2.301638 0.030743 -3.506377 -0.718303 2.802986 2.294632 -4.951586 -2.509445 1.673779 -2.311634 -5.945545 0.307438 -3.367098 -0.915383 -2.649596 -0.132844 -3.670923 4.023505 -0.158444 0.010911 3.530432 -0.514617 3.260587 0.709978 5.880897 -0.400658 3.021823 -4.587000 5.104927 -1.548162 0.404599 -3.474686 0.801914 4.321078 3.783979 -2.241243 0.415642 3.812031 1.529136 4.566380 -1.670708 0.585326 0.556974 -5.112628 1.127467 -3.159919 -0.854542 -0.538852 -0.400027 2.055467 5.421300 1.158817 3.201690 -6.553966 3.701206 0.798375 -5.130200 -4.409620 1.632468 1.630295 -3.835654 0.413747 -2.787568 -0.612091 -0.659523 -0.660045 -2.342644 3.402974 -2.411502 -1.670555 -5.287128 1.004353 -4.932078 -2.568798 5.007718 0.804881 -4.431662 0.243004 0.130108 0.084063 -2.497974 -2.189660 0.001845 -0.176142 -5.477395 2.747973 -1.633729 -3.095844 -0.943689 0.893356 -1.003297 -1.039705 2.675070 -1.161609 -1.212044 -4.745933 -0.537492 0.954334 2.270265 -3.484446 0.924999 -1.023115 -2.587607 -2.623419 -6.283670 1.629628 -0.772281 -4.281134 0.355941 0.189389 0.385487 -5.366036 -3.053395 0.883228 -3.473759 6.066824 3.221418 -6.077910 0.632909 0.111778 1.720497 2.472376 -0.256431 -5.212857 2.733722 -3.376220 -4.711793 -2.987274 2.603328 0.394284 0.360441 4.156457 -1.534911 2.187040 -0.290992 -2.486951 1.075836 2.138072 -1.757671 -1.449909 2.256960 2.080835 -2.156356 1.641621 -0.565356 -2.430166 3.141878 -1.194612 0.839337 -3.153262 0.985343 -0.980986 2.446923 7.455772 0.928958 -0.822531 4.962501 -3.328182 0.646260 1.465268 2.890023 4.319062 -5.450584 -4.012767 5.597282 -1.338607 0.698063 -5.312678 3.141559 -0.765351 1.067192 -2.615623 -0.479269 1.240659 3.012634 2.449860 5.987594 1.458633 5.355204 0.773302 2.453330 -1.954828 3.463014 2.708503 -1.298755 0.852606 -4.477969 -0.069205 1.638845 1.119130 4.868991 4.253042 -3.005401 -2.059784 5.237206 0.577776 -3.539450 -1.338897 -0.852988 -2.272323 -0.131711 -1.814229 -3.192494 -2.753887 3.347768 -0.655507 3.196884 -2.567888 -1.762891 -5.160676 0.830218 -3.300390 0.672442 -1.304008 3.131508 -0.701566 3.445554 1.037958 -2.712042 -0.814233 -0.876532 -1.028290 -2.769347 4.816868 0.764883 -0.915397 -0.554486 -4.044539 -1.796585 5.239335 -6.790395 -1.808467 0.111039 -1.285040 2.678085 -3.550789 0.936955 -1.081745 2.516547 2.389432 -1.892299 0.321426 -7.008483 1.146677 0.634107 -3.479088 -0.982582 -0.848907 6.973521 0.579358 0.480364 -3.011495 2.621966 0.144665 -3.865413 3.686290 -0.572751 1.535447 -0.275493 -3.897675 0.466391 1.640644 1.297468 1.144614 -0.932407 1.533761 1.259343 4.601511 -5.347451 -2.861696 1.015097 -4.771492 3.147899 4.223582 -1.513289 -0.711036 -2.462483 -1.813647 -2.143134 -2.496094 3.369767 0.950969 3.150467 1.399207 -2.252080 -0.070374 3.044023 -5.154931 0.898635 -1.381813 1.039674 2.820540 0.613269 -0.954252 -0.873430 -0.946643 4.649341 -0.207942 1.810536 5.309484 1.101546 -0.562394 1.137963 -1.147445 0.642303 0.050677 -1.664119 4.208329 -1.847481 -4.787657 3.215047 -8.532487 3.805741 -0.948263 -6.063236 2.574327 3.776455 1.997932 -0.004803 5.214228 1.333284 0.800800 -4.961014 -2.521746 -2.678230 -0.771302 -0.716252 3.232746 4.901932 3.048043 -0.690826 -0.419834 -0.755787 2.497939 -5.758381 4.146396 -0.158843 -1.456025 -2.748397 3.149208 -2.829289 -2.539801 2.995771 0.969679 2.686251 2.519183 2.435820 -1.325763 2.236697 -1.868446 3.622567 2.678831 -6.626534 3.759620 -0.559135 -0.267731 3.325558 0.741191 -2.454968 1.478274 -0.577394 -2.059094 1.356290 -0.619560 -0.304243 -0.259429 7.293932 0.978145 6.418710 -1.678847 -4.788416 -0.712792 0.664049 -3.464666 7.824388 -2.401256 2.775962 2.534350 2.525929 -5.146472 0.529435 0.077427 0.117533 3.431951 1.634997 0.014746 2.176481 0.048587 1.955859 2.966169 2.487430 -1.321568 0.830952 0.884426 0.785318 0.462220 0.394408 -5.028959 3.166005 6.294852 5.607759 3.183457 1.332165 3.432538 -6.267170 3.350909 -5.021372 -4.605150 1.538414 -2.102798 -1.063547 -2.434370 -0.004046 2.283940 1.548178 3.516015 -2.322566 -1.798869 0.451144 -3.518090 -1.345715 0.349812 4.086425 2.066814 0.334961 0.845355 2.608985 -1.653724 -3.430877 3.984088 -5.869851 0.656268 4.245161 -1.534281 -2.726756 -0.590765 3.346754 4.592373 -0.069699 -1.317059 -1.044547 -0.861431 1.008160 2.283887 3.675415 -2.063885 0.538552 0.734207 -6.719579 1.244599 0.548946 -6.776740 -1.964706 0.225167 -1.091063 0.871137 -1.089452 3.204229 -1.063809 -4.415008 3.627099 -0.999476 2.789570 2.316463 -1.503031 0.944242 0.608761 0.539289 -1.575486 7.360851 0.986010 2.908501 2.647685 2.520495 2.092674 3.281736 2.599033 -5.071070 -6.357588 -3.547476 2.085071 -3.953859 -5.074595 -0.261055 -1.553600 2.697889 -3.135974 2.875447 6.066002 -2.076503 -1.360049 4.110626 -0.324427 3.340943 -1.250463 1.096429 -2.778410 -2.406270 -7.467824 2.412697 1.627747 -0.123664 1.976439 -1.398425 -2.578577 1.362188 4.286420 -0.157403 -2.240775 -1.611075 -1.071968 -1.067461 4.313097 1.679647 -2.045853 2.179710 -1.513916 -4.900075 -0.989769 5.997301 -0.422023 3.439037 1.543483 1.965995 -3.842878 0.121024 1.446482 0.749881 -5.018190 -2.019566 -3.439019 0.892300 2.358183 0.269040 -3.258460 -4.294475 -1.699915 2.047549 -2.405597 -2.066155 3.795796 5.426844 6.873551 0.589221 2.549585 0.229246 -3.829850 -0.076501 1.086635 -2.944299 -0.445303 -3.747282 -2.607980 6.805210 0.210961 0.492157 -1.394921 -0.889018 -0.601788 -0.987977 -1.026855 2.678560 -3.241669 -0.325795 -2.044976 -3.474756 2.349337 -0.107904 1.870605 5.416042 -2.419077 4.007708 -0.496412 -4.103880 -7.488433 -1.541782 0.318573 0.144399 -3.332796 3.458057 -0.412113 0.052161 -3.782110 -3.460516 3.859851 2.975376 -0.950397 -2.226329 1.931625 1.883418 1.307401 4.485275 1.870138 -1.972111 -1.479860 2.337557 -1.975363 5.210083 2.461181 -2.988977 -0.451577 1.500918 -0.584132 0.911104 -5.048443 -0.363797 -4.148810 0.290604 -1.583579 -1.445223 -2.925065 1.350158 1.158080 -4.322534 3.499167 2.960871 2.559871 5.913331 -0.408516 3.614095 0.929880 0.633862 3.960589 -2.660937 -2.087757 -0.025824 -5.577682 -6.421524 3.224722 2.714645 -1.029777 1.237182 3.520073 3.331415 -6.445231 -1.985015 -0.370642 -0.843863 2.855725 0.770566 -2.471518 -1.686033 -1.358981 0.636292 1.714099 -0.556646 1.618409 1.609144 -1.896416 -1.515552 -5.269900 -2.943540 2.534378 -1.676127 -4.722038 -3.765004 -1.084218 -2.662207 -4.431472 -0.280469 -0.332882 5.314970 1.211974 -2.210185 -1.782764 -1.776088 1.754956 -0.945693 4.340027 0.214879 -1.283504 2.928722 -1.268706 -3.187004 2.233930 1.482090 -0.439129 -2.271042 -5.273868 -2.611336 -6.370169 5.241810 -3.199138 2.910348 -0.759330 -0.118073 -3.595429 0.229473 1.423538 0.866170 -1.439241 4.700299 0.380101 2.451460 -1.775137 0.188716 -0.290010 3.037069 0.609392 2.415813 -5.208710 -2.286556 1.402751 -2.771902 -0.852130 2.763356 0.742308 -0.740352 -0.538008 -5.747187 2.054396 1.121992 2.759082 2.332569 0.470244 2.799325 0.571462 3.928288 8.493791 -0.484681 -0.110117 -1.913601 -1.604643 5.568637 -1.314117 0.888376 0.855899 -2.512798 -5.314749 -4.880874 0.989556 2.278361 3.700058 -1.601623 4.811186 -2.793105 1.442549 -1.133056 2.176567 -0.328295 -0.188487 -1.658838 0.756703 -3.112056 -2.532973 2.964602 -2.998725 3.046176 -2.746383 3.518275 -0.603150 1.306058 -0.704668 -4.410640 8.858448 0.143988 2.118691 -3.488894 2.625033 4.106496 1.290029 -2.592246 -0.383685 -2.321621 -1.714275 3.663976 -0.571937 -0.390985 -3.736024 -6.471972 -0.086205 -0.643672 -0.660390 -6.050602 2.451445 4.362703 -1.534357 0.660911 0.466580 2.147808 3.478130 0.964940 0.975518 2.474087 -5.076835 -2.415405 -0.777343 -2.738207 -0.684669 -2.424758 0.224477 2.243681 0.264229 4.179677 -2.072965 -1.662587 3.917248 -0.620725 -2.366411 -5.896449 2.325327 0.097983 3.636308 3.297287 3.136902 1.182767 1.278987 2.746928 -1.707899 3.498788 0.999586 0.932624 -0.834771 -0.539447 -2.188002 -0.232330 1.386456 4.867803 -3.109180 1.545817 -2.156434 1.961663 -0.476879 1.222590 -2.682694 3.340655 2.965087 -0.727783 4.837983 -6.760199 3.469571 2.591702 -3.373183 0.870384 5.998383 1.895149 0.123304 1.888271 5.598883 0.725397 -1.223222 -2.869036 4.651780 -3.569306 2.645389 2.173873 2.135068 -1.529872 2.617568 2.244365 -1.818229 0.021190 -3.521960 2.388100 -5.332737 -2.545998 -2.130058 3.647376 3.283328 -2.334998 -1.609539 2.547090 -1.646546 -1.448362 0.110689 0.079508 -1.685317 0.617630 0.777316 6.177164 -5.753904 4.591621 1.847500 -1.996379 -3.610526 0.356875 0.205474 -1.758522 -1.551397 0.944306 -1.106291 -2.492579 -3.890144 0.231871 -0.083749 -0.041780 -1.720793 -3.070199 3.019284 -1.125231 2.719859 0.313800 2.156962 0.172764 -5.315945 -0.904453 -1.228081 0.440998 0.309266 2.143673 -3.163123 1.241560 -0.758485 1.113547 -3.176211 0.815615 2.460235 0.370449 0.487126 -1.246316 2.564145 5.706342 -2.604376 -2.058881 -3.830289 2.210371 -2.055619 -3.775859 0.470270 -6.859557 1.795038 -0.324030 -2.039499 0.120982 -1.830931 2.502277 3.793275 -4.124637 0.409210 3.575021 -0.487247 -0.508890 2.918161 4.453857 -1.685741 -1.386703 0.731909 -1.508056 -1.577301 -1.517774 -1.331520 -1.119553 -2.654127 1.659674 -0.490089 -2.180470 0.031989 -0.019700 -1.807719 -1.664812 2.146016 0.026412 1.817127 3.466073 -0.514553 5.097751 4.181649 -0.003884 -1.991322 -0.181078 -0.236022 3.073721 0.546126 -6.542209 1.836539 -0.201498 -1.809520 -0.012775 -1.991829 -3.219705 -2.833547 -4.162306 5.639047 2.545360 0.782073 -2.626039 3.503137 3.044196 4.091622 1.277087 1.086602 -0.960580 -4.310907 -2.008191 1.510948 -2.785813 -0.449832 -0.218357 0.335640 5.956073 -0.379201 -3.721406 -3.397081 2.338369 3.631160 -4.568600 -0.050223 0.172359 -5.091620 -0.589375 -2.715235 1.249052 -1.051287 -0.633195 -3.699607 -1.373131 -3.020920 -4.506079 1.211676 -0.909739 1.195618 -0.575068 -0.173644 1.868882 1.317802 -0.813645 -0.934742 -4.736559 -0.388255 -4.326664 3.542291 -2.649897 1.592656 3.370654 -4.185947 -1.618727 0.046497 -0.283191 -2.324696 -0.566429 1.665799 5.081245 -4.669852 -0.015662 -5.833574 -3.356376 5.716148 -1.016617 -2.465581 -3.817256 2.633582 2.450816 5.176802 -2.941308 1.137367 0.825411 -0.951094 -2.952926 -3.031343 0.786360 2.374536 2.052731 -3.311542 2.760058 4.226084 -1.902558 -0.048944 3.213468 0.856165 4.300554 1.781631 -3.629277 -5.128012 -0.989129 -2.890169 2.455527 0.027183 2.397742 2.467424 -1.055642 -2.465975 -2.569186 -4.569400 -0.669645 -1.032477 3.026809 1.042297 1.434408 -1.980064 9.254173 5.754026 -4.341144 -0.288380 1.423492 -0.660251 2.675457 1.987638 0.211603 3.794836 -0.011440 -3.292643 2.183765 -0.288985 -3.909213 0.024588 0.138273 0.454363 0.347431 2.424908 -3.169821 -2.817393 1.231223 2.750431 -1.530016 -1.244124 -2.615700 -2.019310 1.791915 1.417550 -0.686780 1.274060 5.029652 0.988678 -0.968909 -0.932154 2.673248 0.126822 -0.036628 -1.816815 -1.458210 -1.174961 -0.944354 0.946217 -1.126120 2.783294 -2.863323 3.267265 -2.697234 1.338265 2.803235 4.088087 -1.832124 2.215467 5.601611 -2.388080 -4.068282 0.009011 -0.266313 -0.402785 3.173367 -0.537223 -0.130089 -7.223769 -2.216258 -0.552716 4.457756 -1.709561 0.726340 2.970500 1.237396 -0.671155 -0.821267 0.689296 2.111311 -0.178406 -5.303006 2.844095 2.387547 0.370308 2.105116 -1.843299 -1.302600 -1.268573 -1.160609 2.514908 7.224110 2.893178 1.208032 3.177599 -2.541919 1.202840 -1.517293 3.834414 1.208928 -0.556505 0.216196 -1.431280 -8.426402 1.703112 2.673711 0.519394 -1.233982 -4.097004 0.817277 4.179957 -0.227732 3.412743 4.437142 0.674533 6.432761 -3.689381 -1.200970 0.174535 1.634247 -0.392764 1.267719 1.565932 -3.687512 0.655558 2.449048 0.039819 1.731629 -2.128840 4.105482 1.658414 3.440285 -2.404816 5.124243 -1.064111 2.816642 -1.361474 6.187250 -0.207078 -1.796777 2.288971 0.112449 0.073840 -0.003876 0.029837 -5.217293 0.967197 2.853452 -2.973186 -2.453727 -0.090246 -3.432677 2.537943 2.039357 3.884445 5.207914 -0.602840 0.077408 1.633641 2.943282 0.387371 1.811439 -3.695542 -1.047914 0.997948 2.758584 0.450098 -3.242291 -2.397151 3.592997 -2.469357 3.468149 -2.703250 -0.130193 0.063890 1.967580 0.016102 -2.013738 0.221531 0.340637 0.249378 -1.485343 -4.929572 -0.461785 -0.516541 -0.338709 -2.087854 -3.479563 0.992374 0.859360 2.691417 4.145539 3.614786 3.466945 -6.034558 -3.269571 3.936972 0.881436 -3.014327 -2.535809 0.177246 -1.321368 4.359196 0.085338 -1.797426 -1.542518 0.705289 -2.986128 -1.054673 0.757626 0.730495 4.391612 7.718599 6.995249 -1.048656 -4.381771 -3.912053 1.340043 2.127631 1.476215 -0.237656 -8.540715 0.807960 -1.194032 0.446866 3.488000 -0.777692 -1.674670 2.563710 -1.196388 0.809768 0.002740 -3.625713 0.578105 5.839680 -0.140418 -3.540870 -3.000389 -7.869544 2.081011 1.119320 2.846151 -1.010875 1.586311 -1.437134 2.371365 5.249440 0.424501 1.977262 -0.026324 -3.337068 -2.824688 2.582827 0.180485 -0.039426 0.143066 2.492109 0.570668 0.554544 2.242696 -1.975369 -3.629944 0.486613 3.943159 -3.916030 -3.224797 -0.753299 -0.516859 -0.495557 1.271712 -2.454178 1.680071 -2.096145 -1.474210 0.329527 0.009888 -1.730461 -7.026116 -0.432875 5.035253 -1.303632 6.463706 1.927987 4.053570 -0.052263 1.607931 2.947194 -0.080823 1.618480 1.379360 3.049046 -4.415583 -1.901714 1.930996 4.998509 0.579917 -4.815817 -0.103077 -3.628639 0.510729 0.093996 1.642034 1.628799 5.417917 5.273719 -0.686465 1.186162 -1.036873 2.397904 -2.033533 1.726754 -2.061759 -5.162970 1.397230 -0.667040 1.305885 -6.253887 0.320522 2.350669 0.180743 0.418953 0.318417 0.457286 -4.938047 -4.308255 -0.194010 -7.910850 0.584362 2.232505 0.544256 2.782608 -1.033172 -2.146736 -5.810615 0.011109 1.428795 -1.110667 1.096742 3.176538 1.439248 -0.303395 -2.257451 -2.216340 -2.482625 -4.294340 -0.136572 -2.035951 -5.079222 1.434525 -0.549334 5.216428 -6.674306 -0.061089 5.301020 -1.172738 0.957177 -1.431786 -2.918936 1.145810 -1.285193 0.892721 -1.545820 -1.219378 -0.720534 1.055535 -0.938966 -2.773263 2.937393 4.305620 -3.539621 0.717534 -1.378034 0.717925 -1.572646 -3.437984 -1.149187 2.409074 0.419378 0.594906 2.251561 0.315970 2.128108 5.264300 -4.781157 -4.181571 -5.802672 4.071283 4.911570 4.050611 0.335711 0.827322 1.187257 -2.673814 0.608114 1.532754 -4.524955 0.042017 -1.605239 0.904197 0.719923 2.370261 -3.291378 -1.050077 -2.737604 1.314324 2.596509 -3.318459 4.679106 11.383920 1.008119 -0.554590 -2.619820 -0.455353 -1.005657 3.866801 1.326551 -4.191299 0.692774 -0.686170 -2.339724 -2.445531 1.132591 1.010017 0.973836 1.249648 -0.391017 -0.240858 -3.913433 1.914574 -2.424733 1.482315 -4.149710 2.199241 -1.570490 -3.042375 -2.612880 -2.477326 3.285321 0.896498 0.942627 1.135042 4.765306 -1.114408 2.554420 -3.691206 -1.519013 0.180850 1.827187 -2.002489 -5.326076 -0.669400 -4.097812 7.350934 2.383511 -1.412721 2.774641 -2.917508 -0.258236 2.733443 -0.008064 1.781791 -4.169836 -1.099396 -2.724469 -0.710206 -4.396770 -0.424723 -2.171684 2.083546 -1.676571 -1.156860 0.862524 0.671061 0.545604 3.926565 1.434749 1.432655 -2.474051 -0.207644 3.172097 0.507234 0.367133 0.225137 -1.413194 0.840752 -1.291014 4.301794 1.555579 1.456521 1.492437 1.375340 -0.536561 1.133444 2.504093 -1.620324 4.040222 -0.126083 2.027255 -1.930479 2.008300 -3.787920 5.701555 4.722561 4.285649 0.239936 -3.100499 -2.406914 6.684987 -2.166469 -0.092742 -2.140372 -2.967959 -2.075326 1.703192 3.234104 2.654503 6.116474 0.429001 4.433457 0.095169 -0.037885 3.168789 2.213009 -3.428434 0.799681 0.831659 -2.516464 -0.436814 -4.088486 -1.486274 5.912491 -2.059772 4.271668 1.767598 5.804037 -7.610970 0.640275 -3.416872 0.433576 1.865840 -1.943800 -1.108498 -0.590565 1.767283 -1.975832 3.361586 -0.793202 -2.345471 -1.873095 -1.509551 0.576575 0.245141 0.282031 -3.143089 1.140720 -0.624628 3.160379 -4.796095 1.435186 3.000791 -0.924288 -0.645510 -2.507259 -5.639425 0.558984 1.917617 -5.494529 -4.761007 -0.242224 0.256293 -1.639721 2.093515 -1.728229 0.540042 -1.307107 2.698912 0.205760 1.796310 -3.888845 2.241764 -0.058694 -3.634027 -1.487933 2.175810 -1.695893 0.441493 7.651117 -0.417134 -3.817287 0.321058 0.233588 -1.942884 -2.239437 -1.886675 3.983008 3.509152 -5.557781 0.892562 -1.302813 -0.956159 -1.252858 -5.073254 1.310130 0.995189 -0.512678 1.611383 1.248412 -0.393421 3.205597 2.552735 2.194829 -0.197377 1.749156 3.372604 -6.400307 1.785593 -6.165577 2.112193 1.501159 5.058459 1.083513 3.026486 -2.395885 3.563559 -3.041953 -2.828991 4.287903 3.588020 -0.140172 3.804146 -3.720051 2.735682 -1.920776 1.911548 3.006661 -4.868879 0.064998 -5.401408 -2.548698 1.213934 -1.174933 4.763278 0.437295 -4.347527 3.953562 1.241464 1.130324 2.147593 1.737781 1.869380 1.567303 -3.917866 2.075538 -2.409452 -1.971920 -0.126429 -0.124714 -1.576658 0.577398 0.697744 -1.012619 0.816071 2.558555 5.866858 3.170098 -2.543887 5.314891 2.547676 -1.412515 2.031821 -2.224238 0.170976 1.768588 -5.589011 -0.892778 2.546088 -1.068212 1.073730 -2.855174 -0.075625 -0.110419 1.730006 -0.287141 3.253643 -2.529197 -3.562298 0.514752 -5.130268 -2.680947 -4.499318 3.629039 -2.200039 2.142256 5.857346 -1.974529 0.408078 -1.743086 0.205756 -0.289085 -2.491152 -0.096673 1.702224 1.788359 -1.803222 0.268562 2.054256 -5.633262 2.384854 -0.162071 -1.809744 2.057304 3.637996 1.706991 -0.424278 1.516285 1.357692 -2.847104 -2.594464 -6.136500 0.108559 -0.101819 -7.217646 4.986318 -3.057674 -1.906132 0.051291 -0.054460 1.864612 -2.502485 5.374937 -4.549394 -2.002550 0.039308 1.624174 3.023210 2.349873 -1.360016 0.980045 4.407077 1.985413 -7.849415 0.310050 -0.013771 -1.735519 -1.701007 2.177442 -1.498505 2.630329 -4.957455 3.281254 7.722132 -4.285808 0.214530 -1.971279 -1.355758 2.263632 5.033961 0.836670 2.596490 -6.538448 0.488269 -0.249951 -2.367943 -4.271545 5.262367 1.211792 -1.931598 3.961844 -3.711369 -3.119874 2.264804 1.667522 -0.438816 4.923606 1.095203 -0.337320 5.029447 0.614510 2.186233 1.331847 1.256916 -2.491366 -7.711465 0.772865 -1.542972 0.437593 -5.125729 5.117619 1.113841 -2.177426 1.809159 1.353640 -0.732750 1.000679 -1.139892 1.032018 0.655100 0.799927 4.353767 -0.048801 2.032203 -1.973190 1.985718 1.479659 -2.573994 -0.436159 -4.126766 0.320084 -3.448052 0.700754 2.400607 -1.472224 2.781040 0.643192 -1.043917 0.850298 0.385311 -3.310949 -4.894035 4.863713 4.167713 3.737002 -0.276504 0.214461 -1.408178 0.450150 1.674373 -0.910296 2.727252 -2.832232 3.648720 -2.303247 -1.838475 0.000472 -2.076389 0.128910 1.829517 -1.880021 2.471123 0.226300 4.251782 3.459221 1.128527 -2.546401 1.405865 1.076871 0.853724 2.237793 0.160908 0.468242 0.630958 2.509610 2.094391 -3.853445 -3.188172 -0.963100 4.651153 -1.550093 -3.005674 -2.354346 1.998514 -1.779203 -3.414130 0.469611 4.066491 -3.548726 4.662630 0.229552 0.601112 2.208758 -3.686421 0.556577 -1.832729 2.162120 -1.771373 -1.551266 0.795907 2.596474 0.500095 -3.174012 4.491485 -1.660232 -3.082841 0.807825 0.486061 0.567017 2.183081 -1.617759 0.765071 -3.182161 4.768047 1.858185 -0.306948 -0.174503 3.599680 -0.390907 5.169479 5.838114 -0.331816 -0.210968 5.287046 -4.598618 -0.371706 -2.848229 -2.290732 1.580249 1.327542 -0.150389 0.078857 3.953154 0.082165 1.767819 3.090229 4.432041 0.171427 2.094642 -0.004798 0.058599 -3.805791 3.943661 -0.574888 -0.243289 -1.914518 -1.275477 -2.704839 1.307463 -6.367910 0.177940 -3.755600 -4.509031 -3.757303 -1.419072 2.598503 4.098929 0.079882 2.464474 4.019300 7.342050 -1.275500 4.121739 -2.393148 -5.585618 -3.189811 -1.342398 -1.296964 0.627566 4.457745 -0.932629 3.382011 1.236752 -0.693922 0.850605 -1.598106 -3.210752 2.555526 2.113554 0.426515 -1.389861 -4.563796 -3.679754 -1.652040 1.902822 -7.744158 2.715131 0.659092 3.171516 -0.814478 -2.506435 -0.262393 1.287320 -2.759792 -2.453639 1.206251 -2.323057 0.120414 1.851989 3.479745 1.211360 2.927476 4.433612 -5.354811 2.716512 -3.682893 -1.359167 -1.622542 3.944548 1.821813 0.003501 -1.427544 -0.916000 -1.003762 0.703903 0.118497 0.015486 -1.665328 -2.819313 1.427530 -4.416250 -0.166004 3.139374 -2.734989 -0.120582 -0.176530 -1.661123 0.379140 7.211477 -1.129117 -6.255797 5.605262 1.117961 1.112924 2.205819 -0.009589 0.374376 -1.634566 2.415851 5.369672 -1.236285 1.159085 -2.712617 -2.026770 1.770419 -4.428586 -1.937901 -0.136178 3.857672 1.875910 5.379931 3.023878 -2.601124 -2.194614 1.420222 -1.119076 2.312836 -0.122835 0.434660 0.766365 -0.842665 -2.406014 6.694158 3.510569 3.295847 -2.621123 1.874011 -1.941304 1.839630 -0.798451 2.726453 -4.984010 1.802658 1.653808 3.508949 1.081385 -2.681619 -3.897327 2.160739 -2.043773 1.932240 3.073746 4.890255 -0.731451 -2.025574 2.002935 -2.266324 3.239418 -3.181731 -4.349423 0.168378 2.128622 -5.073300 -4.411066 3.373153 -0.559429 3.405405 2.831005 0.955598 -4.311459 0.026368 1.652833 0.942274 0.456205 7.804461 -2.130452 0.761879 4.207678 -0.124157 1.539808 -4.766440 1.598983 4.870127 -1.231492 -2.373991 5.086802 0.920406 -0.644386 -0.891384 -0.787960 -4.301292 -0.081069 -0.144761 -3.723142 -3.063649 -4.192916 0.380730 2.032170 -1.879122 2.295048 -1.662276 -2.689135 1.323817 -1.089412 -0.967334 2.480001 4.053818 3.863910 -0.223522 -9.023355 -0.419748 0.747689 0.347867 -0.153770 5.349662 1.728507 4.072783 -5.514960 -1.088858 -1.773989 -1.943335 -1.946039 -1.918156 2.480261 -4.729757 0.121184 -1.834534 1.981659 -0.324146 3.248981 1.051688 1.109752 -0.694057 -2.397606 -2.314830 -4.206672 -2.038075 -0.132423 -3.725979 -0.961572 -0.708240 -0.271479 3.441479 0.898083 -0.907662 8.250898 3.276054 -2.324074 -0.464876 -2.528349 1.459174 -3.097899 0.871426 -3.032462 -2.305536 2.097056 -0.095108 1.821084 -5.972322 0.569460 0.321482 3.853206 -0.455750 1.361870 3.187899 -4.382529 0.065296 1.292390 0.817825 6.039268 -0.503749 -3.403810 0.772520 -3.066891 -6.291514 -4.381189 3.204586 0.990969 4.870101 2.801659 1.216910 -2.331922 -0.322705 2.773017 -2.104514 -3.879145 7.640101 -0.610952 0.264771 -1.752802 -1.417623 0.519029 -0.100089 1.706019 3.066986 -2.615149 5.724283 -0.776583 1.414535 0.781192 -1.397773 -2.920826 -0.972377 2.862546 2.414121 -1.522938 -2.751714 1.457332 -2.367940 -2.082414 1.411237 1.030546 1.191331 1.240071 5.046275 0.734862 0.702252 0.447687 -1.677826 -1.586823 3.827928 -0.490785 1.637387 -0.353648 -1.681811 4.171798 -2.237251 -3.595895 2.050354 -3.822270 -0.968003 -4.807358 1.631366 5.003293 -1.148442 -0.424818 1.357320 -0.396332 -2.108751 -0.469470 -2.504020 -0.392298 -0.298542 -1.814291 -1.420900 -3.025587 3.071218 6.033627 -2.139548 0.317221 -1.654414 -1.092290 -4.863074 -1.047238 -3.108015 2.779407 -2.900012 3.544987 -0.550081 -0.154738 -0.144894 1.319428 2.782341 -1.569770 -1.226113 2.604791 2.183877 0.146197 -0.095682 1.683473 -0.360464 -2.106272 -5.599871 0.492092 1.955299 5.394119 -2.627411 3.656736 1.528881 3.474211 0.875866 2.034940 1.524669 1.235082 -7.906038 0.630179 0.036402 -5.336016 -0.948011 2.583677 -4.517651 3.859540 1.339540 1.585282 2.997949 -1.147549 -0.676261 -2.860250 1.199002 0.758859 -5.027158 3.288320 2.718471 1.042525 2.840836 2.310501 -1.401516 -3.134926 2.617429 -1.773261 2.043544 -0.183297 2.064196 -1.563316 -1.075026 -6.329026 -0.150234 1.305523 4.763022 0.553725 -0.809510 1.778871 -0.062685 -1.878158 -0.335699 2.900857 2.571669 -1.078491 -2.239573 -1.649016 2.348817 3.660698 -2.527832 1.661290 -0.195144 -1.282363 -0.936638 -1.060631 -0.869334 1.077306 1.224663 1.480530 -0.239459 -5.225889 -0.536723 4.784928 2.238928 -3.348885 1.093087 -5.881793 -0.708925 -11.903017 -8.386257 -2.179186 -3.713575 -2.308838 -1.725310 -0.572019 -1.532587 6.206854 1.498449 1.202168 4.527092 -1.527992 -0.950327 -3.120074 4.459414 1.551953 -5.989552 4.359713 -1.943289 2.726622 0.191096 -1.806321 0.390992 -3.610549 -2.689672 4.631034 1.826027 2.018171 -1.913627 2.458011 0.333262 5.601956 -2.950852 2.826114 -1.438173 4.610103 -3.415044 2.511877 1.904896 -0.170427 0.081619 1.688007 -3.932392 -5.082365 -6.398068 3.555764 2.629692 2.506809 0.693676 -7.996238 1.246595 -1.314739 -1.490848 -2.054797 -0.245845 2.325239 -3.104221 -2.140099 -2.075317 -0.201529 -0.344979 3.064307 -1.039451 -4.165050 -3.252484 -1.038468 0.631923 -1.775598 0.209161 0.289494 0.679252 4.515301 1.814544 1.507763 -0.796177 -0.739428 -4.450061 -0.494188 -2.682306 3.072319 4.358426 2.241680 2.447765 -6.921413 3.496264 2.096403 1.401411 0.803011 4.132290 -4.922139 1.744687 -2.538618 -4.182959 -5.920935 1.866443 -2.001689 -5.099746 -0.393955 1.603924 -0.141482 5.309489 -3.047459 -0.481676 1.141683 2.772777 0.331150 3.449295 -2.514965 -0.043156 -2.012370 -1.813178 -0.109593 -2.361340 -1.845138 2.051547 -1.761659 -6.630197 1.490140 4.583577 0.313514 0.224114 0.131310 0.463432 0.404720 5.517631 -1.271567 -1.141656 -1.003810 -2.554352 -0.397017 -2.690976 -0.517274 1.249914 -0.575757 3.577013 -0.695660 1.518352 1.101220 2.597000 -3.386750 0.578676 0.268297 -3.379532 4.422104 1.603349 -0.057419 1.836165 -5.728988 0.946250 -1.734460 0.297622 3.646947 2.964817 -4.038026 0.532382 2.174164 3.629662 -2.844188 1.043073 -2.820942 1.597639 1.327042 0.988427 -1.023803 0.989020 2.904023 4.332753 -0.046399 0.015954 -3.715405 0.574590 3.810763 2.955807 2.564841 -1.278582 -0.482981 3.372695 8.041957 -2.622057 -4.075660 -1.712651 0.581895 2.348505 3.355845 2.852840 -0.769169 0.025456 0.231756 -0.115988 -0.576197 -0.827129 -4.284504 -1.520859 2.501451 4.111593 -0.016565 -3.454803 2.804014 4.207843 -0.014254 -2.062617 3.457028 -2.371108 0.220683 5.385166 2.630995 -2.897816 -0.523103 -2.157027 1.882277 4.823677 -3.296074 -2.463510 -2.002341 -3.017495 4.719579 -0.265513 1.931570 -3.724223 1.113053 3.021413 0.514819 2.194273 1.547459 3.490521 -2.222992 0.092254 1.698834 -0.574688 3.209811 -1.130125 1.269791 -0.616358 1.544999 -2.283637 -3.915813 0.277875 3.759555 -2.075464 0.360728 -1.464313 -0.750897 4.911835 -1.579400 4.297923 -2.088816 2.441784 3.994230 -0.395759 1.673084 1.035711 -2.530150 3.453294 -1.081834 -4.239732 3.556581 -0.748482 -0.056550 -0.248862 -1.900565 -1.281719 0.539757 -1.296454 -2.942799 -0.740250 -2.262803 -3.546705 0.585004 0.404632 -1.273961 -2.802882 -2.232688 -1.805030 0.171062 -1.855971 -1.635399 -1.390030 0.869923 4.512677 0.117238 2.058021 -7.493649 -4.347595 3.127153 -1.560843 0.456911 -3.605359 -2.406927 0.212379 0.061572 -3.741016 -3.694201 2.174879 1.958462 1.829407 -0.275948 -1.948701 -3.360962 0.584694 -1.851447 -5.637336 -3.199698 -4.537169 -1.716584 -1.573379 -3.202675 2.809703 0.472101 -2.828302 -4.285343 -3.940341 0.087695 3.175335 -1.223108 -0.932253 1.167706 -0.453904 -0.377523 -0.941475 0.550054 3.805591 -2.313403 -3.542123 -5.057607 -0.770510 -4.659484 -2.534237 -6.192941 3.983914 -0.143265 4.031205 -2.129646 1.934880 -0.305112 -0.512591 0.904623 0.133763 -3.636388 -3.061763 -2.742247 -0.576833 2.835564 2.233988 0.209611 2.208658 2.040902 -3.711373 -1.720879 -0.379036 4.795351 -5.293911 -0.598400 -2.436538 0.036183 1.801625 2.907314 4.189356 1.753636 0.078229 1.998047 -0.511489 4.742085 -0.266780 -0.255500 -0.282779 -0.133958 3.693741 -0.837423 1.153102 -1.028823 2.930198 0.706431 2.355415 1.893413 -2.043255 2.108174 -0.246172 -3.817039 0.219148 -0.134211 1.967397 -2.006605 4.039030 3.521723 -0.374389 -3.778731 0.175392 1.721959 3.145077 -1.141396 0.990036 -0.756743 3.483078 2.923348 -1.393504 -3.111470 2.744960 0.580746 2.450031 -5.457608 4.722348 2.134960 -3.215309 -2.686782 -0.905249 3.064721 -6.575805 -1.806351 0.047469 2.126369 -1.419726 4.265911 -1.848111 2.493098 2.103214 -1.879982 1.913424 -2.426878 0.048816 -1.974274 0.139376 -1.613811 -3.202459 -2.534245 3.278876 -2.695428 3.466035 2.769630 -2.723887 -1.987901 1.683000 -2.330000 1.458626 -0.994999 1.267101 -2.441874 0.072954 1.917189 -4.054040 0.265879 -3.750148 0.633536 0.451697 -1.411446 -0.975053 2.744224 -1.106227 -0.771079 0.882081 2.509989 -5.168158 1.146665 0.656782 0.690841 2.403391 5.592742 -0.510753 1.672605 1.335622 1.094886 -3.064439 -2.918371 2.754116 5.856303 1.599126 -0.088292 0.099852 2.202682 1.811747 1.116882 4.149727 -3.859340 -4.525261 -3.814686 2.064151 -7.663192 -2.890594 0.982415 -0.559697 0.212075 0.295729 4.107137 1.703913 -2.061968 -5.442551 0.455398 1.907585 -0.270008 5.160841 -2.899086 -5.273601 -4.319323 -0.346962 1.019329 -1.528464 0.673196 -0.847208 -1.832095 2.419738 -2.002604 3.559649 2.538439 -1.286259 -0.811304 2.848069 -1.161226 -4.743073 1.043108 -1.233138 -0.868287 -2.578376 1.560631 -0.418158 3.482039 -0.683624 -2.339985 -2.081281 3.605207 -2.613053 1.372915 -0.972022 -2.313168 1.881385 -0.393246 3.373620 0.743871 0.780847 4.506212 -1.763812 -1.258855 0.323733 1.825590 3.325189 -4.643325 -1.792360 -1.608458 -1.236913 -2.954549 -1.093705 -0.989647 -0.558066 1.658647 5.211145 2.650176 2.493757 -1.522212 -1.277336 -1.428443 -1.652481 -3.617310 2.174768 -1.770031 0.925464 0.949058 1.027881 2.808915 0.365115 -3.324720 -1.153776 4.180044 -0.136581 -1.886488 1.973453 1.804398 -1.765510 0.279521 1.734899 5.043507 -4.838993 -1.974195 1.708080 1.414383 -2.331354 3.246691 -1.012216 -4.001311 -1.457550 0.384053 -1.676755 0.255988 -3.447253 -0.744559 -0.589237 -5.774573 0.567521 -3.676051 0.791502 -1.249587 4.573714 2.271735 -1.465975 8.097655 1.080730 1.150114 0.547779 1.963296 1.652876 -2.523433 -3.926113 1.933478 -0.350440 0.027161 1.677977 -0.300179 3.823848 -5.836771 0.745558 3.696439 -4.274531 2.113073 -2.336364 0.379738 0.369637 0.268620 -1.450356 0.338973 -5.090202 1.336043 0.730201 0.791745 -2.932967 -0.560750 1.507793 4.969425 -1.320740 4.421990 -3.757782 -4.561160 1.369916 0.615644 -3.210171 0.722914 -2.914964 -0.008599 -0.046005 0.030891 1.685412 -0.594315 1.611377 -2.289957 -1.885563 5.555980 2.569231 -3.049139 -0.781946 -4.378268 -1.657750 -3.706592 2.002215 1.408830 -3.958675 0.965779 -0.947862 -2.415596 -2.314903 -2.478669 -2.249023 -0.208430 3.625414 -0.371602 1.790683 3.451030 -0.621377 1.256840 -1.270272 2.374774 1.683145 1.409352 -2.322565 1.692452 1.418302 -2.401379 -0.414565 -2.521005 -0.264537 -2.098177 -3.564440 2.453233 0.101761 4.144730 -0.117862 -3.523400 -1.064834 2.418254 0.038820 3.392424 -2.825655 -1.890036 -3.329247 -0.958903 0.656044 -1.727666 0.408338 2.334494 -1.276504 1.138369 -1.102431 -1.007143 -6.637088 -0.366978 -0.661248 -0.533418 3.323852 -0.665203 1.786103 1.594665 -0.435421 -0.561280 4.444470 -1.880664 -1.451491 -1.418373 -1.119658 2.668536 2.040202 5.482808 -2.592196 -1.757508 5.843757 -2.682941 -5.923922 -0.196948 1.337595 3.310152 -0.739135 -0.229166 -1.891870 -1.424168 2.416312 3.292697 -2.902899 -2.202387 3.757330 1.563164 -2.186194 1.553335 1.049263 -2.553421 -0.242891 -4.051284 -3.475842 0.477819 0.383192 -3.136363 -2.580023 7.143223 -1.084250 1.289962 -1.001684 0.957985 -1.053397 -4.718654 3.121271 -1.508047 2.684201 -4.875765 -2.083091 -1.793762 1.980393 -2.088968 1.725527 1.370344 -0.195770 1.924159 -0.259277 -0.352696 -2.416471 1.386718 -0.812561 -4.373424 3.652412 2.946728 -2.616375 3.393271 2.633958 2.523729 -5.283189 0.905307 -1.497783 0.408747 0.242543 -1.689348 -1.259385 0.941122 4.626281 -1.569551 2.287562 1.825760 1.717879 3.340131 -1.033025 -0.844552 -0.969985 -4.538906 -0.235601 -0.684554 -2.254066 1.909446 1.748003 -3.468730 -0.951368 4.442546 0.048910 -3.620562 0.420785 3.939577 1.683282 -2.050851 -5.406981 0.752748 0.415378 0.423307 0.111583 0.051951 0.507070 2.597107 0.400704 -3.451934 -1.390403 0.441819 -3.316225 0.807308 -1.339084 -0.806987 1.286018 3.016726 0.876112 2.532861 0.308480 4.046642 5.027060 -3.023099 -0.690791 -1.023262 -2.682538 -7.919443 0.210418 1.712978 -0.075282 -3.221336 -0.531086 3.361545 2.929793 2.471055 0.021488 -1.883520 -5.077298 2.914061 5.553331 0.883112 0.979394 1.098338 3.267484 1.002075 0.584344 0.009772 -0.338962 1.656123 -3.982315 -1.422387 0.391640 -5.089017 3.170946 -3.162185 1.462053 -0.640460 -3.913169 0.573307 1.857080 5.380845 4.527712 4.038130 -1.567809 4.339552 1.589947 -4.377082 -0.631031 -1.136194 -2.571656 -2.046668 0.191813 -3.240831 -0.729393 -0.530565 5.135438 0.609538 0.893987 -0.946777 -2.557067 -0.383756 2.886170 -1.510919 0.613127 0.575219 -2.659960 1.606707 -0.765758 -0.662358 -0.828100 -2.540378 -1.934266 1.890209 -2.028180 3.940866 1.319269 -2.083246 -3.442453 2.360969 1.752590 -0.508467 -2.372617 3.545250 -0.555406 -3.687501 2.170008 -0.474139 -2.104853 -3.682010 0.486964 -3.319372 -0.893768 -0.815134 1.122257 0.996968 1.069035 -0.760697 1.154160 0.814096 -1.201893 2.391362 -1.905791 0.373206 0.166117 -3.470634 -1.087799 0.519978 -3.182735 -0.858042 -2.768601 -0.288497 1.474415 1.284845 1.222611 -4.485889 1.873783 -2.374793 3.400115 -3.060760 -2.568682 -0.386977 -0.344902 -0.120972 1.458155 -0.712535 -0.406948 3.265992 4.615978 -5.269231 2.839978 -1.722886 2.364549 1.619581 1.232102 1.148411 -0.865462 1.400443 0.973411 2.352438 3.684281 -0.601203 3.420875 -2.666975 -2.056800 -2.141642 -0.391174 1.313761 -0.829504 -2.148351 -1.535560 -1.148133 -2.735714 1.034197 2.360255 