0.00000000000000001701 0.00000000000000005443 0.00000000000000008845 
0.00000000000000016255 0.00000000000000010886 0.00000000000000000005 
0.00000000000000006310 0.00000000000000005443 0.00000000000000002079 
0.00000000000000014735 0.00000000000000010886 0.00000000000000008734 
0.00000000000000005252 0.00000000000000010886 0.00000000000000002337 
0.00000000000000005507 0.00000000000000027216 0.00000000000000010225 
-0.00000000000000000920 0.00000000000000010886 0.00000000000000001749 
0.00000000000000002116 0.00000000000000000000 0.00000000000000007196 
0.00000000000000005821 0.00000000000000005443 -0.00000000000000002242 
0.00000000000000002248 0.00000000000000010886 0.00000000000000011940 
-0.00000000000000001573 0.00000000000000021773 0.00000000000000005196 
0.00000000000000011530 0.00000000000000000000 0.00000000000000009376 
-0.00000000000000003152 0.00000000000000005443 0.00000000000000010318 
-0.00000000000000000691 0.00000000000000005443 0.00000000000000006344 
0.00000000000000006506 0.00000000000000010886 0.00000000000000007341 
0.00000000000000016141 0.00000000000000016329 0.00000000000000005412 
0.00000000000000013669 0.00000000000000000000 0.00000000000000000410 
0.00000000000000009209 0.00000000000000016329 0.00000000000000008576 
0.00000000000000007213 0.00000000000000021773 0.00000000000000000880 
0.00000000000000005236 0.00000000000000021773 0.00000000000000004934 
0.00000000000000008266 0.00000000000000010886 0.00000000000000000327 
0.00000000000000000885 0.00000000000000010886 0.00000000000000012546 
0.00000000000000003362 0.00000000000000032659 0.00000000000000002367 
0.00000000000000005321 0.00000000000000005443 0.00000000000000006017 
0.00000000000000008877 0.00000000000000016329 -0.00000000000000009979 
0.00000000000000005114 0.00000000000000010886 0.00000000000000001329 
0.00000000000000004044 0.00000000000000021773 0.00000000000000006242 
0.00000000000000015575 0.00000000000000005443 -0.00000000000000001521 
0.00000000000000000076 0.00000000000000000000 0.00000000000000002199 
0.00000000000000019112 0.00000000000000010886 -0.00000000000000002385 
-0.00000000000000002571 0.00000000000000010886 0.00000000000000010115 
-0.00000000000000005442 0.00000000000000010886 -0.00000000000000003970 
0.00000000000000008978 0.00000000000000000000 0.00000000000000002765 
0.00000000000000018836 0.00000000000000016329 0.00000000000000006854 
0.00000000000000013617 0.00000000000000005443 0.00000000000000004327 
0.00000000000000008900 0.00000000000000016329 0.00000000000000008077 
0.00000000000000007118 0.00000000000000010886 0.00000000000000002146 
0.00000000000000001273 0.00000000000000005443 0.00000000000000001970 
0.00000000000000001195 0.00000000000000010886 0.00000000000000003754 
0.00000000000000008349 0.00000000000000010886 -0.00000000000000002688 
-0.00000000000000003409 0.00000000000000021773 -0.00000000000000007568 
0.00000000000000000912 0.00000000000000005443 0.00000000000000009033 
0.00000000000000007201 0.00000000000000005443 -0.00000000000000005780 
-0.00000000000000004203 0.00000000000000016329 -0.00000000000000000504 
-0.00000000000000002349 0.00000000000000000000 -0.00000000000000002366 
0.00000000000000010862 0.00000000000000016329 -0.00000000000000001639 
0.00000000000000011351 0.00000000000000010886 0.00000000000000009126 
0.00000000000000003721 0.00000000000000010886 -0.00000000000000001443 
-0.00000000000000000816 0.00000000000000016329 0.00000000000000007493 
0.00000000000000008868 0.00000000000000005443 0.00000000000000007755 
0.00000000000000012184 0.00000000000000010886 0.00000000000000002675 
0.00000000000000007589 0.00000000000000010886 0.00000000000000004870 
-0.00000000000000007021 0.00000000000000000000 0.00000000000000000902 
0.00000000000000007143 0.00000000000000005443 -0.00000000000000000704 
-0.00000000000000000505 0.00000000000000010886 -0.00000000000000002170 
-0.00000000000000001229 0.00000000000000000000 0.00000000000000004229 
-0.00000000000000004778 0.00000000000000005443 -0.00000000000000006165 
0.00000000000000001680 0.00000000000000000000 0.00000000000000008485 
0.00000000000000001961 0.00000000000000010886 0.00000000000000009488 
0.00000000000000006563 0.00000000000000010886 -0.00000000000000010282 
-0.00000000000000003512 0.00000000000000005443 0.00000000000000009139 
0.00000000000000004450 0.00000000000000016329 -0.00000000000000006572 
0.00000000000000003301 0.00000000000000010886 -0.00000000000000001200 
0.00000000000000001134 0.00000000000000005443 -0.00000000000000007220 
0.00000000000000005411 0.00000000000000005443 -0.00000000000000001029 
0.00000000000000017106 0.00000000000000005443 -0.00000000000000007704 
0.00000000000000003143 0.00000000000000005443 -0.00000000000000003957 
0.00000000000000007356 0.00000000000000010886 -0.00000000000000002269 
0.00000000000000001343 0.00000000000000010886 -0.00000000000000000618 
0.00000000000000013941 0.00000000000000010886 -0.00000000000000001095 
-0.00000000000000004563 0.00000000000000010886 0.00000000000000002602 
0.00000000000000002876 -0.00000000000000005443 -0.00000000000000001482 
0.00000000000000003407 0.00000000000000016329 0.00000000000000001683 
0.00000000000000010845 0.00000000000000000000 0.00000000000000004251 
-0.00000000000000002515 0.00000000000000010886 0.00000000000000002061 
0.00000000000000008021 0.00000000000000000000 -0.00000000000000008265 
-0.00000000000000007147 -0.00000000000000010886 0.00000000000000001610 
-0.00000000000000004619 0.00000000000000005443 -0.00000000000000001937 
0.00000000000000007275 0.00000000000000000000 -0.00000000000000001957 
0.00000000000000007235 0.00000000000000005443 -0.00000000000000002603 
0.00000000000000007748 0.00000000000000016329 0.00000000000000000873 
-0.00000000000000008148 0.00000000000000000000 -0.00000000000000004840 
-0.00000000000000004534 0.00000000000000021773 0.00000000000000003077 
0.00000000000000006376 0.00000000000000000000 0.00000000000000001135 
-0.00000000000000006550 0.00000000000000000000 -0.00000000000000005394 
0.00000000000000002256 0.00000000000000010886 0.00000000000000003562 
-0.00000000000000002712 0.00000000000000010886 0.00000000000000008646 
0.00000000000000011335 0.00000000000000005443 -0.00000000000000004018 
0.00000000000000002043 -0.00000000000000005443 -0.00000000000000008481 
0.00000000000000014964 0.00000000000000000000 0.00000000000000005755 
-0.00000000000000002284 -0.00000000000000010886 0.00000000000000009546 
0.00000000000000001162 0.00000000000000016329 -0.00000000000000005282 
-0.00000000000000002085 0.00000000000000016329 0.00000000000000002181 
0.00000000000000006799 -0.00000000000000005443 0.00000000000000002742 
0.00000000000000002138 0.00000000000000010886 0.00000000000000004453 
0.00000000000000005013 0.00000000000000000000 -0.00000000000000002481 
0.00000000000000005782 0.00000000000000000000 0.00000000000000003001 
0.00000000000000000425 0.00000000000000005443 0.00000000000000001004 
0.00000000000000000856 0.00000000000000005443 0.00000000000000006354 
0.00000000000000004508 0.00000000000000005443 -0.00000000000000004273 
-0.00000000000000000665 0.00000000000000016329 -0.00000000000000000659 
0.00000000000000005193 0.00000000000000010886 -0.00000000000000004884 
0.00000000000000005722 0.00000000000000005443 -0.00000000000000001677 
0.00000000000000000180 0.00000000000000000000 -0.00000000000000000103 
-0.00000000000000004198 -0.00000000000000005443 -0.00000000000000003239 
0.00000000000000003802 0.00000000000000005443 0.00000000000000007419 
0.00000000000064699432 0.00000000000000010886 0.00000000000000003639 
0.00000000721498072593 0.00000000000000000000 0.00000000000000001160 
0.00000020720885739054 0.00000000000000005443 -0.00000000000000004296 
0.00000166766660537231 0.00000000000000005443 0.00000000000000006989 
0.00000750999963569089 0.00000000000000000000 -0.00000000000000000176 
0.00002420805069800293 0.00000000000000005443 0.00000000000000003296 
0.00006276684880811878 -0.00000000000000005443 -0.00000000000000000915 
0.00013963676876486755 -0.00000000000000005443 -0.00000000000000001462 
0.00027729237172868418 0.00000000000000016329 -0.00000000000000003017 
0.00050445693931890252 0.00000000000000000000 0.00000000000000002267 
0.00085598846783887790 0.00000000000000000000 -0.00000000000000000965 
0.00137246481678043961 0.00000000000000010886 -0.00000000000000001763 
0.00209951810300659661 0.00000000000000016329 0.00000000000000000020 
0.00308697389484649618 -0.00000000000000005443 0.00000000000000003363 
0.00438785131591573879 -0.00000000000000010886 -0.00000000000000004034 
0.00605727738404261262 0.00000000000000000000 -0.00000000000000000551 
0.00815136398366805501 0.00000000000000000000 0.00000000000000006103 
0.01072608970201068164 0.00000000000000000000 -0.00000000000000006986 
0.01383622201659117680 0.00000000000000005443 0.00000000000000004864 
0.01753430848535571240 0.00000000000000010886 0.00000000000000004366 
0.02186975899656373387 0.00000000000000010886 0.00000000000000000411 
0.02688803500745140518 0.00000000000000000000 -0.00000000000000005987 
0.03262995617629402961 0.00000000000000000000 0.00000000000000002955 
0.03913112994502198488 0.00000000000000000000 0.00000000000000001239 
0.04642150548444156505 0.00000000000000005443 0.00000000000000000850 
0.05452504996242623497 0.00000000000000005443 0.00000000000000001798 
0.06345954230434470988 0.00000000000000010886 0.00000000000000003810 
0.07323647743591477077 0.00000000000000000000 -0.00000000000000000594 
0.08386107237353050692 0.00000000000000000000 -0.00000000000000001490 
0.09533236439309122900 0.00000000000000000000 -0.00000000000000004186 
0.10764339080133310256 -0.00000000000000005443 -0.00000000000000002881 
0.12078143949079681030 0.00000000000000005443 0.00000000000000000489 
0.13472835942102995288 0.00000000000000016329 0.00000000000000000570 
0.14946092037878130898 -0.00000000000000005443 0.00000000000000001242 
0.16495121177809299318 0.00000000000000000000 0.00000000000000002349 
0.18116707082185518063 0.00000000000000005443 0.00000000000000004700 
0.19807253101943622653 0.00000000000000008165 -0.00000000000000007813 
0.21562828280561890937 0.00000000000000002722 0.00000000000000001758 
0.23379213880440863349 0.00000000000000008165 -0.00000000000000008486 
0.25251949710223842160 0.00000000000000008165 -0.00000000000000009320 
0.27176379671790124037 0.00000000000000005443 -0.00000000000000008242 
0.29147696026432468042 0.00000000000000016329 0.00000000000000000229 
0.31160981957673949960 -0.00000000000000002722 -0.00000000000000008993 
0.33211252082260511731 0.00000000000000008165 0.00000000000000003945 
0.35293490630331586511 -0.00000000000000002722 -0.00000000000000005792 
0.37402687080093088845 -0.00000000000000005443 0.00000000000000000571 
0.39533869091175033450 -0.00000000000000002722 -0.00000000000000011022 
0.41682132634079316347 0.00000000000000002722 -0.00000000000000003226 
0.43842669260692929134 0.00000000000000000000 0.00000000000000007290 
0.46010790502837273230 0.00000000000000013608 -0.00000000000000009428 
0.48181949422417225115 0.00000000000000010886 -0.00000000000000004926 
0.50351759368164039632 0.00000000000000006804 -0.00000000000000006162 
0.52516010020519332535 0.00000000000000002722 -0.00000000000000004292 
0.54670680828209328173 0.00000000000000004082 -0.00000000000000008012 
0.56811951957851702932 0.00000000000000004082 0.00000000000000003182 
0.58936212891884509624 0.00000000000000008165 -0.00000000000000003640 
0.61040068820562709551 0.00000000000000000000 -0.00000000000000006850 
0.63120344981097054049 0.00000000000000009526 0.00000000000000000002 
0.65174089101555721104 0.00000000000000012247 -0.00000000000000005488 
0.67198572109251708540 0.00000000000000010886 -0.00000000000000004056 
0.69191287263311218592 0.00000000000000015649 -0.00000000000000009708 
0.71149947603017893449 -0.00000000000000002041 -0.00000000000000006595 
0.73072471540766459341 0.00000000000000010206 -0.00000000000000009978 
0.74956919978306457697 0.00000000000000004423 -0.00000000000000002810 
0.76801380103516492248 0.00000000000000009866 -0.00000000000000001051 
0.78603829235748223780 0.00000000000000004423 -0.00000000000000006099 
0.80362005944686831782 0.00000000000000005103 -0.00000000000000008910 
0.82073304829004756211 0.00000000000000011397 0.00000000000000002014 
0.83734703423815770584 0.00000000000000014118 -0.00000000000000003428 
0.85342724125759206188 0.00000000000000001191 -0.00000000000000010554 
0.86893430237505953073 0.00000000000000009313 -0.00000000000000010434 
0.88382452804802680291 0.00000000000000012502 -0.00000000000000008584 
0.89805043503497683499 0.00000000000000008845 -0.00000000000000005798 
0.91156148158926131320 0.00000000000000017690 0.00000000000000000021 
0.92430495332485640425 0.00000000000000014628 -0.00000000000000015267 
0.93622694625101599009 0.00000000000000020752 -0.00000000000000005079 
0.94727339798106180435 0.00000000000000018030 -0.00000000000000007650 
0.95739112403318293865 -0.00000000000000000680 0.00000000000000000652 
0.96652882274982077071 0.00000000000000014288 -0.00000000000000009620 
0.97463802636111718236 0.00000000000000002041 -0.00000000000000004380 
0.98167413183311114100 0.00000000000000010206 0.00000000000000003727 
0.98759786330364884854 0.00000000000000007484 -0.00000000000000014560 
0.99237709003550966802 -0.00000000000000004082 -0.00000000000000008347 
0.99598865279393300476 0.00000000000000009526 -0.00000000000000003061 
0.99841994950428392119 0.00000000000000006804 -0.00000000000000002253 
0.99967013699701445795 0.00000000000000012247 -0.00000000000000011451 
0.99975088245715826307 0.00000000000000012928 -0.00000000000000017728 
0.99868665219990526705 0.00000000000000007484 -0.00000000000000012080 
0.99651456185350140160 0.00000000000000014288 -0.00000000000000010485 
0.99328383516306362200 0.00000000000000019051 0.00000000000000003278 
0.98905493179408598969 0.00000000000000005443 -0.00000000000000005654 
0.98389841037144831759 0.00000000000000008165 -0.00000000000000001342 
0.97789359362605488002 0.00000000000000013608 -0.00000000000000013718 
0.97112709956051057603 0.00000000000000005443 -0.00000000000000009910 
0.96369129723640201135 0.00000000000000007484 -0.00000000000000009216 
0.95568273907671441592 0.00000000000000015649 -0.00000000000000010081 
0.94720061417510392765 0.00000000000000023814 0.00000000000000000475 
0.93834525952584757480 0.00000000000000011567 -0.00000000000000003773 
0.92921675870088971116 0.00000000000000007484 -0.00000000000000021297 
0.91991365055300799991 0.00000000000000004763 -0.00000000000000002553 
0.91053176417603265413 0.00000000000000006804 0.00000000000000001973 
0.90116319069491079841 0.00000000000000000000 -0.00000000000000008152 
0.89189539752951330076 0.00000000000000010886 -0.00000000000000013578 
0.88281048657823790737 0.00000000000000009526 -0.00000000000000011016 
0.87398459427576447034 0.00000000000000012247 -0.00000000000000002938 
0.86548742865076855324 0.00000000000000016329 -0.00000000000000004294 
0.85738193628947989566 0.00000000000000008165 -0.00000000000000007613 
0.84972409043866048428 0.00000000000000005443 -0.00000000000000001656 
0.84256279029322433960 0.00000000000000019051 0.00000000000000001287 
0.83593986074572323997 0.00000000000000002722 0.00000000000000001715 
0.82989014146588468979 0.00000000000000014969 -0.00000000000000013565 
0.82444165407032399262 0.00000000000000008165 -0.00000000000000007774 
0.81961583628186973627 0.00000000000000004082 -0.00000000000000003991 
0.81542783231603155336 0.00000000000000001361 -0.00000000000000008878 
0.81188682922529453734 0.00000000000000012247 -0.00000000000000004096 
0.80899642954182626742 0.00000000000000009526 0.00000000000000002607 
0.80675505125226432135 0.00000000000000008845 0.00000000000000005463 
0.80515634688583315182 0.00000000000000017010 -0.00000000000000005385 
0.80418963427478562522 0.00000000000000017690 -0.00000000000000008175 
0.80384033233382634620 0.00000000000000005443 -0.00000000000000010360 
0.80409039598615772437 0.00000000000000012247 -0.00000000000000005529 
0.80491874512479522075 0.00000000000000012928 0.00000000000000006726 
0.80630168322840500839 0.00000000000000015649 -0.00000000000000007173 
0.80821330194330209817 0.00000000000000012247 -0.00000000000000001778 
0.81062586859165386421 0.00000000000000014288 -0.00000000000000001118 
0.81351019416662795347 0.00000000000000004082 -0.00000000000000008338 
0.81683597992591383541 0.00000000000000016329 -0.00000000000000009697 
0.82057214119482835279 0.00000000000000010886 0.00000000000000009528 
0.82468710743923545614 0.00000000000000016329 0.00000000000000007374 
0.82914909806775793921 0.00000000000000012928 -0.00000000000000012939 
0.83392637377394640552 0.00000000000000008845 -0.00000000000000005501 
0.83898746353437514411 0.00000000000000013608 0.00000000000000000717 
0.84430136764064356303 0.00000000000000011567 -0.00000000000000015426 
0.84983773736484080619 0.00000000000000014969 -0.00000000000000008483 
0.85556703204214856751 0.00000000000000016329 -0.00000000000000014977 
0.86146065450402087293 0.00000000000000013608 -0.00000000000000009114 
0.86749106591390923171 0.00000000000000006124 -0.00000000000000004667 
0.87363188114779910531 0.00000000000000010886 -0.00000000000000007840 
0.87985794592692612159 0.00000000000000009526 -0.00000000000000012807 
0.88614539429027938677 0.00000000000000016329 -0.00000000000000005363 
0.89247158442398555334 0.00000000000000017010 -0.00000000000000014205 
0.89881454641602454014 -0.00000000000000004763 0.00000000000000000369 
0.90515189333905543556 0.00000000000000002041 -0.00000000000000010241 
0.91145952921673878411 0.00000000000000010886 0.00000000000000006750 
0.91771042603860619735 0.00000000000000008845 -0.00000000000000005739 
0.92387363363855712350 0.00000000000000010206 -0.00000000000000008282 
0.92991360711231840774 0.00000000000000003402 -0.00000000000000002411 
0.93578988067680857199 0.00000000000000006124 -0.00000000000000003344 
0.94145707902994713034 0.00000000000000010886 -0.00000000000000000579 
0.94686523300541158843 0.00000000000000008165 -0.00000000000000012712 
0.95196035217983066001 0.00000000000000008165 -0.00000000000000006504 
0.95668520035608672902 0.00000000000000016329 -0.00000000000000011015 
0.96098021838513203452 0.00000000000000006804 0.00000000000000004531 
0.96478454094914112282 0.00000000000000001361 0.00000000000000001280 
0.96803705844653353818 0.00000000000000002041 -0.00000000000000003627 
0.97067748103941853266 0.00000000000000004082 0.00000000000000004738 
0.97264737120002664472 0.00000000000000014969 -0.00000000000000001632 
0.97389121847912885066 0.00000000000000009526 -0.00000000000000007715 
0.97435790128431998269 0.00000000000000005783 0.00000000000000007079 
0.97400256879707824975 0.00000000000000005443 0.00000000000000002169 
0.97278859958854491108 0.00000000000000009185 -0.00000000000000007424 
0.97068935979373105472 0.00000000000000019051 -0.00000000000000006713 
0.96768959625711981065 0.00000000000000017010 -0.00000000000000002871 
0.96378638270420513567 0.00000000000000005783 -0.00000000000000000125 
0.95898959559651075768 0.00000000000000005443 0.00000000000000000295 
0.95332193637873563485 0.00000000000000003402 -0.00000000000000008540 
0.94681854273115806375 0.00000000000000010886 -0.00000000000000011829 
0.93952624671487772190 0.00000000000000008505 -0.00000000000000014233 
0.93150254513052710426 0.00000000000000012928 0.00000000000000000501 
0.92281434919741012202 0.00000000000000007144 -0.00000000000000005568 
0.91353657851151859326 -0.00000000000000001021 -0.00000000000000004483 
0.90375065947896182639 0.00000000000000013608 -0.00000000000000006670 
0.89354298205308890779 0.00000000000000013948 0.00000000000000000492 
0.88300336138454527113 0.00000000000000004763 -0.00000000000000001628 
0.87222354347930830532 0.00000000000000011227 0.00000000000000005691 
0.86129578654822835926 0.00000000000000004423 0.00000000000000004325 
0.85031154269725772732 0.00000000000000005443 -0.00000000000000002258 
0.83936025812942605118 0.00000000000000010886 -0.00000000000000003184 
0.82852830421381939985 0.00000000000000007825 -0.00000000000000014348 
0.81789804667467069788 0.00000000000000004423 -0.00000000000000004789 
0.80754705577604257716 0.00000000000000009866 0.00000000000000000772 
0.79754745670647786415 0.00000000000000010206 -0.00000000000000006995 
0.78796541636536809872 0.00000000000000010546 -0.00000000000000006535 
0.77886076036763562946 0.00000000000000002722 -0.00000000000000006754 
0.77028671225699640868 0.00000000000000013438 0.00000000000000003708 
0.76228974558831508190 0.00000000000000005443 -0.00000000000000007425 
0.75490953864354548575 0.00000000000000009866 -0.00000000000000000541 
0.74817902102223343697 0.00000000000000011056 0.00000000000000007428 
0.74212450113835415344 0.00000000000000002722 -0.00000000000000008142 
0.73676586370633001533 0.00000000000000005613 -0.00000000000000009406 
0.73211682656098631128 0.00000000000000005613 0.00000000000000001845 
0.72818524658459571341 0.00000000000000008165 -0.00000000000000003815 
0.72497346506962856427 0.00000000000000008335 -0.00000000000000002465 
0.72247868349398236543 0.00000000000000010546 0.00000000000000001377 
0.72069336139661255292 0.00000000000000006124 -0.00000000000000011639 
0.71960562879038858508 -0.00000000000000001531 -0.00000000000000003985 
0.71919970631449892107 0.00000000000000005613 0.00000000000000001418 
0.71945632709341633682 0.00000000000000004763 -0.00000000000000010757 
0.72035315501916208358 -0.00000000000000003912 -0.00000000000000007218 
0.72186519489733791399 0.00000000000000002722 -0.00000000000000012508 
0.72396519058648878264 0.00000000000000005783 0.00000000000000004038 
0.72662400790863390654 0.00000000000000014799 -0.00000000000000011533 
0.72981099971184026920 0.00000000000000010631 -0.00000000000000003952 
0.73349435102083582194 0.00000000000000011992 -0.00000000000000006151 
0.73764140271750455735 0.00000000000000005358 -0.00000000000000004666 
0.74221895264945614290 0.00000000000000002381 -0.00000000000000001610 
0.74719353347239447771 0.00000000000000006294 -0.00000000000000003289 
0.75253166689215655882 0.00000000000000014969 -0.00000000000000004321 
0.75820009428698031950 0.00000000000000008930 -0.00000000000000001910 
0.76416598396223067713 0.00000000000000003062 -0.00000000000000019800 
0.77039711552106915349 0.00000000000000006974 -0.00000000000000002365 
0.77686204202833808452 0.00000000000000018796 -0.00000000000000000749 
0.78353023080416328572 0.00000000000000017520 -0.00000000000000002685 
0.79037218381149898505 0.00000000000000009951 -0.00000000000000008798 
0.79735953870102382890 0.00000000000000006719 0.00000000000000001080 
0.80446515165037579820 0.00000000000000019136 -0.00000000000000006902 
0.81166316238951330408 0.00000000000000011482 -0.00000000000000000204 
0.81892898035333594464 0.00000000000000015309 -0.00000000000000006270 
0.82623885771324201421 0.00000000000000005443 -0.00000000000000000855 
0.83356888676944396188 0.00000000000000009143 -0.00000000000000000067 
0.84089372560370934107 0.00000000000000010121 -0.00000000000000007698 
0.84818534801847167426 0.00000000000000002764 -0.00000000000000005875 
0.85541200074611933868 0.00000000000000001573 0.00000000000000006800 
0.86253746633761918527 0.00000000000000010163 -0.00000000000000007593 
0.86952067017113643388 0.00000000000000004167 -0.00000000000000000284 
0.87631562897420323122 0.00000000000000020837 -0.00000000000000009061 
0.88287171157828225887 0.00000000000000013565 -0.00000000000000002764 
0.88913416670414391341 0.00000000000000014756 -0.00000000000000003339 
0.89504486455242315834 0.00000000000000005486 0.00000000000000000116 
0.90054319660641712897 -0.00000000000000005826 -0.00000000000000006987 
0.90556707960494864373 0.00000000000000008250 -0.00000000000000006450 
0.91005401377685879449 0.00000000000000004167 -0.00000000000000012338 
0.91394215113400256723 0.00000000000000007399 0.00000000000000002333 
0.91717133614365098371 0.00000000000000008633 -0.00000000000000005634 
0.91968409510291326825 -0.00000000000000004040 -0.00000000000000002251 
0.92142670671606530242 0.00000000000000016032 0.00000000000000001970 
0.92235070464009893954 0.00000000000000004040 -0.00000000000000000083 
0.92241473501558679526 -0.00000000000000001722 -0.00000000000000008007 
0.92158642111400324026 0.00000000000000011503 -0.00000000000000011824 
0.91984398531982780600 0.00000000000000015224 -0.00000000000000005751 
0.91717748475189531110 0.00000000000000004338 -0.00000000000000004099 
0.91358959376505188832 0.00000000000000007612 -0.00000000000000009924 
0.90909592069302747053 0.00000000000000012821 -0.00000000000000008217 
0.90372488275621587483 0.00000000000000008654 -0.00000000000000008164 
0.89751718628025989322 0.00000000000000005571 0.00000000000000006926 
0.89052497261319640831 0.00000000000000004827 -0.00000000000000003911 
0.88281069604980233478 0.00000000000000004082 -0.00000000000000006461 
0.87444580075994027268 0.00000000000000012247 -0.00000000000000005400 
0.86550926079769452404 0.00000000000000007102 0.00000000000000003259 
0.85608604198996118839 0.00000000000000008696 -0.00000000000000001659 
0.84626553781591895564 0.00000000000000004827 -0.00000000000000007809 
0.83614002400100051471 0.00000000000000014108 -0.00000000000000004245 
0.82580316897843275559 0.00000000000000014129 -0.00000000000000007585 
0.81534862998567714243 0.00000000000000014203 -0.00000000000000005520 
0.80486875761269593976 0.00000000000000012034 -0.00000000000000004103 
0.79445342526406925732 0.00000000000000014395 -0.00000000000000002621 
0.78418899432900746049 0.00000000000000011343 -0.00000000000000007644 
0.77415742091227768285 0.00000000000000009802 -0.00000000000000007569 
0.76443550576740471048 0.00000000000000013417 -0.00000000000000007653 
0.75509428556682700595 0.00000000000000002796 -0.00000000000000002139 
0.74619856079949509198 0.00000000000000007782 -0.00000000000000004852 
0.73780655335052114374 0.00000000000000009334 -0.00000000000000007532 
0.72996968512924220729 0.00000000000000000797 -0.00000000000000007157 
0.72273246790806244810 0.00000000000000012853 -0.00000000000000013101 
0.71613249375130150209 0.00000000000000004157 -0.00000000000000001087 
0.71020051498973990611 0.00000000000000009658 -0.00000000000000014962 
0.70496060257478931899 0.00000000000000003540 -0.00000000000000007639 
0.70043037177272038374 0.00000000000000003014 -0.00000000000000002836 
0.69662126448554617664 0.00000000000000005565 -0.00000000000000001274 
0.69353887796740920635 0.00000000000000009754 -0.00000000000000004578 
0.69118333030524681249 0.00000000000000003099 -0.00000000000000007353 
0.68954965371662169105 0.00000000000000011269 -0.00000000000000010509 
0.68862820745713537729 0.00000000000000000936 -0.00000000000000015007 
0.68840510290049017339 0.00000000000000010876 -0.00000000000000006233 
0.68886263413568082914 0.00000000000000010456 -0.00000000000000012958 
0.68997970820138965209 0.00000000000000005619 -0.00000000000000003036 
0.69173226983403757195 0.00000000000000015277 0.00000000000000002043 
0.69409371633267991086 0.00000000000000004582 -0.00000000000000007913 
0.69703529883309767179 0.00000000000000004704 -0.00000000000000006058 
0.70052650692925799714 0.00000000000000012611 -0.00000000000000004502 
0.70453543417898467638 0.00000000000000011280 -0.00000000000000006859 
0.70902912257985661881 0.00000000000000005983 0.00000000000000002572 
0.71397388460008048838 0.00000000000000012149 -0.00000000000000013296 
0.71933560179745137386 0.00000000000000014025 -0.00000000000000007052 
0.72507999945848677914 -0.00000000000000004489 -0.00000000000000007212 
0.73117289704103305414 0.00000000000000001268 -0.00000000000000013120 
0.73758043450925481199 0.00000000000000006110 0.00000000000000003987 
0.74426927491247951707 0.00000000000000015248 -0.00000000000000008612 
0.75120678378167615730 0.00000000000000005741 0.00000000000000005635 
0.75836118610238423265 0.00000000000000008234 -0.00000000000000002891 
0.76570170177372398612 0.00000000000000011386 -0.00000000000000002638 
0.77319866058278996501 0.00000000000000012117 -0.00000000000000000427 
0.78082359781527921339 0.00000000000000008978 -0.00000000000000004303 
0.78854933168960683609 0.00000000000000001902 -0.00000000000000008344 
0.79635002118334707877 -0.00000000000000005559 -0.00000000000000020495 
0.80420110225168739415 -0.00000000000000007920 -0.00000000000000007711 
0.81207873599032820433 0.00000000000000001324 0.00000000000000007341 
0.81995872013096193776 0.00000000000000014550 -0.00000000000000015515 
0.82781519741142262081 -0.00000000000000003910 0.00000000000000004254 
0.83561943297360607996 0.00000000000000018999 0.00000000000000002519 
0.84333882459358666672 0.00000000000000007573 -0.00000000000000010072 
0.85093623040986121620 0.00000000000000000935 -0.00000000000000000217 
0.85836964304447915808 -0.00000000000000005546 -0.00000000000000007739 
0.86559220116856316896 0.00000000000000003064 -0.00000000000000015478 
0.87255250530079675464 0.00000000000000004538 -0.00000000000000003356 
0.87919519049148309175 0.00000000000000011877 -0.00000000000000003349 
0.88546170181193895043 -0.00000000000000004395 -0.00000000000000007119 
0.89129121710865244488 0.00000000000000018058 -0.00000000000000007121 
0.89662166364290185605 0.00000000000000005785 0.00000000000000006475 
0.90139077975504211526 0.00000000000000003592 -0.00000000000000008369 
0.90553717861341509465 -0.00000000000000001046 -0.00000000000000002311 
0.90900137772205280573 0.00000000000000010569 -0.00000000000000016987 
0.91172676465478674768 0.00000000000000008047 0.00000000000000002881 
0.91366047609421863207 0.00000000000000000337 -0.00000000000000008202 
0.91475417343858156372 0.00000000000000008306 0.00000000000000001873 
0.91496470384488592931 0.00000000000000017146 -0.00000000000000002722 
0.91425464051827787237 0.00000000000000007307 0.00000000000000000439 
0.91259270030156958153 0.00000000000000007677 0.00000000000000000442 
0.90995404016834413596 0.00000000000000007922 -0.00000000000000001250 
0.90632043710673082515 0.00000000000000002989 0.00000000000000002482 
0.90168035814476032996 0.00000000000000010445 0.00000000000000005499 
0.89602892896872043949 0.00000000000000005173 -0.00000000000000001942 
0.88936781078523696742 -0.00000000000000007274 -0.00000000000000004053 
0.88170499583989891956 0.00000000000000005465 0.00000000000000003402 
0.87305453239329333659 0.00000000000000004635 0.00000000000000000997 
0.86343619002974525412 -0.00000000000000001292 -0.00000000000000007400 
0.85287507599127676539 -0.00000000000000004246 0.00000000000000000150 
0.84140121284093927212 0.00000000000000000283 0.00000000000000002003 
0.82904908721215331280 0.00000000000000006375 0.00000000000000004198 
0.81585717873503593722 0.00000000000000001539 -0.00000000000000001647 
0.80186747748270081892 0.00000000000000002870 -0.00000000000000005802 
0.78712499748084707729 0.00000000000000016335 0.00000000000000001714 
0.77167729299850251756 0.00000000000000006010 0.00000000000000000606 
0.75557398350807347676 0.00000000000000004262 -0.00000000000000005843 
0.73886629238634449202 0.00000000000000003132 0.00000000000000005077 
0.72160660363868944778 0.00000000000000004869 0.00000000000000000843 
0.70384804017721258607 0.00000000000000003294 -0.00000000000000003600 
0.68564406647783149307 0.00000000000000006352 -0.00000000000000011411 
0.66704811778697847835 -0.00000000000000007804 -0.00000000000000003730 
0.64811325744922543279 0.00000000000000007975 -0.00000000000000012895 
0.62889186338452207625 0.00000000000000016636 -0.00000000000000002541 
0.60943534425836276558 0.00000000000000006169 -0.00000000000000010255 
0.58979388545929911647 -0.00000000000000004711 -0.00000000000000003791 
0.57001622462420553639 0.00000000000000014024 -0.00000000000000002318 
0.55014945613024179849 0.00000000000000008335 0.00000000000000003363 
0.53023886370067596641 0.00000000000000009187 -0.00000000000000005737 
0.51032778004642520564 0.00000000000000007636 0.00000000000000005535 
0.49045747228283964603 0.00000000000000001260 0.00000000000000002038 
0.47066705171830308663 0.00000000000000005787 -0.00000000000000004763 
0.45099340650399605268 0.00000000000000000801 -0.00000000000000009060 
0.43147172868175587279 0.00000000000000005668 0.00000000000000001313 
0.41213457198656344715 0.00000000000000011096 0.00000000000000005035 
0.39301107529492662618 0.00000000000000008046 -0.00000000000000001565 
0.37412896566175868340 0.00000000000000015015 -0.00000000000000009065 
0.35551369630978124636 0.00000000000000002603 -0.00000000000000013210 
0.33718848233605641651 0.00000000000000007702 0.00000000000000000785 
0.31917434796959909260 0.00000000000000001766 0.00000000000000007261 
0.30149018388880743924 -0.00000000000000008295 -0.00000000000000001433 
0.28415281317552443241 -0.00000000000000003037 -0.00000000000000004158 
0.26717706455728723602 0.00000000000000001027 -0.00000000000000007524 
0.25057585166903539875 0.00000000000000011438 0.00000000000000006670 
0.23436025714858801927 0.00000000000000002399 0.00000000000000001908 
0.21853962046522706908 0.00000000000000000957 -0.00000000000000008401 
0.20312162846651043990 0.00000000000000010512 0.00000000000000002950 
0.18811240771396536831 0.00000000000000003107 0.00000000000000003715 
0.17351661776265078774 0.00000000000000001699 0.00000000000000005480 
0.15933754462205862446 0.00000000000000003332 -0.00000000000000011495 
0.14557719371574037726 0.00000000000000006909 -0.00000000000000012446 
0.13223638173398316598 0.00000000000000002335 -0.00000000000000014808 
0.11931482684736378908 0.00000000000000006776 -0.00000000000000005091 
0.10681123681880190512 -0.00000000000000003810 0.00000000000064704767 
0.09472339461761611346 0.00000000000000011078 0.00000000721498056664 
0.08304824120085499417 0.00000000000000008217 0.00000020720885735641 
0.07178195518481543524 -0.00000000000000001294 0.00000166766660539444 
0.06092002918309841891 -0.00000000000000002057 0.00000750999963569991 
0.05045734263681105058 0.00000000000000008517 0.00002420805069810524 
0.04038823100769264873 0.00000000000000008092 0.00006276684880809169 
0.03070655124606250924 0.00000000000000015973 0.00013963676876481369 
0.02140574348273655350 0.00000000000000008016 0.00027729237172854503 
0.01247888892751854335 0.00000000000000013620 0.00050445693931902439 
0.00391876398675202603 0.00000000000000007545 0.00085598846783878075 
-0.00428210936114802390 0.00000000000000003439 0.00137246481678048537 
-0.01213141687006502774 0.00000000000000001177 0.00209951810300649036 
-0.01963700892821751420 0.00000000000000009619 0.00308697389484641075 
-0.02680686095835352334 0.00000000000000004601 0.00438785131591567547 
-0.03364903720202451487 0.00000000000000010889 0.00605727738404238276 
-0.04017165776175418701 -0.00000000000000003096 0.00815136398366786939 
-0.04638286876512457552 0.00000000000000012170 0.01072608970201058623 
-0.05229081550709842319 0.00000000000000000010 0.01383622201659104496 
-0.05790361842115065993 0.00000000000000006770 0.01753430848535567077 
-0.06322935172575337714 -0.00000000000000008063 0.02186975899656374428 
-0.06827602459035338189 0.00000000000000007943 0.02688803500745140518 
-0.07305156466397151604 0.00000000000000001837 0.03262995617629393247 
-0.07756380380983435296 0.00000000000000003551 0.03913112994502175590 
-0.08182046589084875088 -0.00000000000000004850 0.04642150548444148872 
-0.08582915645312272357 0.00000000000000009429 0.05452504996242615865 
-0.08959735415799012503 0.00000000000000002241 0.06345954230434477927 
-0.09313240381699529336 0.00000000000000002768 0.07323647743591467363 
-0.09644151088892159718 -0.00000000000000001869 0.08386107237353045141 
-0.09953173730309779199 -0.00000000000000001670 0.09533236439309127064 
-0.10240999847880627449 0.00000000000000006196 0.10764339080133290827 
-0.10508306141653828147 0.00000000000000009117 0.12078143949079665764 
-0.10755754374303663767 -0.00000000000000008358 0.13472835942103000839 
-0.10983991359843552071 0.00000000000000001337 0.14946092037878114245 
-0.11193649026031199378 0.00000000000000009882 0.16495121177809296542 
-0.11385344540602213015 0.00000000000000003410 0.18116707082185509736 
-0.11559680492125717910 -0.00000000000000003780 0.19807253101943614326 
-0.11717245116928899640 0.00000000000000009333 0.21562828280561893712 
-0.11858612564181227056 -0.00000000000000003747 0.23379213880440849471 
-0.11984343191861583644 0.00000000000000002271 0.25251949710223831058 
-0.12095012706866259400 -0.00000000000000002619 0.27176379671790118486 
-0.12191236481001734016 -0.00000000000000000206 0.29147696026432468042 
-0.12273417297627838007 -0.00000000000000002191 0.31160981957673933307 
-0.12342064123087338745 0.00000000000000007440 0.33211252082260522833 
-0.12397673841623817192 -0.00000000000000003744 0.35293490630331575408 
-0.12440731618045132445 0.00000000000000000883 0.37402687080093088845 
-0.12471711256407405632 -0.00000000000000002318 0.39533869091175027899 
-0.12491075551770364216 0.00000000000000008200 0.41682132634079294142 
-0.12499276632500344597 -0.00000000000000005587 0.43842669260692923583 
-0.12496756290997387828 0.00000000000000007398 0.46010790502837273230 
-0.12483946301094221709 0.00000000000000003345 0.48181949422417208462 
-0.12461268720720426739 -0.00000000000000005078 0.50351759368164017427 
-0.12429136178741628793 -0.00000000000000003387 0.52516010020519343637 
-0.12387952145176706065 -0.00000000000000003050 0.54670680828209328173 
-0.12338111184260831810 0.00000000000000004938 0.56811951957851714035 
-0.12279999190063616010 0.00000000000000009979 0.58936212891884487419 
-0.12213993604588661845 -0.00000000000000002679 0.61040068820562720653 
-0.12140463618474653384 0.00000000000000013750 0.63120344981097031845 
-0.12059713042315643727 0.00000000000000009606 0.65174089101555710002 
-0.11972072050149816513 0.00000000000000004842 0.67198572109251708540 
-0.11877974141174230116 -0.00000000000000001561 0.69191287263311218592 
-0.11777756760761894095 0.00000000000000008380 0.71149947603017893449 
-0.11671749881728991916 0.00000000000000007773 0.73072471540766459341 
-0.11560276110335825084 0.00000000000000008849 0.74956919978306457697 
-0.11443650779480396551 -0.00000000000000006041 0.76801380103516492248 
-0.11322182030047694967 0.00000000000000010993 0.78603829235748223780 
-0.11196170881411739162 0.00000000000000009057 0.80362005944686831782 
-0.11065911292109742448 0.00000000000000009197 0.82073304829004734007 
-0.10931690211717746963 -0.00000000000000006264 0.83734703423815759482 
-0.10793787624958380011 0.00000000000000011160 0.85342724125759206188 
-0.10652476589062782886 0.00000000000000010546 0.86893430237505941971 
-0.10508023265391805423 0.00000000000000008941 0.88382452804802669188 
-0.10360686946298021394 0.00000000000000007421 0.89805043503497694601 
-0.10210720078180261783 0.00000000000000007059 0.91156148158926131320 
-0.10058368281646069831 0.00000000000000004890 0.92430495332485640425 
-0.09903870369657906403 0.00000000000000005698 0.93622694625101576804 
-0.09747458364494220040 0.00000000000000002892 0.94727339798106180435 
-0.09589357514309369834 0.00000000000000006549 0.95739112403318293865 
-0.09429786310026304352 0.00000000000000001701 0.96652882274917373273 
-0.09268956503243841460 0.00000000000000005103 0.97463801916707826223 
-0.09107073125787294721 -0.00000000000000006804 0.98167394148413567034 
-0.08944334511477007588 0.00000000000000004593 0.98759653205240660601 
-0.08780932320634414479 -0.00000000000000002722 0.99237191480611752770 
-0.08617051567791823852 -0.00000000000000001361 0.99597414569383735383 
-0.08452870653016460178 -0.00000000000000004423 0.99838691031914650331 
-0.08288561397208038528 0.00000000000000000680 0.99960494620051543180 
-0.08124289081675463431 0.00000000000000009526 0.99963506619521425023 
-0.07960212492248652794 0.00000000000000006124 0.99849673091155755067 
-0.07796483968131807940 0.00000000000000010206 0.99622216759917769924 
-0.07633249455658247529 0.00000000000000010886 0.99285606609826049240 
-0.07470648567060433898 0.00000000000000004763 0.98845490297889870845 
-0.07308814644327725485 0.00000000000000000680 0.98308595621854266700 
-0.07147874828182050611 0.00000000000000006804 0.97682607718165370692 
-0.06987950132165002270 0.00000000000000002722 0.96976028626457111415 
-0.06829155521793391082 -0.00000000000000004082 0.96198025488849625564 
-0.06671599998707054835 0.00000000000000006804 0.95358273074350230480 
-0.06515386689702844236 -0.00000000000000004082 0.94466795619763466174 
-0.06360612940519841385 0.00000000000000008165 0.93533812224889034681 
-0.06207370414215814675 0.00000000000000005443 0.92569589279378716729 
-0.06055745193952009886 0.00000000000000008165 0.91584302665128991539 
-0.05905817889982380164 -0.00000000000000008165 0.90587911794109132746 
-0.05757663750625725135 0.00000000000000005443 0.89590046921144728120 
-0.05611352776983487278 0.00000000000000005443 0.88599910622022370887 
-0.05466949841151960005 0.00000000000000005443 0.87626193852185407795 
-0.05324514807667176525 0.00000000000000000000 0.86677006599595629588 
-0.05184102657911147244 0.00000000000000000000 0.85759822813948605180 
-0.05045763617200854645 0.00000000000000000000 0.84881439028606353592 
-0.04909543284276858544 0.00000000000000000000 0.84047945885604136151 
-0.04775482762904278283 0.00000000000000005443 0.83264711621602272018 
-0.04643618795297699969 0.00000000000000016329 0.82536376467220018416 
-0.04513983897081259161 0.00000000000000002722 0.81866856847401792141 
-0.04386606493496676001 0.00000000000000010886 0.81259358240195311840 
-0.04261511056574652373 -0.00000000000000005443 0.80716395549803932052 
-0.04138718242989467694 0.00000000000000010886 0.80239819871728124134 
-0.04018245032321123705 0.00000000000000000000 0.79830850568441413806 
-0.03900104865456780617 0.00000000000000005443 0.79490111629091630974 
-0.03784307782868997355 -0.00000000000000010886 0.79217671352432406096 
-0.03670860562517976738 -0.00000000000000005443 0.79013084465324856520 
-0.03559795677050207885 0.00000000000000010886 0.78875435866928844675 
-0.03451195407863099501 0.00000000000000005443 0.78803385268794745588 
-0.03344939376058275043 -0.00000000000000010886 0.78795212081528420711 
-0.03241023089130829621 0.00000000000000016329 0.78848859977965579660 
-0.03139439446286369784 -0.00000000000000005443 0.78961980639598627896 
-0.03040178870337401779 -0.00000000000000010886 0.79131976266384129737 
-0.02943229437678859806 -0.00000000000000005443 0.79356040499296898183 
-0.02848577006175931695 -0.00000000000000005443 0.79631197469576264769 
-0.02756205340807966336 -0.00000000000000016329 0.79954338748204722975 
-0.02666096236924610924 0.00000000000000010886 0.80322258023584847120 
-0.02578229640981910195 -0.00000000000000005443 0.80731683384587316077 
-0.02492583768637575761 0.00000000000000016329 0.81179307130180078378 
-0.02409135220096177143 0.00000000000000000000 0.81661813065840926917 
-0.02327859092607006963 0.00000000000000016329 0.82175901281103258533 
-0.02248729090026999056 -0.00000000000000005443 0.82718310432123165477 
-0.02171717629374148376 0.00000000000000016329 0.83285837578362797995 
-0.02096795944305243284 0.00000000000000000000 0.83875355643659221805 
-0.02023905365546335711 0.00000000000000000000 0.84483828589399778686 
-0.01952933440425964201 0.00000000000000010886 0.85108324401573420825 
-0.01883966631228460240 0.00000000000000016329 0.85746026004431197265 
-0.01816971993279479017 0.00000000000000000000 0.86394240221671259050 
-0.01751915889651161490 0.00000000000000005443 0.87050404911715106859 
-0.01688764074334663662 0.00000000000000000000 0.87712093686180558905 
-0.01627481772198725862 0.00000000000000000000 0.88377002671557602920 
-0.01568033755739249926 0.00000000000000010886 0.89042882576144877227 
-0.01510384418633193421 0.00000000000000010886 0.89707422670718928170 
-0.01454497846115895485 -0.00000000000000021773 0.90368120885240132978 
-0.01400337882208385794 0.00000000000000010886 0.91022164849994857683 
-0.01347868193826563289 0.00000000000000000000 0.91666338465196017804 
-0.01297052331810364008 0.00000000000000010886 0.92296961185667159011 
-0.01247853788915469393 0.00000000000000000000 0.92909862027991663158 
-0.01200236054815787858 0.00000000000000010886 0.93500386826076198332 
-0.01154162668168566726 0.00000000000000010886 0.94063435062047362489 
-0.01109597265798594606 0.00000000000000010886 0.94593521353247600469 
-0.01066503629061067368 0.00000000000000000000 0.95084856123316996435 
-0.01024845727446380139 0.00000000000000010886 0.95531439923304695139 
-0.00984587759492564461 0.00000000000000000000 0.95927166140786190862 
-0.00945694191074112830 0.00000000000000016329 0.96265927321382160908 
-0.00908129791137583797 0.00000000000000005443 0.96541720937777220080 
-0.00871859664956840981 -0.00000000000000005443 0.96748751375957275922 
-0.00836849284981769359 -0.00000000000000010886 0.96881535645725358474 
-0.00803064519356083348 0.00000000000000005443 0.96935047422031939135 
-0.00770471658180526923 0.00000000000000000000 0.96904902847052643011 
-0.00739037437598747196 0.00000000000000000000 0.96787553853179031371 
-0.00708729061782978776 0.00000000000000000000 0.96580461383172022671 
-0.00679514222898338401 0.00000000000000010886 0.96282232124977196186 
-0.00651361119122324892 -0.00000000000000010886 0.95892710629190724969 
-0.00624238470798548981 0.00000000000000010886 0.95413024524611422805 
-0.00598115534800777379 -0.00000000000000010886 0.94845584540642480231 
-0.00572962117185045038 -0.00000000000000005443 0.94194043625192080960 
-0.00548748584205005670 0.00000000000000005443 0.93463220964885640463 
-0.00525445871766270448 0.00000000000000005443 0.92658997449709312733 
-0.00503025493393414840 -0.00000000000000005443 0.91788189296079403245 
-0.00481459546782741186 0.00000000000000005443 0.90858406321894114033 
-0.00460720719012395682 0.00000000000000010886 0.89877900886420314386 
-0.00440782290480253979 0.00000000000000000000 0.88855412867506788910 
-0.00421618137637963693 -0.00000000000000010886 0.87800015324042568476 
-0.00403202734588978175 0.00000000000000000000 0.86720964738250871928 
-0.00385511153615548203 0.00000000000000005443 0.85627558990004892792 
-0.00368519064699082992 -0.00000000000000005443 0.84529005511223753722 
-0.00352202734095537900 0.00000000000000000000 0.83434301420364009871 
-0.00336539022026751886 -0.00000000000000010886 0.82352126855598073440 
-0.00321505379545575622 0.00000000000000000000 0.81290752215513761847 
-0.00307079844632016357 0.00000000000000000000 0.80257959579109194870 
-0.00293241037574724830 0.00000000000000000000 0.79260978210626864549 
-0.00279968155690998866 -0.00000000000000005443 0.78306433755519844198 
-0.00267240967435839003 -0.00000000000000010886 0.77400310496426216744 
-0.00255039805949614992 0.00000000000000000000 0.76547925856542553547 
-0.00243345562090840862 0.00000000000000000000 0.75753916205977922527 
-0.00232139676999863201 0.00000000000000010886 0.75022232938230026811 
-0.00221404134236180159 0.00000000000000000000 0.74356147732707134068 
-0.00211121451531400125 -0.00000000000000010886 0.73758265899392960740 
-0.00201274672196998829 -0.00000000000000005443 0.73230546707896004843 
-0.00191847356224867033 0.00000000000000010886 0.72774329630294898319 
-0.00182823571116590773 0.00000000000000000000 0.72390365470935702508 
-0.00174187882475589019 0.00000000000000000000 0.72078851412721278713 
-0.00165925344394686892 -0.00000000000000010886 0.71839469075009121379 
-0.00158021489669949583 -0.00000000000000010886 0.71671424750037016072 
-0.00150603179508871634 -0.00000000000000005443 0.71573491060301475120 
-0.00143508176645486350 0.00000000000000005443 0.71544049356409178397 
-0.00136723810824617201 0.00000000000000000000 0.71581132251866019800 
-0.00130237828537023035 0.00000000000000000000 0.71682465766658376438 
-0.00124038383821177978 0.00000000000000005443 0.71845510624204211858 
-0.00118114028995525188 0.00000000000000010886 0.72067502315463183304 
-0.00112453705342951374 -0.00000000000000005443 0.72345489609067392678 
-0.00107046733768524052 0.00000000000000000000 0.72676371246839976958 
-0.00101882805449226015 0.00000000000000000000 0.73056930619739735011 
-0.00096951972494227099 0.00000000000000010886 0.73483868269974217391 
-0.00092244638632004296 -0.00000000000000005443 0.73953832110746087203 
-0.00087751549940122658 0.00000000000000005443 0.74463445295907215726 
-0.00083463785631731539 -0.00000000000000021773 0.75009331707839577152 
-0.00079372748912443793 -0.00000000000000010886 0.75588139063359471859 
-0.00075470157919272317 0.00000000000000000000 0.76196559664595064909 
-0.00071748036753305319 -0.00000000000000005443 0.76831348844886049321 
-0.00068198706615800366 -0.00000000000000005443 0.77489341179088622180 
-0.00064757464783407961 0.00000000000000005443 0.78167464543539166844 
-0.00061394152537208526 0.00000000000000000000 0.78862752123638779622 
-0.00058189957537901720 0.00000000000000000000 0.79572352476868246640 
-0.00055137891044992882 -0.00000000000000016329 0.80293537766325451255 
-0.00052231240155736617 -0.00000000000000010886 0.81023710205277343910 
-0.00049463558696148245 0.00000000000000005443 0.81760400608070282757 
-0.00046828658310286389 0.00000000000000000000 0.82501225623713503321 
-0.00044320599749779867 0.00000000000000000000 0.83243787401381108548 
-0.00041933684365058317 -0.00000000000000016329 0.83985546078778450241 
-0.00039662445799517205 -0.00000000000000010886 0.84723694696864559894 
-0.00037501641886939933 0.00000000000000000000 0.85455054840128852334 
-0.00035446246752689881 -0.00000000000000021773 0.86176002844076771137 
-0.00033491443117864293 0.00000000000000000000 0.86882430414654743256 
-0.00031632614806360507 0.00000000000000000000 0.87569739399562707138 
-0.00029865339453396248 0.00000000000000000000 0.88232867783862733990 
-0.00028185381414330652 -0.00000000000000010886 0.88866342390185748545 
-0.00026588684872280981 0.00000000000000000000 0.89464352961371107487 
-0.00025071367142415104 0.00000000000000005443 0.90020842066587036800 
-0.00023629712170982327 0.00000000000000000000 0.90529605427002879381 
-0.00022260164226576152 -0.00000000000000010886 0.90984397670407324288 
-0.00020959321781188948 0.00000000000000000000 0.91379039094653902175 
-0.00019723931578239900 -0.00000000000000010886 0.91707519672173865022 
-0.00018550882884605407 0.00000000000000005443 0.91964097927930676946 
-0.00017437201923691049 0.00000000000000000000 0.92143407940981425508 
-0.00016380046486407396 0.00000000000000005443 0.92240609546221641324 
-0.00015376700716488302 -0.00000000000000016329 0.92251574038040151660 
-0.00014424570066986337 0.00000000000000000000 0.92173070588988514906 
-0.00013521176424524388 -0.00000000000000005443 0.92002928405266271028 
-0.00012664153397332832 -0.00000000000000010886 0.91740160249416569105 
-0.00011851241764073735 0.00000000000000000000 0.91385040654268545612 
-0.00011080285079196581 -0.00000000000000010886 0.90939137564134220337 
-0.00010349225431520494 0.00000000000000000000 0.90405299795530358331 
-0.00009656099352298473 -0.00000000000000010886 0.89787605031908490627 
-0.00008999033868719938 0.00000000000000000000 0.89091274391050723214 
-0.00008376242699611910 0.00000000000000000000 0.88322560195872357180 
-0.00007786022589134072 -0.00000000000000005443 0.87488613648180835192 
-0.00007226749775083128 0.00000000000000005443 0.86597338812937441066 
-0.00006696876587909376 0.00000000000000005443 0.85657238792751588807 
-0.00006194928176888788 0.00000000000000005443 0.84677259303612717467 
-0.00005719499359710488 0.00000000000000000000 0.83666634124084338087 
-0.00005269251591909684 0.00000000000000005443 0.82634736133129249591 
-0.00004842910052611739 -0.00000000000000016329 0.81590936913163336630 
-0.00004439260842949082 0.00000000000000000000 0.80544477199897335229 
-0.00004057148293808719 0.00000000000000005443 0.79504349825038156396 
-0.00003695472379409162 0.00000000000000005443 0.78479196231126857608 
-0.00003353186233216947 0.00000000000000000000 0.77477217143692889145 
-0.00003029293763268927 0.00000000000000000000 0.76506097564740693784 
-0.00002722847363101198 -0.00000000000000010886 0.75572945900924104468 
-0.00002432945715667297 0.00000000000000000000 0.74684246755347438729 
-0.00002158731686602597 -0.00000000000000005443 0.73845826688350568734 
-0.00001899390304205713 0.00000000000000005443 0.73062832083816842133 
-0.00001654146822837109 0.00000000000000000000 0.72339718137146380439 
-0.00001422264867004649 0.00000000000000005443 0.71680247902731020204 
-0.00001203044653168085 -0.00000000000000005443 0.71087500296418160151 
-0.00000995821286570575 0.00000000000000000000 0.70563885936280290601 
-0.00000799963130304517 0.00000000000000000000 0.70111169717662824574 
-0.00000614870244024892 0.00000000000000005443 0.69730499051104610775 
-0.00000439972889707903 0.00000000000000000000 0.69422436739956339125 
-0.00000274730101932093 -0.00000000000000005443 0.69186997534519756314 
-0.00000118628320470838 -0.00000000000000021773 0.69023687467945582519 
0.00000000000000008032 0.00000000000000005443 0.68931545153088513711 
0.00000000000000008372 -0.00000000000000010886 0.68909184296583969598 
0.00000000000000003200 0.00000000000000005443 0.68954836764560178963 
0.00000000000000013698 0.00000000000000005443 0.69066395611960296197 
0.00000000000000008154 0.00000000000000000000 0.69241457563092634331 
0.00000000000000007131 0.00000000000000005443 0.69477364503704330811 
0.00000000000000007952 -0.00000000000000005443 0.69771243613792299776 
-0.00000000000000000941 -0.00000000000000005443 0.70120045834952948738 
0.00000000000000015476 0.00000000000000016329 0.70520582425940181448 
0.00000000000000010007 -0.00000000000000010886 0.70969559415022986926 
0.00000000000000007628 -0.00000000000000016329 0.71463609807608696745 
-0.00000000000000000619 -0.00000000000000010886 0.71999323452437724580 
0.00000000000000011280 -0.00000000000000010886 0.72573274509554863698 
-0.00000000000000000470 -0.00000000000000010886 0.73182046498385333599 
0.00000000000000010551 0.00000000000000005443 0.73822254934807363114 
0.00000000000000002036 -0.00000000000000010886 0.74490567592370338090 
0.00000000000000001690 0.00000000000000016329 0.75183722445040135351 
0.00000000000000001842 -0.00000000000000016329 0.75898543367358384248 
-0.00000000000000006411 0.00000000000000000000 0.76631953682984232934 
0.00000000000000007313 0.00000000000000000000 0.77380987664556288852 
0.00000000000000004813 0.00000000000000000000 0.78142800096967868217 
0.00000000000000000229 0.00000000000000005443 0.78914674022789088603 
0.00000000000000005316 -0.00000000000000010886 0.79694026526728989346 
0.00000000000000006054 -0.00000000000000010886 0.80478402359116141263 
0.00000000000000013595 0.00000000000000000000 0.81265418753651086359 
0.00000000000000004695 -0.00000000000000010886 0.82052656578253790887 
0.00000000000000001692 -0.00000000000000010886 0.82837531173226108816 
0.00000000000000011591 0.00000000000000000000 0.83617170092049852848 
0.00000000000000009361 -0.00000000000000016329 0.84388314125272767541 
0.00000000000000004370 -0.00000000000000016329 0.85147250074086633376 
0.00000000000000016271 -0.00000000000000010886 0.85889778163083430051 
0.00000000000000000935 0.00000000000000005443 0.86611213197349490311 
0.00000000000000014157 -0.00000000000000010886 0.87306416142766085642 
-0.00000000000000004176 -0.00000000000000010886 0.87969851394785114618 
0.00000000000000003421 0.00000000000000000000 0.88595664327666512339 
0.00000000000000010322 0.00000000000000005443 0.89177773570128515690 
-0.00000000000000006016 -0.00000000000000010886 0.89709972669488602381 
0.00000000000000009792 0.00000000000000016329 0.90186036258224544504 
0.00000000000000001402 -0.00000000000000016329 0.90599826428958030178 
0.00000000000000000938 0.00000000000000000000 0.90945395685284968756 
0.00000000000000007014 0.00000000000000000000 0.91217083515221142331 
-0.00000000000000002143 0.00000000000000005443 0.91409604295113611183 
0.00000000000000013543 -0.00000000000000010886 0.91518124850328197439 
0.00000000000000006575 -0.00000000000000005443 0.91538330559556091437 
0.00000000000000004576 0.00000000000000000000 0.91466479383738774622 
-0.00000000000000000328 0.00000000000000010886 0.91299443625010201497 
0.00000000000000008877 -0.00000000000000005443 0.91034739576001799666 
0.00000000000000003197 -0.00000000000000005443 0.90670545508222344377 
0.00000000000000005359 0.00000000000000005443 0.90205708674607554265 
-0.00000000000000004797 0.00000000000000000000 0.89639742171384206859 
-0.00000000000000004665 0.00000000000000000000 0.88972812624323027730 
-0.00000000000000001392 0.00000000000000000000 0.88205719740665067263 
-0.00000000000000012167 -0.00000000000000005443 0.87339868806809584090 
-0.00000000000000005171 0.00000000000000000000 0.86377237219294178416 
0.00000000000000005310 0.00000000000000005443 0.85320336118319606289 
0.00000000000000003574 0.00000000000000000000 0.84172168154236304272 
0.00000000000000002901 0.00000000000000010886 0.82936182362655330724 
-0.00000000000000000194 -0.00000000000000005443 0.81616227057283086133 
0.00000000000000007375 0.00000000000000000000 0.80216501574778020789 
0.00000000000000001007 0.00000000000000000000 0.78741507625960605044 
0.00000000000000001985 0.00000000000000000000 0.77196000925163033024 
0.00000000000000003012 -0.00000000000000005443 0.75584943686533545559 
0.00000000000000012561 0.00000000000000000000 0.73913458494458639247 
-0.00000000000000010443 -0.00000000000000010886 0.72186783976328672274 
0.00000000000000005569 0.00000000000000005443 0.70410232630718139202 
-0.00000000000000002926 0.00000000000000005443 0.68589151093480260624 
-0.00000000000000005144 0.00000000000000010886 0.66728883058822829888 
0.00000000000000000514 0.00000000000000005443 0.64834735012494348894 
0.00000000000000006416 0.00000000000000010886 0.62911944879948467069 
0.00000000000000003981 0.00000000000000021773 0.60965653643816719587 
0.00000000000000007370 0.00000000000000000000 0.59000879942130046718 
-0.00000000000000002944 0.00000000000000010886 0.57022497621328294137 
0.00000000000000009573 0.00000000000000021773 0.55035216185950908141 
-0.00000000000000005092 0.00000000000000016329 0.53043564059723768978 
0.00000000000000002144 0.00000000000000000000 0.51051874550226106209 
-0.00000000000000005556 -0.00000000000000005443 0.49064274391089213179 
0.00000000000000007571 0.00000000000000005443 0.47084674721382485663 
0.00000000000000000799 0.00000000000000000000 0.45116821663394329756 
0.00000000000000009810 0.00000000000000005443 0.43164200139119085486 
-0.00000000000000009363 0.00000000000000000000 0.41229954416724079458 
-0.00000000000000004929 0.00000000000000016329 0.39317086781215410118 
-0.00000000000000005411 0.00000000000000016329 0.37428369863783389482 
0.00000000000000001640 0.00000000000000000000 0.35566348902771011131 
-0.00000000000000004224 0.00000000000000005443 0.33733345314811341575 
0.00000000000000004696 -0.00000000000000005443 0.31931461421070655993 
-0.00000000000000007256 0.00000000000000000000 0.30162586179470513015 
0.00000000000000003784 0.00000000000000010886 0.28428401780568268720 
-0.00000000000000004504 0.00000000000000021773 0.26730390972251860671 
0.00000000000000008486 0.00000000000000010886 0.25069844986374034690 
-0.00000000000000012263 -0.00000000000000010886 0.23447871948756734972 
-0.00000000000000004371 0.00000000000000016329 0.21865405662498371697 
0.00000000000000001298 0.00000000000000010886 0.20323214663096123012 
0.00000000000000012750 0.00000000000000000000 0.18821911452446551949 
-0.00000000000000014267 0.00000000000000005443 0.17361961827224234312 
0.00000000000000010828 0.00000000000000005443 0.15943694225383650553 
-0.00000000000000004135 0.00000000000000000000 0.14567309022523275419 
0.00000000000000008007 0.00000000000000005443 0.13232887717543379003 
-0.00000000000000009520 -0.00000000000000005443 0.11940401954380169824 
0.00000000000000010716 0.00000000000000010886 0.10689722333578483005 
0.00000000000000002428 0.00000000017200489759 0.09480626974052144829 
0.00000000000000003074 0.00000003529184750961 0.08312809791560056560 
-0.00000000000000001197 0.00000052539239434241 0.07185888466188405932 
0.00000000000000004793 0.00000320498278526800 0.06099412076474083205 
-0.00000000000000005026 0.00001238303564709693 0.05052868382730112823 
0.00000000000000005942 0.00003621690720332012 0.04045690746650656977 
-0.00000000000000009542 0.00008779790597429457 0.03077264678385832966 
0.00000000000000001892 0.00018593647870542211 0.02146934006000211087 
-0.00000000000000007033 0.00035559932933202737 0.01254006665576643149 
0.00000000000000012822 0.00062799516893121581 0.00397760113213222865 
-0.00000000000000004344 0.00104033497148797315 -0.00422553637193781497 
0.00000000000000003557 0.00163531037263177034 -0.01207703344169972978 
-0.00000000000000009197 0.00246034319501275533 -0.01958474228661062980 
0.00000000000000010014 0.00356666236863841099 -0.02675664013859339191 
-0.00000000000000008734 0.00500826356852926164 -0.03360079303449377969 
0.00000000000000002701 0.00684080312498318733 -0.04012532285655031478 
0.00000000000000002772 0.00912047224450017804 -0.04633837749489003871 
0.00000000000000009007 0.01190289111292476554 -0.05224810398837614195 
-0.00000000000000007250 0.01524205562341778009 -0.05786262449436397476 
-0.00000000000000003600 0.01918936269907004638 -0.06319001493392177593 
-0.00000000000000009430 0.02379273375075199176 -0.06823828615663872499 
0.00000000000000010422 0.02909584991166778295 -0.07301536746815819046 
-0.00000000000000013663 0.03513750743067593774 -0.07752909236383374869 
0.00000000000000003680 0.04195109703906671483 -0.08178718631332287936 
0.00000000000000004592 0.04956420724035998787 -0.08579725644331258338 
-0.00000000000000001873 0.05799834829022465499 -0.08956678296883573143 
-0.00000000000000006004 0.06726879109380966282 -0.09310311222762970851 
0.00000000000000004181 0.07738451329759618580 -0.09641345117661481723 
-0.00000000000000006195 0.08834824343187444584 -0.09950486321472769291 
0.00000000000000002462 0.10015659300439036516 -0.10238426520192844826 
-0.00000000000000005018 0.11280026589175201623 -0.10505842555012313844 
0.00000000000000012930 0.12626433416101123797 -0.10753396326793823734 
-0.00000000000000000153 0.14052856952119660572 -0.10981734784765528889 
-0.00000000000000001187 0.15556781989972093272 -0.11191489988911772213 
-0.00000000000000002439 0.17135242111290061029 -0.11383279236197416107 
0.00000000000000002888 0.18784863420994354910 -0.11557705241419914677 
-0.00000000000000010124 0.20501909977774784855 -0.11715356364135073863 
0.00000000000000012086 0.22282330126684732341 -0.11856806873747104125 
-0.00000000000000008950 0.24121803020900220438 -0.11982646065404013724 
0.00000000000000004488 0.26015784702088406988 -0.12093502557842253364 
-0.00000000000000001108 0.27959553190692332247 -0.12189792027368272220 
0.00000000000000007693 0.29948252117225204749 -0.12272035971555676770 
-0.00000000000000001418 0.31976932502173127659 -0.12340743440828051691 
0.00000000000000004019 0.34040592364416955018 -0.12396411401677057129 
-0.00000000000000005919 0.36134213905543904888 -0.12439525099309683975 
-0.00000000000000001637 0.38252798079585259572 -0.12470558416321397832 
-0.00000000000000006470 0.40391396414330993370 -0.12489974224444254369 
0.00000000000000003741 0.42545140001331693824 -0.12498224726846907107 
-0.00000000000000002330 0.44709265617021881623 -0.12495751788862351217 
0.00000000000000008327 0.46879138977208534289 -0.12482987255391153614 
-0.00000000000000007373 0.49050275161665701784 -0.12460353253572586940 
0.00000000000000006725 0.51218356275017706825 -0.12428262479634509530 
-0.00000000000000004801 0.53379246434786420394 -0.12387118469123231668 
0.00000000000000003546 0.55529004197754072703 -0.12337315849982286031 
-0.00000000000000012871 0.57663892552004514247 -0.12279240578188241328 
-0.00000000000000002011 0.59780386614513014720 -0.12213270155870441236 
0.00000000000000003143 0.61875179183317396969 -0.12139773832033719236 
0.00000000000000000206 0.63945184299478674550 -0.12059027305522368456 
-0.00000000000000007523 0.65987538977567461451 -0.11971418709456405072 
0.00000000000000009757 0.67999603264626184984 -0.11877351776321780352 
-0.00000000000000005263 0.69978958784670519666 -0.11777164007397163126 
0.00000000000000002571 0.71923404254054079665 -0.11671185429566881264 
-0.00000000000000003461 0.73830926236804794716 -0.11559738701361345348 
0.00000000000000006883 0.75699611968770541548 -0.11443139206190457158 
0.00000000000000005922 0.77527521100169938251 -0.11321695133733175598 
0.00000000000000010634 0.79312549860840642069 -0.11195707550480120396 
-0.00000000000000001806 0.81052310179583708649 -0.11065470460448227630 
0.00000000000000009102 0.82744036656487718329 -0.10931270857097252769 
-0.00000000000000004432 0.84384527377880835797 -0.10793388767478179213 
0.00000000000000007983 0.85970119759312169094 -0.10652097289635646671 
-0.00000000000000015497 0.87496699405032962726 -0.10507662624269663298 
0.00000000000000006183 0.88959737985993792009 -0.10360344101637755654 
0.00000000000000000726 0.90354355048032064524 -0.10210394204649342331 
0.00000000000000013587 0.91675398220518422576 -0.10058058589067805921 
-0.00000000000000003401 0.92917536310607962147 -0.09903576101695667211 
0.00000000000000012866 0.94075360090778992195 -0.09747178797374465853 
-0.00000000000000006355 0.95143486104297292361 -0.09589091955582723648 
0.00000000000000014315 0.96116659439701879197 -0.09429534097366319700 
-0.00000000000000005882 0.96989852819670718809 -0.09268717003282712918 
0.00000000000000002293 0.97758374975619388714 -0.09106845732988215480 
-0.00000000000000007749 0.98418023123463116431 -0.08944118647042073600 
0.00000000000000004081 0.98965271604712201636 -0.08780727431448018261 
-0.00000000000000001621 0.99397461695295030726 -0.08616857125398216799 
0.00000000000000005656 0.99712967421321485606 -0.08452686152631430638 
-0.00000000000000000366 0.99911322857560425081 -0.08288386356763413620 
0.00000000000000005985 0.99993304104859326298 -0.08124123040896227832 
-0.00000000000000005647 0.99960964579692446197 -0.07960055011761478505 
0.00000000000000008054 0.99817625928043085537 -0.07796334628604854877 
0.00000000000000000395 0.99567829218343539832 -0.07633107856970677840 
0.00000000000000009915 0.99217252410157918963 -0.07470514327501806551 
-0.00000000000000005213 0.98772600702677504358 -0.07308687399825729292 
0.00000000000000016171 0.98241476448831466239 -0.07147754231558425819 
-0.00000000000000013402 0.97632235039516590547 -0.06987835852418521065 
0.00000000000000014367 0.96953832643306525618 -0.06829047243409291923 
0.00000000000000003349 0.96215671025119642312 -0.06671497420992264504 
0.00000000000000009902 0.95427443933770228490 -0.06515289526146125776 
-0.00000000000000004709 0.94598988795084382186 -0.06360520918176133798 
0.00000000000000013871 0.93740146711288319104 -0.06207283273114343192 
-0.00000000000000000707 0.92860633073907683510 -0.06055662686526944866 
0.00000000000000014261 0.91969920462639842551 -0.05905739780525762206 
-0.00000000000000011695 0.91077134935877535060 -0.05757589814761891051 
0.00000000000000015356 0.90190966323911614388 -0.05611282801164118456 
-0.00000000000000017537 0.89319592713686069008 -0.05466883622171277851 
0.00000000000000009294 0.88470618961993829910 -0.05324452152196672283 
-0.00000000000000004367 0.87651028788024631933 -0.05184043382052919841 
0.00000000000000005288 0.86867149770870522030 -0.05045707546059308851 
-0.00000000000000002986 0.86124630406960855922 -0.04909490251547775352 
0.00000000000000003911 0.85428428260146493933 -0.04775432610480995210 
-0.00000000000000010522 0.84782808156996380955 -0.04643571372893490895 
0.00000000000000001982 0.84191349335711684887 -0.04513939061867641017 
-0.00000000000000005123 0.83656960443150318874 -0.04386564109756779795 
0.00000000000000003353 0.83181901285460557727 -0.04261470995371448300 
-0.00000000000000005758 0.82767810268894759229 -0.04138680381847903433 
0.00000000000000012507 0.82415736514172510674 -0.04018209254924094004 
-0.00000000000000009790 0.82126175686445768154 -0.03900071061354018487 
-0.00000000000000001917 0.81899108650142293797 -0.03784275847198727977 
-0.00000000000000002868 0.81734042130852746499 -0.03670830395740656144 
0.00000000000000010671 0.81630050642543894313 -0.03559795677050217599 
0.00000000000000001607 0.81585819015690708156 -0.03451195407863100195 
0.00000000000000006635 0.81599684938755645547 -0.03344939376058294472 
-0.00000000000000002397 0.81669681000461225029 -0.03241023089130826845 
0.00000000000000006561 0.81793575792449635387 -0.03139439446286384355 
-0.00000000000000001162 0.81968913700400747313 -0.03040178870337376799 
0.00000000000000009002 0.82193053075905353477 -0.02943229437678846622 
0.00000000000000002318 0.82463202540970192977 -0.02848577006175937246 
0.00000000000000012324 0.82776455231728762740 -0.02756205340807950724 
-0.00000000000000013942 0.83129820837640822084 -0.02666096236924619944 
0.00000000000000007509 0.83520255337187554456 -0.02578229640981927889 
0.00000000000000003818 0.83944688370897557750 -0.02492583768637577149 
0.00000000000000009083 0.84400048227629365094 -0.02409135220096190674 
-0.00000000000000002882 0.84883284450599416626 -0.02327859092607004188 
0.00000000000000004463 0.85391388095927811541 -0.02248729090026994892 
-0.00000000000000006808 0.85921409698758577367 -0.02171717629374144212 
0.00000000000000017418 0.86470475020581805126 -0.02096795944305252304 
-0.00000000000000012920 0.87035798666552921521 -0.02023905365546333629 
0.00000000000000004162 0.87614695673664577669 -0.01952933440425969752 
-0.00000000000000006240 0.88204591179887248398 -0.01883966631228447403 
0.00000000000000010221 0.88803028291141505868 -0.01816971993279484221 
-0.00000000000000013227 0.89407674001237580352 -0.01751915889651169470 
0.00000000000000010499 0.90016312963116040802 -0.01688764074334698703 
-0.00000000000000000041 0.90626792465111438712 -0.01627481772198719617 
0.00000000000000011020 0.91236913749643056004 -0.01568033755739260682 
-0.00000000000000002051 0.91844303027243456850 -0.01510384418633207125 
0.00000000000000012202 0.92446289400040793094 -0.01454497846115902944 
0.00000000000000006177 0.93039806074046726980 -0.01400337882208377641 
0.00000000000000004817 0.93621323325848948560 -0.01347868193826576126 
0.00000000000000009777 0.94186816112282856217 -0.01297052331810376324 
0.00000000000000009484 0.94731765427417180536 -0.01247853788915481016 
-0.00000000000000000771 0.95251190084978720751 -0.01200236054815795317 
0.00000000000000011486 0.95739704190817054297 -0.01154162668168566726 
-0.00000000000000015004 0.96191594896800258763 -0.01109597265798589055 
0.00000000000000006896 0.96600914881559474257 -0.01066503629061089052 
-0.00000000000000007486 0.96961584219690155617 -0.01024845727446369904 
0.00000000000000007844 0.97267496752920867831 -0.00984587759492574696 
0.00000000000000002133 0.97512626668886082104 -0.00945694191074110749 
0.00000000000000008867 0.97691131671805209180 -0.00908129791137591603 
-0.00000000000000003918 0.97797453200336659229 -0.00871859664956830226 
0.00000000000000015582 0.97826439596369296758 -0.00836849284981774390 
-0.00000000000000012195 0.97773516785315672806 -0.00803064519356090113 
-0.00000000000000000058 0.97634880574760640748 -0.00770471658180544618 
-0.00000000000000012800 0.97407678268801134447 -0.00739037437598756737 
-0.00000000000000002134 0.97090159174911061513 -0.00708729061782997511 
-0.00000000000000009051 0.96681782960427120610 -0.00679514222898335712 
0.00000000000000006381 0.96183281538852249959 -0.00651361119122339464 
-0.00000000000000000330 0.95596674830785477450 -0.00624238470798541521 
0.00000000000000015857 0.94925243832037353719 -0.00598115534800792038 
-0.00000000000000014176 0.94173466317664533687 -0.00572962117185046426 
0.00000000000000006693 0.93346921521527870258 -0.00548748584205020675 
-0.00000000000000009313 0.92452170498254315767 -0.00525445871766264030 
0.00000000000000009028 0.91496618787338146461 -0.00503025493393421345 
-0.00000000000000010453 0.90488367604135278022 -0.00481459546782742227 
0.00000000000000002447 0.89436059191951366998 -0.00460720719012409994 
-0.00000000000000010797 0.88348721268024521525 -0.00440782290480254239 
0.00000000000000005669 0.87235614746747547343 -0.00421618137637964994 
0.00000000000000000213 0.86106088171397432429 -0.00403202734588980864 
0.00000000000000009680 0.84969441562752712205 -0.00385511153615561474 
-0.00000000000000006972 0.83834801720523011159 -0.00368519064699070718 
0.00000000000000008479 0.82711010404605112001 -0.00352202734095556289 
-0.00000000000000011787 0.81606526284791414128 -0.00336539022026733714 
0.00000000000000008358 0.80529341082108263361 -0.00321505379545580739 
-0.00000000000000003936 0.79486909931560090214 -0.00307079844632018395 
-0.00000000000000000611 0.78486095671505418103 -0.00293241037574748812 
-0.00000000000000012005 0.77533126504439109361 -0.00279968155690997651 
0.00000000000000003907 0.76633566271918274193 -0.00267240967435855700 
-0.00000000000000005725 0.75792296436552653027 -0.00255039805949597125 
0.00000000000000005968 0.75013508760047609147 -0.00243345562090842901 
-0.00000000000000008654 0.74300707601982218797 -0.00232139676999864718 
0.00000000000000006865 0.73656720733339753338 -0.00221404134236168797 
0.00000000000000000580 0.73083717556178184882 -0.00211121451531416648 
0.00000000000000006545 0.72583233641082556264 -0.00201274672196999523 
-0.00000000000000006836 0.72156200532523395719 -0.00191847356224868551 
0.00000000000000001898 0.71802979824811719034 -0.00182823571116599273 
0.00000000000000000322 0.71523400574348228176 -0.00174187882475591079 
0.00000000000000004046 0.71316799184157175784 -0.00165925344394696759 
-0.00000000000000004707 0.71182060971579186326 -0.00158021489669948390 
-0.00000000000000000707 0.71117662707199180705 -0.00150603179508876730 
0.00000000000000001781 0.71121715490727410725 -0.00143508176645472732 
0.00000000000000007466 0.71192007406097856936 -0.00136723810824612604 
-0.00000000000000010025 0.71326045472282995075 -0.00130237828537036133 
0.00000000000000008309 0.71521096477302992245 -0.00124038383821195174 
-0.00000000000000000097 0.71774226349921099732 -0.00118114028995516688 
0.00000000000000008538 0.72082337786072403496 -0.00112453705342962086 
-0.00000000000000014226 0.72442205904838752328 -0.00107046733768523033 
0.00000000000000004851 0.72850511761586389525 -0.00101882805449222025 
-0.00000000000000002435 0.73303873593664037323 -0.00096951972494231946 
0.00000000000000007115 0.73798875716862810670 -0.00092244638632020710 
0.00000000000000002706 0.74332095028786304702 -0.00087751549940105137 
-0.00000000000000010548 0.74900125108553339270 -0.00083463785631734770 
-0.00000000000000012050 0.75499597931084416746 -0.00079372748912438611 
-0.00000000000000001487 0.76127203238873897284 -0.00075470157919286184 
-0.00000000000000001307 0.76779705634903461231 -0.00071748036753291973 
-0.00000000000000002865 0.77453959477511868936 -0.00068198706615795010 
-0.00000000000000006977 0.78146921671904401308 -0.00064757464783415193 
0.00000000000000004968 0.78855662463867615131 -0.00061394152537230893 
-0.00000000000000010580 0.79577374349449070401 -0.00058189957537876371 
-0.00000000000000002490 0.80309379218064236294 -0.00055137891045005806 
-0.00000000000000014410 0.81049132180932970115 -0.00052231240155730752 
-0.00000000000000009649 0.81794200326296762071 -0.00049463558696155520 
-0.00000000000000010066 0.82542183207942632084 -0.00046828658310281630 
-0.00000000000000001855 0.83290591899244925678 -0.00044320599749781146 
-0.00000000000000006965 0.84036720104149709165 -0.00041933684365052620 
0.00000000000000000386 0.84777529847747623570 -0.00039662445799513806 
-0.00000000000000006164 0.85509564640289559279 -0.00037501641886945972 
-0.00000000000000010856 0.86228896102611929386 -0.00035446246752690049 
-0.00000000000000010785 0.86931105239680239727 -0.00033491443117861745 
0.00000000000000000752 0.87611296354671619468 -0.00031632614806346136 
0.00000000000000001503 0.88264139611883651870 -0.00029865339453385189 
0.00000000000000004234 0.88883937168426607744 -0.00028185381414326570 
-0.00000000000000014333 0.89464707354977857090 -0.00026588684872287319 
0.00000000000000002959 0.90000281402211690374 -0.00025071367142424461 
-0.00000000000000017707 0.90484407533264810120 -0.00023629712170978245 
-0.00000000000000003607 0.90910857760532814975 -0.00022260164226573217 
-0.00000000000000010827 0.91273533352319280443 -0.00020959321781191669 
-0.00000000000000002726 0.91566566329698528826 -0.00019723931578233945 
-0.00000000000000015789 0.91784429980347170819 -0.00018550882884590226 
0.00000000000000003439 0.91922093220418599202 -0.00017437201923702829 
-0.00000000000000013058 0.91975210884373981290 -0.00016380046486407567 
-0.00000000000000006733 0.91940314960878877226 -0.00015376700716473335 
-0.00000000000000014162 0.91814981629551151165 -0.00014424570066991609 
-0.00000000000000008377 0.91597959589669253333 -0.00013521176424518709 
-0.00000000000000023690 0.91289252892074290724 -0.00012664153397334767 
-0.00000000000000003793 0.90890156922059661682 -0.00011851241764090872 
-0.00000000000000008651 0.90403249859596490623 -0.00011080285079202895 
-0.00000000000000002975 0.89832344285243670434 -0.00010349225431513817 
-0.00000000000000011567 0.89182404941495141415 -0.00009656099352294604 
-0.00000000000000000295 0.88459439266105810429 -0.00008999033868718981 
-0.00000000000000012806 0.87670367395051185255 -0.00008376242699600641 
-0.00000000000000001873 0.86822878050838836472 -0.00007786022589141791 
-0.00000000000000011173 0.85925276212092582817 -0.00007226749775073304 
-0.00000000000000008202 0.84986327797794769534 -0.00006696876587909738 
-0.00000000000000018462 0.84015105865357431192 -0.00006194928176888447 
-0.00000000000000003302 0.83020842067796607466 -0.00005719499359702503 
-0.00000000000000001820 0.82012786378664315201 -0.00005269251591906920 
-0.00000000000000008125 0.81000077399289893698 -0.00004842910052596238 
-0.00000000000000006859 0.79991624927487925412 -0.00004439260842940588 
-0.00000000000000013852 0.78996005899505183923 -0.00004057148293808124 
-0.00000000000000009917 0.78021374321748482306 -0.00003695472379409343 
-0.00000000000000010971 0.77075385386124128928 -0.00003353186233212929 
-0.00000000000000012954 0.76165133610300039813 -0.00003029293763253714 
-0.00000000000000012635 0.75297104557716798556 -0.00002722847363087845 
-0.00000000000000012812 0.74477139466385977595 -0.00002432945715651807 
-0.00000000000000008118 0.73710411944424014674 -0.00002158731686596123 
-0.00000000000000010595 0.73001415767591260053 -0.00001899390304192509 
-0.00000000000000000659 0.72353962733547338981 -0.00001654146822837088 
-0.00000000000000010845 0.71771189483002428844 -0.00001422264867008954 
0.00000000000000003154 0.71255572183688042909 -0.00001203044653158464 
-0.00000000000000010851 0.70808947983754311206 -0.00000995821286575056 
-0.00000000000000007726 0.70432542171982615020 -0.00000799963130300743 
-0.00000000000000015106 0.70127000028733010861 -0.00000614870244026311 
-0.00000000000000007386 0.69892422409986243448 -0.00000439972889693455 
-0.00000000000000011525 0.69728404173846381120 -0.00000274730101935830 
-0.00000000000000008699 0.69634074631564402136 -0.00000118628320457825 
-0.00000000000000008804 0.69608139281086189865 0.00000000000000000000 
-0.00000000000000012722 0.69648922158288606443 0.00000000000000010886 
-0.00000000000000012628 0.69754408217769803269 0.00000000000000021773 
-0.00000000000000004012 0.69922285229966130160 0.00000000000000021773 
-0.00000000000000012400 0.70149984753420113748 0.00000000000000027216 
0.00000000000000001759 0.70434721809423750383 0.00000000000000010886 
-0.00000000000000021699 0.70773532950424022925 0.00000000000000010886 
-0.00000000000000006083 0.71163312473109896494 0.00000000000000010886 
-0.00000000000000018093 0.71600846581761434795 0.00000000000000005443 
-0.00000000000000019767 0.72082845357128921826 0.00000000000000016329 
-0.00000000000000013932 0.72605972430822651731 0.00000000000000010886 
-0.00000000000000011281 0.73166872305020336231 0.00000000000000021773 
-0.00000000000000007354 0.73762195292397847446 0.00000000000000016329 
-0.00000000000000009697 0.74388620081768308534 0.00000000000000010886 
-0.00000000000000017924 0.75042873961221590040 0.00000000000000016329 
-0.00000000000000008611 0.75721750752869054768 0.00000000000000010886 
-0.00000000000000010067 0.76422126531906120483 0.00000000000000016329 
-0.00000000000000006085 0.77140973217910779880 0.00000000000000021773 
-0.00000000000000000432 0.77875370138402333353 0.00000000000000005443 
-0.00000000000000014556 0.78622513673990501726 0.00000000000000005443 
-0.00000000000000017570 0.79379725101242770702 0.00000000000000005443 
-0.00000000000000010480 0.80144456487721804638 0.00000000000000005443 
-0.00000000000000010961 0.80914284436895189678 0.00000000000000021773 
-0.00000000000000007330 0.81686855036063277247 0.00000000000000021773 
-0.00000000000000008570 0.82459775144185898377 0.00000000000000016329 
-0.00000000000000007866 0.83230483372050045876 0.00000000000000027216 
-0.00000000000000004899 0.83996127968480782666 0.00000000000000005443 
-0.00000000000000008533 0.84753467991584019448 0.00000000000000010886 
-0.00000000000000007318 0.85498806230311963361 0.00000000000000005443 
-0.00000000000000010332 0.86227956764665192324 0.00000000000000005443 
-0.00000000000000004885 0.86936246268656391933 0.00000000000000005443 
-0.00000000000000009450 0.87618545733997166280 0.00000000000000021773 
-0.00000000000000022124 0.88269327878990877512 0.00000000000000016329 
-0.00000000000000003364 0.88882744833945492857 0.00000000000000000000 
-0.00000000000000008519 0.89452720548490982644 0.00000000000000005443 
-0.00000000000000004581 0.89973052582410295575 0.00000000000000005443 
-0.00000000000000023640 0.90437518393534410688 0.00000000000000005443 
0.00000000000000000285 0.90839981828409144260 0.00000000000000005443 
-0.00000000000000016670 0.91174496182937647681 0.00000000000000005443 
-0.00000000000000007588 0.91435400879616457459 0.00000000000000005443 
-0.00000000000000012141 0.91617409469127331079 0.00000000000000010886 
-0.00000000000000018156 0.91715687282561719762 0.00000000000000016329 
-0.00000000000000002422 0.91725917621138175484 0.00000000000000016329 
-0.00000000000000006363 0.91644355864472748507 0.00000000000000010886 
-0.00000000000000006666 0.91467871302900660702 0.00000000000000000000 
-0.00000000000000007308 0.91193976854327607473 0.00000000000000021773 
-0.00000000000000010579 0.90820847114485336871 0.00000000000000021773 
-0.00000000000000011528 0.90347325415870916032 0.00000000000000010886 
-0.00000000000000001497 0.89772920740722339517 0.00000000000000000000 
0.00000000000000003305 0.89097795453326866788 0.00000000000000010886 
0.00000000000000011528 0.88322744893182603132 0.00000000000000005443 
-0.00000000000000018514 0.87449169909347346241 0.00000000000000005443 
-0.00000000000000010892 0.86479043423757850917 0.00000000000000005443 
-0.00000000000000002082 0.85414872093029670097 0.00000000000000010886 
-0.00000000000000006350 0.84259654099412328865 0.00000000000000010886 
-0.00000000000000012815 0.83016834046823162474 0.00000000000000000000 
-0.00000000000000011326 0.81690255871314709779 0.00000000000000010886 
0.00000000000000001362 0.80284114600528122541 0.00000000000000005443 
-0.00000000000000009067 0.78802907716711689812 0.00000000000000000000 
-0.00000000000000005943 0.77251386795333254476 0.00000000000000005443 
-0.00000000000000008620 0.75634510008335376074 0.00000000000000016329 
0.00000000000000000849 0.73957395999423625188 0.00000000000000005443 
-0.00000000000000010373 0.72225279559829858034 0.00000000000000010886 
-0.00000000000000008887 0.70443469457829821501 0.00000000000000000000 
0.00000000000000001827 0.68617308704711865719 0.00000000000000005443 
-0.00000000000000006336 0.66752137474451034294 0.00000000000000005443 
0.00000000000000001396 0.64853258834393268106 0.00000000000000010886 
-0.00000000000000007130 0.62925907389983393170 0.00000000000000016329 
-0.00000000000000001972 0.60975220898021420535 0.00000000000000005443 
-0.00000000000000011426 0.59006214860030914426 0.00000000000000010886 
-0.00000000000000004743 0.57023760069911666459 0.00000000000000010886 
-0.00000000000000003114 0.55032563057891870084 0.00000000000000010886 
-0.00000000000000008558 0.53037149345606482420 0.00000000000000010886 
-0.00000000000000017606 0.51041849404587791295 0.00000000000000000000 
-0.00000000000000001239 0.49050787192210826282 0.00000000000000005443 
-0.00000000000000001240 0.47067871124832577623 0.00000000000000000000 
-0.00000000000000007442 0.45096787337130878059 0.00000000000000000000 
-0.00000000000000004723 0.43140995069126003569 0.00000000000000016329 
-0.00000000000000002994 0.41203837346305227651 0.00000000000000005443 
-0.00000000000000012398 0.39288221370798176446 0.00000000000000005443 
0.00000000000000001848 0.37396888113303211609 0.00000000000000000000 
-0.00000000000000003961 0.35532380320804368701 0.00000000000000010886 
-0.00000000000000012766 0.33697016932072110240 -0.00000000000000005443 
-0.00000000000000004368 0.31892897799742092602 0.00000000000000010886 
-0.00000000000000018353 0.30121909418759668098 0.00000000000000000000 
-0.00000000000000011753 0.28385731518879925295 -0.00000000000000010886 
-0.00000000000000001395 0.26685844386385859650 0.00000000000000010886 
-0.00000000000000014395 0.25023536788151912180 0.00000000000000010886 
-0.00000000000000008416 0.23399914379481420723 0.00000000000000021773 
-0.00000000000000004830 0.21815908485645965631 0.00000000000000010886 
-0.00000000000000005312 0.20272285155629765629 0.00000000000000010886 
-0.00000000000000006077 0.18769654395131660229 -0.00000000000000010886 
-0.00000000000000012711 0.17308479494310904934 -0.00000000000000005443 
-0.00000000000000009431 0.15889086374006183844 0.00000000000000000000 
-0.00000000000000006076 0.14511672882149748154 -0.00000000000000010886 
-0.00000000000000021345 0.13176317979789453627 0.00000000000000000000 
-0.00000000000000007368 0.11882990763481296459 0.00000000000000005443 
0.00000000000000000000 0.10631559277794114249 0.00000000000000021773 
-0.00000000000000002285 0.09421799078253882687 0.00000000079597683544 
-0.00000000000000014653 0.08253401511233880716 0.00000006784914630093 
-0.00000000000000012960 0.07125981683059233462 0.00000079370838099062 
-0.00000000000000005013 0.06039086095938196036 0.00000432273342663684 
-0.00000000000000011498 0.04992199933259681977 0.00001563543363215116 
-0.00000000000000007526 0.03984753981311876803 0.00004379758461553841 
-0.00000000000000012144 0.03016131178591807682 0.00010299229227336409 
-0.00000000000000006277 0.02085672787598184461 0.00021323770566557227 
-0.00000000000000007325 0.01192684187349115320 0.00040075300034998540 
-0.00000000000000004186 0.00336440287853201478 0.00069797624787194508 
-0.00000000000000003770 -0.00483809429592129206 0.00114326440551587756 
-0.00000000000000019675 -0.01268836240081419077 0.00178032152227746007 
0.00000000000000003164 -0.02019427862553765246 0.00265740922116957127 
-0.00000000000000000808 -0.02736384497082455791 0.00382639582484285310 
-0.00000000000000009845 -0.03420515200608240797 0.00534169888047874609 
0.00000000000000003558 -0.04072634588511755971 0.00725917164668243679 
-0.00000000000000004606 -0.04693559848439349952 0.00963497834152960732 
-0.00000000000000011109 -0.05284108052026688374 0.01252449637096654349 
-0.00000000000000015056 -0.05845093749586714044 0.01598127691025289301 
-0.00000000000000001406 -0.06377326832426974401 0.02005608848767222174 
-0.00000000000000007571 -0.06881610647217820120 0.02479606188439718861 
-0.00000000000000002130 -0.07358740346732009496 0.03024394888652221641 
-0.00000000000000009161 -0.07809501461303443304 0.03643750230164839038 
-0.00000000000000008396 -0.08234668675491108036 0.04340898022576279713 
-0.00000000000000011253 -0.08635004794673115103 0.05118477381991593661 
0.00000000000000000280 -0.09011259886620683057 0.05978515480596952730 
-0.00000000000000008141 -0.09364170583499829836 0.06922413647335458331 
-0.00000000000000002959 -0.09694459530211428644 0.07950944014943436833 
-0.00000000000000003150 -0.10002834965494336594 0.09064255776328100644 
-0.00000000000000000429 -0.10289990422774129841 0.10261890026251145602 
-0.00000000000000007599 -0.10556604538332144128 0.11542802116167992510 
0.00000000000000000032 -0.10803340954987765421 0.12905390434737978866 
-0.00000000000000005625 -0.11030848310123533840 0.14347530538226774266 
-0.00000000000000006396 -0.11239760297532923328 0.15866613588493183595 
-0.00000000000000012586 -0.11430695793224941725 0.17459588106728557433 
0.00000000000000004439 -0.11604259035976963177 0.19123004114374123064 
0.00000000000000006676 -0.11761039854078947364 0.20853058804985830088 
0.00000000000000003377 -0.11901613930356166882 0.22645642969068030537 
-0.00000000000000008303 -0.12026543098189883263 0.24496387475360439923 
-0.00000000000000015014 -0.12136375661871807996 0.26400709194493893195 
0.00000000000000005801 -0.12231732215881203907 0.28353855832487473432 
-0.00000000000000006364 -0.12313100178808579488 0.30350949220777412307 
-0.00000000000000004122 -0.12380931138386541690 0.32387026685198605502 
-0.00000000000000014528 -0.12435723180230824625 0.34457080187727329168 
0.00000000000000001350 -0.12477962614129015084 0.36556093001222339511 
-0.00000000000000016275 -0.12508124333480097334 0.38679073738473612742 
-0.00000000000000004287 -0.12526672167879832065 0.40821087612354584051 
-0.00000000000000001562 -0.12534059226323732150 0.42977284853701336331 
-0.00000000000000006355 -0.12530728228898291299 0.45142926257750592978 
-0.00000000000000012272 -0.12517111825203486308 0.47313405868697000489 
-0.00000000000000005381 -0.12493632898094271522 0.49484270845394445759 
-0.00000000000000001048 -0.12460704851646357827 0.51651238579691716168 
-0.00000000000000001715 -0.12418731882543887490 0.53810211162675758434 
-0.00000000000000004771 -0.12368109234351946923 0.55957287313529824324 
-0.00000000000000006818 -0.12309223434378829820 0.58088771901155877853 
-0.00000000000000000769 -0.12242452513049227603 0.60201183200519403638 
0.00000000000000008676 -0.12168166205904160093 0.62291258034213126127 
-0.00000000000000004603 -0.12086668826241099561 0.64355954955353622537 
-0.00000000000000006397 -0.11998291009939333895 0.66392455630965330204 
-0.00000000000000008248 -0.11903466678523758060 0.68398164585794030135 
-0.00000000000000005641 -0.11802533661540101639 0.70370707448134273143 
-0.00000000000000003682 -0.11695822279185247305 0.72307924444859750235 
-0.00000000000000006724 -0.11583655449673155302 0.74207831101265031570 
-0.00000000000000000965 -0.11466348783791628640 0.76068520057666444423 
-0.00000000000000002022 -0.11344210667610057919 0.77888028922705421220 
-0.00000000000000006569 -0.11217542334332387954 0.79664205980003643948 
-0.00000000000000014048 -0.11086637926311432301 0.81394594102201178742 
-0.00000000000000001283 -0.10951784548251854157 0.83076344193198170540 
0.00000000000000005443 -0.10813262312629892681 0.84706163036541959332 
-0.00000000000000000209 -0.10671344378349398307 0.86280295981415244810 
-0.00000000000000012612 -0.10526296983637462024 0.87794541971707773520 
0.00000000000000000303 -0.10378379474159635243 0.89244296639221132317 
-0.00000000000000001286 -0.10227844327303846350 0.90624618239361753869 
0.00000000000000002871 -0.10074937173547957037 0.91930310871394216310 
-0.00000000000000001435 -0.09919896815784548516 0.93156019512378918090 
-0.00000000000000004558 -0.09762955247433202643 0.94296331763400775827 
-0.00000000000000009084 -0.09604337670123332116 0.95345881751541572413 
-0.00000000000000006764 -0.09444262511679930860 0.96299452273290875315 
0.00000000000000003744 -0.09282941445094035349 0.97152073611105604911 
-0.00000000000000002019 -0.09120579409105467050 0.97899138338664848380 
0.00000000000000012592 -0.08957374630971833007 0.98536563503107554851 
-0.00000000000000009311 -0.08793518651943578457 0.99060982130685049096 
-0.00000000000000012337 -0.08629196355909889149 0.99469929862130879172 
-0.00000000000000003446 -0.08464586001627023848 0.99762003942124033440 
0.00000000000000000562 -0.08299859258887241908 0.99936981794662993472 
0.00000000000000004002 -0.08135181248934322817 0.99995893632163967979 
-0.00000000000000007887 -0.07970710589381758970 0.99941048593051384774 
0.00000000000000002285 -0.07806599443840017694 0.99776017283596540874 
0.00000000000000002859 -0.07642993576413055490 0.99505575717733540930 
-0.00000000000000000850 -0.07480032411178477725 0.99135616824348482545 
-0.00000000000000001293 -0.07317849096723488822 0.98673036178700435084 
0.00000000000000001428 -0.07156570575768114728 0.98125598612066033954 
-0.00000000000000006469 -0.06996317659869004391 0.97501792015875154984 
-0.00000000000000004269 -0.06837205109161524630 0.96810674102154692378 
-0.00000000000000003443 -0.06679341717064830874 0.96061717200873342204 
-0.00000000000000008146 -0.06522830399843995708 0.95264655433661449280 
-0.00000000000000006608 -0.06367768290895155225 0.94429337851054040431 
-0.00000000000000003940 -0.06214246839594444322 0.93565590391237030143 
-0.00000000000000010808 -0.06062351914528031627 0.92683088835499527480 
-0.00000000000000006966 -0.05912163910900709168 0.91791244313861752868 
-0.00000000000000002422 -0.05763757861901883800 0.90899102361796957350 
0.00000000000000008463 -0.05617203553792424198 0.90015256048886849172 
-0.00000000000000006403 -0.05472565644462171197 0.89147773292384280275 
-0.00000000000000007557 -0.05329903785196975913 0.88304138130253395644 
0.00000000000000006290 -0.05189272745384566898 0.87491205454868681279 
-0.00000000000000005357 -0.05050722539881871004 0.86715168494677408173 
-0.00000000000000005285 -0.04914298558761114044 0.85981538170678339927 
-0.00000000000000003588 -0.04780041699148201984 0.85295133341237416857 
-0.00000000000000000376 -0.04647988498866019447 0.84660080876281029738 
-0.00000000000000004612 -0.04518171271594390026 0.84079824464247121529 
0.00000000000000008696 -0.04390618243260467624 0.83557141046657412708 
-0.00000000000000007276 -0.04265353689375606105 0.83094163790564357086 
0.00000000000000016980 -0.04142398073039198214 0.82692410543675798351 
-0.00000000000000001185 -0.04021768183335069913 0.82352816766426750750 
-0.00000000000000003373 -0.03903477273851994889 0.82075771995910329348 
-0.00000000000000010923 -0.03787535201067756402 0.81861158965153568712 
0.00000000000000004676 -0.03673948562343464647 0.81708394574938625343 
-0.00000000000000002722 -0.03562749653202117867 0.81616471991877537207 
-0.00000000000000002309 -0.03454020581461104966 0.81584003223785073189 
0.00000000000000000539 -0.03347640798242391275 0.81609261599965310374 
0.00000000000000002489 -0.03243605644707807378 0.81690223658545624286 
-0.00000000000000000423 -0.03141907857412550020 0.81824610014462884067 
-0.00000000000000001531 -0.03042537700228433936 0.82009924849373350142 
-0.00000000000000007948 -0.02945483094337553176 0.82243493728080363514 
0.00000000000000007402 -0.02850729746130199749 0.82522499504692048422 
-0.00000000000000006533 -0.02758261272850977275 0.82844016135424525249 
0.00000000000000006093 -0.02668059325850174329 0.83205040263675722478 
0.00000000000000005443 -0.02580103711308406531 0.83602520486730058646 
-0.00000000000000009921 -0.02494372508314181974 0.84033384252319909269 
0.00000000000000004135 -0.02410842184186001713 0.84494562367437198169 
-0.00000000000000010688 -0.02329487706941243269 0.84983011131474062161 
-0.00000000000000002132 -0.02250282654826123857 0.85495732131233337370 
0.00000000000000005818 -0.02173199322830923763 0.86029789756866370531 
-0.00000000000000005255 -0.02098208826126101226 0.86582326515662422217 
0.00000000000000003173 -0.02025281200364761197 0.87150576235135013281 
0.00000000000000004788 -0.01954272170201589928 0.87731875258328273492 
0.00000000000000008064 -0.01885242002704032305 0.88323671742999487755 
0.00000000000000000025 -0.01818186790621497892 0.88923533182550995591 
-0.00000000000000002676 -0.01753072787061665805 0.89529151549709073965 
-0.00000000000000011276 -0.01689865639686957341 0.90138330515432019130 
0.00000000000000010230 -0.01628530470593752069 0.90748917998167955012 
-0.00000000000000005969 -0.01569031952981765968 0.91358690645573037425 
0.00000000000000011350 -0.01511334384627129566 0.91965224445198379133 
0.00000000000000008010 -0.01455401758178640620 0.92565776287297074632 
0.00000000000000015483 -0.01401197828303580792 0.93157191059054123006 
-0.00000000000000000550 -0.01348686175715658672 0.93735841452652413075 
0.00000000000000000520 -0.01297830268122612124 0.94297602490826226695 
-0.00000000000000004696 -0.01248593518137152900 0.94837859292578885473 
-0.00000000000000000657 -0.01200939338198690406 0.95351544403141852424 
0.00000000000000004871 -0.01154831192558466654 0.95833199766503773809 
0.00000000000000004815 -0.01110232646384267004 0.96277057866435433731 
0.00000000000000012096 -0.01067107412044733181 0.96677136500243399109 
-0.00000000000000003435 -0.01025419392636286488 0.97027341921840615235 
-0.00000000000000012626 -0.00985132722818844904 0.97321575577439933813 
0.00000000000000009363 -0.00946211807028767005 0.97553840285348603079 
-0.00000000000000005154 -0.00908621355139850595 0.97718345771544912193 
-0.00000000000000001357 -0.00872326415645008867 0.97809638938295573318 
-0.00000000000000008121 -0.00837292406432729730 0.97822782935599461585 
-0.00000000000000005510 -0.00803485143233879408 0.97753558698852516251 
-0.00000000000000002078 -0.00770870865815296777 0.97598656260205973734 
-0.00000000000000004829 -0.00739416261997152390 0.97355835076529639860 
-0.00000000000000001235 -0.00709088489572101775 0.97024042052598680197 
-0.00000000000000000644 -0.00679855196203650852 0.96603482714192978609 
-0.00000000000000001974 -0.00651684537381997785 0.96095645699588616573 
0.00000000000000007996 -0.00624545192514880821 0.95503283870264255029 
0.00000000000000010225 -0.00598406379230805203 0.94830357277408794392 
0.00000000000000003956 -0.00573237865971291862 0.94081944266151462664 
-0.00000000000000010077 -0.00549009982948311676 0.93264127396140550363 
-0.00000000000000001894 -0.00525693631541867667 0.92383860794567462804 
0.00000000000000002050 -0.00503260292211952370 0.91448825182894577512 
-0.00000000000000007518 -0.00481682030997590983 0.90467276244040073507 
0.00000000000000001212 -0.00460931504674884016 0.89447891307754834322 
0.00000000000000020920 -0.00440981964644074440 0.88399618591608286611 
0.00000000000000002093 -0.00421807259614527010 0.87331532489243046680 
0.00000000000000017377 -0.00403381837154766307 0.86252697678574241635 
0.00000000000000001146 -0.00385680744173287626 0.85172044152024473096 
0.00000000000000013459 -0.00368679626393814044 0.84098254662157112538 
-0.00000000000000010109 -0.00352354726887284643 0.83039665536499318588 
0.00000000000000000518 -0.00336682883720751044 0.82004181347626048382 
0.00000000000000001214 -0.00321641526781937283 0.80999203528072061253 
-0.00000000000000002875 -0.00307208673835627447 0.80031572691366392736 
0.00000000000000007273 -0.00293362925867055166 0.79107524155884956230 
0.00000000000000002463 -0.00280083461764837893 0.78232655961760066976 
0.00000000000000009372 -0.00267350032394473181 0.77411908516719007967 
0.00000000000000012161 -0.00255142954111362312 0.76649554898212179932 
0.00000000000000008057 -0.00243443101760412294 0.75949200770376834591 
0.00000000000000005981 -0.00232231901207477758 0.75313792839340654162 
0.00000000000000010759 -0.00221491321445808041 0.74745634763558355118 
-0.00000000000000006039 -0.00211203866318998915 0.74246409452175410326 
0.00000000000000009296 -0.00201352565900065998 0.73817206719207351107 
-0.00000000000000004913 -0.00191920967564160436 0.73458555310477269273 
0.00000000000000001192 -0.00182893126791169045 0.73170458380141045751 
0.00000000000000007962 -0.00174253597732134096 0.72952431561093644685 
0.00000000000000005260 -0.00165987423572067582 0.72803542845896285218 
-0.00000000000000002838 -0.00158080126719909613 0.72722453569810285856 
-0.00000000000000001168 -0.00150603179508879050 0.72707459863181667092 
-0.00000000000000000034 -0.00143508176645478153 0.72756534015242502189 
0.00000000000000004199 -0.00136723810824624444 0.72867365264149741577 
-0.00000000000000006197 -0.00130237828537024705 0.73037399597804519846 
-0.00000000000000001575 -0.00124038383821190252 0.73263878215966915519 
0.00000000000000008265 -0.00118114028995528050 0.73543874365881556354 
0.00000000000000010572 -0.00112453705342966726 0.73874328320718030128 
0.00000000000000002070 -0.00107046733768523922 0.74252080322412095104 
-0.00000000000000002743 -0.00101882805449229007 0.74673901357893246455 
0.00000000000000005280 -0.00096951972494231946 0.75136521680233003817 
0.00000000000000002227 -0.00092244638632015983 0.75636657024046327624 
0.00000000000000012244 -0.00087751549940123482 0.76171032497701085529 
0.00000000000000001769 -0.00083463785631731474 0.76736404163749594165 
0.00000000000000009203 -0.00079372748912442601 0.77329578343745020153 
-0.00000000000000004033 -0.00075470157919277044 0.77947428704517718323 
-0.00000000000000001686 -0.00071748036753309851 0.78586911200351938778 
-0.00000000000000000058 -0.00068198706615803847 0.79245076959616267409 
0.00000000000000006920 -0.00064757464783401564 0.79919083215559838518 
-0.00000000000000004255 -0.00061394152537219433 0.80606202389479164605 
0.00000000000000011492 -0.00058189957537900397 0.81303829438479102709 
0.00000000000000007602 -0.00055137891044996622 0.82009485914819546526 
0.00000000000000009482 -0.00052231240155737701 0.82720798973720865988 
0.00000000000000002994 -0.00049463558696149145 0.83435422131911296528 
-0.00000000000000001167 -0.00046828658310283603 0.84150914605218751774 
0.00000000000000007997 -0.00044320599749766569 0.84864612713051179593 
0.00000000000000001831 -0.00041933684365054550 0.85573515869151017821 
0.00000000000000004786 -0.00039662445799501576 0.86274200049530513912 
0.00000000000000001686 -0.00037501641886947875 0.86962764722905083747 
0.00000000000000000898 -0.00035446246752689816 0.87634814427972074213 
0.00000000000000005706 -0.00033491443117866641 0.88285472987866853156 
0.00000000000000012798 -0.00031632614806354354 0.88909426368253308137 
0.00000000000000001836 -0.00029865339453391418 0.89500989097419403340 
-0.00000000000000005573 -0.00028185381414339700 0.90054188727298112305 
-0.00000000000000008716 -0.00026588684872281491 0.90562862830880885845 
0.00000000000000013639 -0.00025071367142421387 0.91020763355436073994 
-0.00000000000000002295 -0.00023629712170972742 0.91421663669061004054 
0.00000000000000001481 -0.00022260164226580643 0.91759464265490653379 
-0.00000000000000006325 -0.00020959321781186796 0.92028294487078388109 
-0.00000000000000003479 -0.00019723931578234495 0.92222623252396662696 
-0.00000000000000002748 -0.00018550882884588312 0.92337413619351016436 
-0.00000000000000000135 -0.00017437201923694426 0.92368313263652579437 
0.00000000000000004202 -0.00016380046486413264 0.92311845890789889779 
0.00000000000000005534 -0.00015376700716485071 0.92165578436408324148 
0.00000000000000010854 -0.00014424570066995081 0.91928249546404461334 
0.00000000000000009691 -0.00013521176424522260 0.91599852548237625793 
0.00000000000000007641 -0.00012664153397332704 0.91181671561577859464 
0.00000000000000002638 -0.00011851241764073841 0.90676273075014801606 
0.00000000000000005496 -0.00011080285079193202 0.90087457657592751037 
-0.00000000000000007932 -0.00010349225431513365 0.89420177815376522545 
-0.00000000000000003565 -0.00009656099352283316 0.88680428610065520356 
-0.00000000000000000338 -0.00008999033868725983 0.87875117737811070384 
0.00000000000000004948 -0.00008376242699615142 0.87011921484465337695 
0.00000000000000004758 -0.00007786022589137480 0.86099132453706617163 
-0.00000000000000005914 -0.00007226749775077860 0.85145504301950969417 
0.00000000000000006509 -0.00006696876587905259 0.84160097979748205166 
-0.00000000000000006894 -0.00006194928176890904 0.83152133225458835231 
-0.00000000000000005184 -0.00005719499359698410 0.82130848320382487948 
0.00000000000000001276 -0.00005269251591900840 0.81105370420395528352 
-0.00000000000000001229 -0.00004842910052601357 0.80084598143748109145 
-0.00000000000000004258 -0.00004439260842949676 0.79077097527272266486 
-0.00000000000000003724 -0.00004057148293816460 0.78091011968005252797 
-0.00000000000000008660 -0.00003695472379399739 0.77133986344502492027 
0.00000000000000015225 -0.00003353186233212404 0.76213105159577010372 
-0.00000000000000000392 -0.00003029293763265488 0.75334844259695554758 
-0.00000000000000002202 -0.00002722847363097178 0.74505035460453694629 
0.00000000000000001141 -0.00002432945715660404 0.73728843236440499975 
0.00000000000000002666 -0.00002158731686613052 0.73010752511102428031 
0.00000000000000002910 -0.00001899390304205182 0.72354566501635886322 
-0.00000000000000006599 -0.00001654146822841478 0.71763413529385056133 
-0.00000000000000006120 -0.00001422264866998004 0.71239761691942082855 
0.00000000000000012071 -0.00001203044653163127 0.70785440303811064666 
-0.00000000000000001168 -0.00000995821286576751 0.70401667043256044298 
-0.00000000000000003818 -0.00000799963130288892 0.70089079789464459047 
-0.00000000000000001636 -0.00000614870244015980 0.69847772192577606276 
-0.00000000000000005432 -0.00000439972889696104 0.69677332086126797517 
0.00000000000000004462 -0.00000274730101954428 0.69576881924089584164 
-0.00000000000000001882 -0.00000118628320460620 0.69545120500706258948 
-0.00000000000000008282 0.00000000000000016991 0.69580365288339707242 
-0.00000000000000013300 0.00000000000000011188 0.69680594805348705645 
-0.00000000000000001128 0.00000000000000005797 0.69843490500835492263 
-0.00000000000000004772 0.00000000000000011114 0.70066477715166741724 
-0.00000000000000021650 0.00000000000000014852 0.70346765343553385730 
0.00000000000000002541 0.00000000000000002634 0.70681383894124782952 
0.00000000000000012046 0.00000000000000009117 0.71067221691454385279 
-0.00000000000000000816 0.00000000000000017235 0.71501059031143610056 
-0.00000000000000007947 0.00000000000000015114 0.71979600140749877557 
0.00000000000000002507 0.00000000000000012186 0.72499502847046737308 
0.00000000000000002628 0.00000000000000014861 0.73057405889423798762 
-0.00000000000000007804 0.00000000000000017270 0.73649953854325422853 
0.00000000000000001753 0.00000000000000012538 0.74273819736198876118 
-0.00000000000000010680 0.00000000000000010143 0.74925725156725697662 
-0.00000000000000008342 0.00000000000000006408 0.75602458296416463757 
-0.00000000000000008702 -0.00000000000000001003 0.76300889611253097655 
-0.00000000000000010092 0.00000000000000006052 0.77017985422264600981 
0.00000000000000008724 0.00000000000000019319 0.77750819478025257059 
-0.00000000000000012566 0.00000000000000011158 0.78496582599367337174 
0.00000000000000000114 0.00000000000000016626 0.79252590522396593187 
-0.00000000000000009551 0.00000000000000006432 0.80016289794220485376 
0.00000000000000008291 0.00000000000000003007 0.80785251519049483537 
0.00000000000000007167 0.00000000000000011204 0.81557116307773580566 
0.00000000000000002275 0.00000000000000009136 0.82329485567851445893 
-0.00000000000000001164 0.00000000000000019306 0.83099792485911239126 
-0.00000000000000000433 -0.00000000000000001689 0.83865179916721732667 
-0.00000000000000007131 0.00000000000000003678 0.84622401557480975143 
-0.00000000000000014618 0.00000000000000012877 0.85367754872670775779 
-0.00000000000000004324 0.00000000000000001267 0.86097048657751629186 
0.00000000000000018523 0.00000000000000008111 0.86805604345783782261 
0.00000000000000012873 0.00000000000000010235 0.87488287734898462222 
-0.00000000000000001733 0.00000000000000005170 0.88139566401066038459 
0.00000000000000003893 0.00000000000000014233 0.88753587387442001155 
-0.00000000000000011214 0.00000000000000002705 0.89324269615641904707 
0.00000000000000003213 0.00000000000000010854 0.89845405680525025627 
-0.00000000000000006905 0.00000000000000005400 0.90310768142008190917 
-0.00000000000000004160 0.00000000000000013545 0.90714216019591609186 
0.00000000000000000673 -0.00000000000000003398 0.91049797856776237825 
0.00000000000000013969 0.00000000000000005832 0.91311848401968154221 
-0.00000000000000001287 0.00000000000000001662 0.91495076613612369432 
-0.00000000000000005204 0.00000000000000015256 0.91594643315814161522 
-0.00000000000000004238 -0.00000000000000001633 0.91606227391292571749 
0.00000000000000010205 0.00000000000000009476 0.91526079892711331709 
-0.00000000000000000497 0.00000000000000016274 0.91351065877873416365 
0.00000000000000001051 -0.00000000000000001381 0.91078694129246995370 
0.00000000000000002663 -0.00000000000000001906 0.90707135206687905526 
0.00000000000000002701 0.00000000000000002878 0.90235228508632081557 
0.00000000000000001139 0.00000000000000008301 0.89662479187103860667 
0.00000000000000002888 0.00000000000000001003 0.88989045881832973262 
0.00000000000000001688 0.00000000000000002204 0.88215720314998236073 
-0.00000000000000003513 -0.00000000000000004754 0.87343899826930593289 
0.00000000000000006757 0.00000000000000009689 0.86375553940558558175 
-0.00000000000000009373 0.00000000000000007289 0.85313186024107301453 
0.00000000000000006466 -0.00000000000000004754 0.84159791082728885314 
0.00000000000000009498 -0.00000000000000005246 0.82918810654989805187 
-0.00000000000000002243 -0.00000000000000000508 0.81594085723575104918 
-0.00000000000000007998 0.00000000000000009695 0.80189808474766510749 
0.00000000000000006712 -0.00000000000000001567 0.78710473661279523050 
0.00000000000000001874 -0.00000000000000001508 0.77160830240494793220 
-0.00000000000000008631 0.00000000000000003717 0.75545833877139523249 
-0.00000000000000000308 0.00000000000000003837 0.73870600817816844952 
0.00000000000000004401 0.00000000000000000115 0.72140363565833265369 
0.00000000000000012699 0.00000000000000006235 0.70360428709611677611 
-0.00000000000000010192 0.00000000000000010073 0.68536137187395784753 
0.00000000000000007595 0.00000000000000003849 0.66672827205508400361 
-0.00000000000000013244 0.00000000000000004208 0.64775799967478575603 
0.00000000000000007569 0.00000000000000000455 0.62850288317079505696 
-0.00000000000000001635 0.00000000000000000941 0.60901428349771835613 
-0.00000000000000010985 0.00000000000000007528 0.58934234004144658847 
0.00000000000000004408 -0.00000000000000002160 0.56953574607536983088 
0.00000000000000009208 -0.00000000000000005910 0.54964155317862828376 
0.00000000000000006074 0.00000000000000005104 0.52970500376476947757 
-0.00000000000000000817 0.00000000000000003194 0.50976939064375359489 
-0.00000000000000004625 -0.00000000000000009854 0.48987594235783116225 
0.00000000000000012768 0.00000000000000009169 0.47006373288876007743 
0.00000000000000007816 0.00000000000000005154 0.45036961422651350384 
-0.00000000000000001658 -0.00000000000000003558 0.43082817021438651883 
-0.00000000000000007575 -0.00000000000000007813 0.41147169003872835491 
0.00000000000000000904 -0.00000000000000002037 0.39233156830635745882 
0.00000000000000006802 -0.00000000000000002031 0.37343400869548815102 
-0.00000000000000003770 0.00000000000000000501 0.35480443323566318581 
0.00000000000000003318 0.00000000000000002043 0.33646602653647139647 
0.00000000000000003326 0.00000000000000010368 0.31843978298261582660 
-0.00000000000000000989 0.00000000000000006293 0.30074456399268750806 
-0.00000000000000003428 -0.00000000000000002042 0.28339716391860692024 
0.00000000000000002908 0.00000000000000007292 0.26641238323741001093 
0.00000000000000008843 -0.00000000000000003061 0.24980310776670303086 
0.00000000000000000891 -0.00000000000000005118 0.23358039271812139348 
-0.00000000000000005104 0.00000000000000009523 0.21775355048811353975 
-0.00000000000000000763 0.00000000000000005632 0.20233024117112577422 
-0.00000000000000004266 0.00000000000000006528 0.18731656486575032350 
0.00000000000000004269 -0.00000000000000003065 0.17271715492873235265 
-0.00000000000000008611 -0.00000000000000000049 0.15853527141416362545 
0.00000000000000002851 0.00000000000000004276 0.14477289401510892719 
0.00000000000000007493 0.00000000000000004562 0.13143081390181995949 
-0.00000000000000001664 0.00000000000000007903 0.11850872392418405898 
0.00000000000000005301 0.00000000000000006939 0.10600530671584440512 
0.00000000079597679469 0.00000000000000008505 0.09391832030328491066 
0.00000006784914643288 0.00000000000000004767 0.08224468088495633100 
0.00000079370838094138 0.00000000000000005572 0.07098054250313946822 
0.00000432273342657649 0.00000000000000009187 0.06012137338468121622 
0.00001563543363209179 -0.00000000000000001109 0.04966202877600524312 
0.00004379758461546375 0.00000000000000009061 0.03959682014295234226 
0.00010299229227329121 0.00000000000000004537 0.02991958064714896406 
0.00021323770566527615 0.00000000000000014280 0.02062372684783578269 
0.00040075300034980488 -0.00000000000000000335 0.01170231661156351764 
0.00069797624787191386 0.00000000000000003284 0.00314810324204848604 
0.00114326440551582335 0.00000000000000008613 -0.00504641413108490675 
0.00178032152227732823 -0.00000000000000003614 -0.01288894384273829921 
0.00265740922116945374 0.00000000000000000783 -0.02038735857988309072 
0.00382639582484288476 0.00000000000000012586 -0.02754965576687564213 
0.00534169888047866109 0.00000000000000004179 -0.03438392133461688760 
0.00725917164668228934 -0.00000000000000005690 -0.04089829674752066407 
0.00963497834152940262 0.00000000000000020097 -0.04710094915244440739 
0.01252449637096645849 -0.00000000000000000252 -0.05300004450603618827 
0.01598127691025284097 0.00000000000000004335 -0.05860372353117765387 
0.02005608848767216276 0.00000000000000005102 -0.06392008034918190973 
0.02479606188439711228 -0.00000000000000004089 -0.06895714363197917585 
0.03024394888652211233 0.00000000000000011554 -0.07372286011750596446 
0.03643750230164820997 0.00000000000000003633 -0.07822508033178890430 
0.04340898022576253346 -0.00000000000000004497 -0.08247154636260140004 
0.05118477381991595049 0.00000000000000003008 -0.08646988153195446503 
0.05978515480596958975 0.00000000000000000508 -0.09022758181793374965 
0.06922413647335461107 0.00000000000000007040 -0.09375200888038034974 
0.07950944014943425731 -0.00000000000000002148 -0.09705038454953165972 
0.09064255776328088154 -0.00000000000000002905 -0.10012978664188869338 
0.10261890026251137276 0.00000000000000009472 -0.10299714597314858777 
0.11542802116167981408 0.00000000000000001360 -0.10565924444396500304 
0.12905390434737964989 0.00000000000000003732 -0.10812271408048153287 
0.14347530538226746510 0.00000000000000008214 -0.11039403691794758000 
0.15866613588493194698 -0.00000000000000000181 -0.11247954562223234920 
0.17459588106728557433 0.00000000000000003567 -0.11438542475059086667 
0.19123004114374098084 -0.00000000000000000213 -0.11611771255961268745 
0.20853058804985841190 -0.00000000000000001793 -0.11768230327479842212 
0.22645642969068019434 -0.00000000000000006431 -0.11908494974264753619 
0.24496387475360445474 0.00000000000000011857 -0.12033126639247083978 
0.26400709194493870990 -0.00000000000000010929 -0.12142673244129173482 
0.28353855832487451227 0.00000000000000003984 -0.12237669528120458107 
0.30350949220777417858 0.00000000000000008219 -0.12318750728038529996 
0.32387026685198594400 0.00000000000000011601 -0.12386334178135222084 
0.34457080187727318066 -0.00000000000000001381 -0.12440888480259142124 
0.36556093001222328409 -0.00000000000000004233 -0.12482899618898078697 
0.38679073738473618294 0.00000000000000004422 -0.12512842169570304041 
0.40821087612354584051 -0.00000000000000005805 -0.12531179651446389123 
0.42977284853701341882 -0.00000000000000002296 -0.12538364870572046850 
0.45142926257750581875 -0.00000000000000003397 -0.12534840251564138836 
0.47313405868697000489 0.00000000000000001618 -0.12521038156023481247 
0.49484270845394456861 0.00000000000000003423 -0.12497381186253410379 
0.51651238579691716168 0.00000000000000001029 -0.12464282473190428646 
0.53810211162675747332 0.00000000000000001769 -0.12422145947745151517 
0.55957287313529824324 0.00000000000000002126 -0.12371366595017761758 
0.58088771901155855648 -0.00000000000000004334 -0.12312330691093427426 
0.60201183200519392535 0.00000000000000007120 -0.12245416022339825068 
0.62291258034213103922 -0.00000000000000010725 -0.12170992087323433128 
0.64355954955353611435 0.00000000000000003714 -0.12089420281632555498 
0.66392455630965330204 0.00000000000000001156 -0.12000968585392232657 
0.68398164585793996828 -0.00000000000000003209 -0.11906017532829681060 
0.70370707448134262041 0.00000000000000008422 -0.11804963363180565050 
0.72307924444859739133 0.00000000000000003632 -0.11698136176709778011 
0.74207831101265031570 0.00000000000000007314 -0.11585858678970650804 
0.76068520057666422218 -0.00000000000000000395 -0.11468446275202996698 
0.77888028922705421220 0.00000000000000007073 -0.11346207152880630198 
0.79664205980003643948 -0.00000000000000002417 -0.11219442353402601931 
0.81394594102201156538 -0.00000000000000004044 -0.11088445833945340113 
0.83076344193198148336 -0.00000000000000000595 -0.10953504520502889419 
0.84706163036541970435 0.00000000000000000807 -0.10814898353143674592 
0.86280295981415222606 0.00000000000000007360 -0.10672900324504008829 
0.87794541971707751316 -0.00000000000000001702 -0.10527776512521844210 
0.89244296639221110112 -0.00000000000000013148 -0.10379786108390451349 
0.90624618239361753869 -0.00000000000000000447 -0.10229181440682641457 
0.91930310871394238514 0.00000000000000003799 -0.10076207996559088942 
0.93156019512378918090 -0.00000000000000002832 -0.09921104440936130697 
0.94296331763400753623 -0.00000000000000010205 -0.09764102634442400896 
0.95345881751541561311 0.00000000000000013055 -0.09605427650947989671 
0.96299452273290864213 0.00000000000000003911 -0.09445297795398667484 
0.97152073611105604911 0.00000000000000004320 -0.09283924622636996471 
0.97899138338664826176 -0.00000000000000004349 -0.09121512957837986380 
0.98536563503107510442 0.00000000000000004252 -0.08958260919133650968 
0.99060982130685049096 0.00000000000000006541 -0.08794359942945943753 
0.99469929862130879172 0.00000000000000004004 -0.08629994812493411993 
0.99762003942124033440 -0.00000000000000001860 -0.08465343689882917633 
0.99936981794662993472 -0.00000000000000001446 -0.08300578152144685862 
0.99995893632163967979 -0.00000000000000004586 -0.08135863231516886340 
0.99941048593051362570 -0.00000000000000002645 -0.07971357460235761749 
0.99776017283596518670 0.00000000000000006479 -0.07807212920037738535 
0.99505575717733507624 -0.00000000000000002649 -0.07643575296533751395 
0.99135616824348482545 -0.00000000000000000829 -0.07480583938570127545 
0.98673036178700401777 0.00000000000000006421 -0.07318371922648420069 
0.98125598612066033954 0.00000000000000001872 -0.07157066122435229438 
0.97501792015875121677 0.00000000000000000206 -0.06996787283355868081 
0.96810674102154681275 0.00000000000000003555 -0.06837650102229113347 
0.96061717200873319999 0.00000000000000000052 -0.06679763311867917275 
0.95264655433661427075 -0.00000000000000006968 -0.06523229770540218964 
0.94429337851054018227 -0.00000000000000001127 -0.06368146556155600269 
0.93565590391237041246 -0.00000000000000009459 -0.06214605065018548313 
0.92683088835499505276 -0.00000000000000006635 -0.06062691114965856193 
