-0.344708 0.892306 -0.944411 -0.936747 0.915294 1.537890 -0.913257 0.939022 -1.511975 1.126616 -0.953392 0.884855 0.810302 1.390384 -1.295627 2.286271 0.524354 -0.759075 1.115691 2.238740 -0.723384 -0.394271 -1.071119 -0.202520 -1.523009 1.758308 -1.655729 -1.890621 -2.069393 -1.089018 -1.672790 -0.142536 -0.257186 0.097487 -0.448059 0.460651 0.986472 0.172635 0.024574 -1.226840 -0.492932 -0.419892 0.767606 1.272773 0.509743 -0.090300 -1.178127 -1.094446 -0.404029 0.665945 -0.794591 -0.592641 0.302344 1.003070 0.845489 -1.197081 0.826631 1.358719 1.018881 -1.000997 0.435231 -0.902648 -1.422977 -1.348980 -0.569759 0.045281 0.148407 1.442044 0.185076 -0.419732 0.993638 -1.191721 -1.171189 -1.061917 0.214763 -0.413505 -1.601114 1.284978 -1.966561 -0.474745 -1.623038 -0.897747 1.113521 -1.002430 -0.249747 0.687870 -0.160690 0.581220 -2.177345 -0.040179 -2.585754 -0.493501 0.171749 -1.172972 -0.987711 -1.260940 -0.513854 0.242607 0.590282 -0.131619 -0.720063 1.348464 -0.147666 -2.198597 -0.020953 -0.161662 0.367357 0.887799 0.760167 0.145894 -1.748656 0.994889 -1.851208 0.701909 -0.157268 0.492040 1.148178 1.091776 1.533717 0.123699 0.533110 1.110464 0.720573 -0.109029 -0.117632 1.174904 0.378041 -0.394663 -0.302990 0.385965 0.937061 -0.530923 0.821352 -0.480736 0.882416 0.131383 -1.200649 2.793808 -0.782808 1.185937 0.534000 -0.854167 1.273815 2.311490 1.820040 0.452287 -0.267687 -1.243964 -0.493215 1.907657 -1.729503 -0.200372 0.732474 1.464664 -0.560697 0.169607 -0.462556 -0.956269 -0.320846 0.385283 0.284169 -0.905142 -0.007083 0.177560 0.791668 1.267850 0.434607 -0.840202 -1.863487 0.354290 -0.438223 0.087161 -1.857989 -0.111602 -1.201956 -0.961979 -0.895388 -0.762870 -0.057194 3.293871 0.886003 0.938359 -0.983076 0.544810 -0.997780 -1.173324 -1.242767 0.921807 0.815479 -1.045882 -2.060290 -0.269860 -0.350701 0.785929 -0.799437 0.060650 -0.387283 -2.808942 0.136665 -0.013624 0.393772 -1.589047 0.684395 0.128931 -0.525978 0.072152 1.948746 -1.053935 -1.514650 -0.647325 0.088090 1.840045 -0.491069 -0.396463 1.843183 0.954375 2.033333 -0.316278 0.305306 -0.970654 -0.317059 0.240652 -0.562345 0.759473 0.819470 0.766723 0.813380 0.034245 0.668150 -0.152691 0.393938 -0.983215 0.427590 0.417162 -0.271684 -0.197684 -0.091757 0.575302 -0.130832 -0.819418 -0.636778 -1.179369 0.924283 -0.528418 0.824953 1.491355 -0.568642 -1.026291 -0.197969 0.983236 1.372072 -0.241665 -0.697269 0.254819 0.262074 -1.162832 1.452581 0.558804 1.181679 0.503361 0.532521 -0.753281 -0.715863 -0.119360 -0.197390 -0.265292 0.529654 -0.707630 -2.383677 -0.715462 -0.027912 0.481751 -0.287436 -0.777004 -1.071754 0.470107 0.321768 0.789137 0.604421 -0.042419 -1.209701 0.285556 -0.514362 0.048163 0.582268 -2.044888 0.299644 1.614812 0.673668 0.581593 -0.792835 0.708995 -0.056086 -0.879836 -0.170603 -0.223905 -0.814098 0.008608 1.310971 0.534637 -0.819932 -1.275315 -0.427728 0.161352 0.614408 0.475374 -0.124987 -0.576131 -0.390039 -1.047545 0.881747 -0.693020 0.051093 -0.494114 -0.319635 1.075323 0.854097 0.029010 0.722573 0.611212 -0.075302 -2.729390 -0.464279 -0.501835 0.713752 0.597970 0.656157 -0.488958 0.379046 0.267775 0.742753 -0.224716 1.727556 -0.418680 -0.909341 -0.092670 -1.429040 -0.064858 -0.160590 -0.820312 -0.549150 -1.064888 -0.162649 1.123199 -0.442264 0.327249 -0.327567 -0.234506 -0.867591 -0.224881 1.671468 0.722521 0.640997 0.066802 -0.537683 -0.488070 0.667757 -0.262649 0.356070 0.338346 -0.214455 -0.114108 1.171707 -1.025615 -0.287155 -0.303958 -0.258736 -1.545394 -0.054114 -0.679863 1.367453 -0.152828 -0.670516 -0.502430 -1.072722 1.553370 1.860717 0.204739 0.365328 -1.512966 -1.234123 0.050601 0.368093 -0.433722 1.615566 0.954900 0.405380 1.036547 0.835292 -0.704525 1.174801 -0.388060 0.974948 0.820533 -1.809699 -1.448262 -1.281581 0.703124 -0.122436 -0.175955 1.390243 -0.547350 -0.357525 0.980484 2.598889 -2.333166 1.160354 0.458312 -0.216183 -0.268014 -0.276547 -0.848884 -0.091737 -0.818985 -0.547936 0.098726 -1.134192 -0.269361 1.060738 -0.378814 1.009902 -0.413184 -0.931509 -0.150013 1.005190 0.809778 -0.639099 -1.127243 -0.169889 -0.224568 0.328187 0.177153 0.175887 0.256721 0.294955 0.912215 0.075365 -0.019538 -0.682665 0.006920 -0.037834 -0.740480 -0.640108 0.756660 0.651855 -0.696411 0.069461 -0.538833 0.774385 -0.073113 1.795790 0.296191 -0.993749 0.511676 -0.246333 -1.649813 -0.876676 -0.860741 -0.040212 0.579113 -2.625205 -1.446322 -0.614672 0.653781 -0.180938 -1.494654 0.817000 -1.125552 0.257875 0.814793 1.195876 1.039711 -1.677013 -0.073313 3.119243 -2.104426 2.016620 -0.258238 0.499812 1.105703 1.446558 1.296829 -0.863441 -1.465747 -1.767957 1.393338 0.419867 -1.648409 -0.579056 -0.928553 1.833816 -0.457596 -2.431521 -0.037254 -1.389173 0.073064 0.638908 0.501394 1.283908 0.494481 0.550503 -2.099409 -0.075600 -0.852798 -0.947756 1.065626 -0.311015 0.556767 0.629148 0.548764 1.158231 0.160016 -0.540093 0.158144 -0.622521 0.747160 -1.370933 0.128809 0.813552 0.684117 1.928628 -1.519083 0.049124 0.064111 -0.148766 -0.190323 0.361425 -0.884585 0.012985 0.637118 0.624199 -0.172012 0.507569 -0.165181 -2.051060 2.657952 0.289583 0.868573 2.117402 -0.004377 -1.743609 -0.966838 0.877294 1.924606 -1.141746 1.203956 -1.250356 -0.960409 -0.243217 -0.436035 2.086398 -0.146872 0.044150 1.013815 1.481710 -0.629796 -0.049858 0.509018 -0.195061 1.034189 -0.982665 -0.107926 -1.956283 1.471537 -0.023594 -0.090604 -1.261994 -0.300430 -1.506062 -1.325131 1.915720 -1.544952 -0.649634 -1.649632 1.207959 -0.231447 -0.375853 0.378344 -0.882780 0.515803 1.116162 -1.087500 -1.499198 2.471118 0.177346 0.142684 2.031566 -0.099416 1.298801 -0.304377 0.328838 -0.381368 -1.204133 -0.324798 0.320576 -1.701772 -1.323260 -0.506431 0.914411 -0.547578 0.847534 -0.453271 0.356683 -1.000415 -0.278373 -1.628758 0.434920 -0.992006 -0.140228 0.567511 1.210326 -1.479936 -0.576829 0.714356 -0.108596 1.692838 -0.518556 -0.968413 -0.077833 0.456301 -0.297610 -1.070601 -0.301337 -0.154612 0.476933 1.722660 0.839767 2.100953 -0.737147 -0.591490 1.342981 -0.399067 0.844971 0.001260 -0.554442 -0.285162 2.248704 -0.628166 -0.567209 -0.530946 1.551676 -0.004027 1.221138 -2.109596 -1.043439 -0.962546 -0.269118 -0.997875 -0.894724 1.272083 0.007868 0.069602 1.467156 0.564149 -0.158291 0.400486 -0.342691 0.323119 -1.780928 -0.226528 1.082093 0.241018 0.298429 1.627044 -0.445775 -0.311474 0.244460 0.780154 -0.725450 1.890402 1.069044 1.693911 0.863325 0.812152 -0.587493 0.646334 -1.536390 -0.082085 -0.173896 1.866971 0.435330 0.537410 -1.314060 -1.686902 -0.959635 -1.646920 0.992978 -1.041054 0.588274 0.819773 -0.453348 0.358324 0.820955 -0.045939 0.595964 -0.232333 0.589613 -2.076095 0.132710 -1.849815 1.550323 0.641113 -0.005044 -0.451166 -0.268476 -0.231243 0.999622 -0.660149 0.802918 0.041622 -1.112973 -0.255169 0.983615 0.129295 0.095326 -1.843533 0.498145 1.019820 1.447318 -1.317216 -0.419535 -0.936979 1.103982 0.773002 -0.667824 -1.791341 -0.130693 1.167228 -0.339580 -1.030302 1.129099 -0.910175 -0.075062 0.516795 -0.874797 1.176761 -0.345096 0.438483 -0.232426 0.375059 0.376380 -1.052874 -0.281814 1.689507 1.381851 -1.959700 -0.983480 2.428441 -1.238283 0.777594 -0.680109 0.186068 -0.430686 -1.091294 0.404981 0.245768 0.804193 -0.453138 0.283090 0.345259 -1.690431 -0.217711 0.980560 -1.147369 -0.922095 -0.128071 1.296133 0.451163 0.999684 0.316025 0.966275 -1.126829 -0.365584 -1.105933 2.786235 -0.260244 1.836009 -0.201966 -0.630615 -0.546463 -0.664763 -1.412090 -0.677816 -0.645925 -0.327547 0.432885 -0.126661 -0.022159 -1.302525 -0.507624 1.414791 -0.830498 1.247435 0.482619 -2.033007 0.897615 0.592535 1.094339 -1.073300 0.366649 -0.788607 0.541176 1.012180 -0.451557 -0.392677 -0.278558 -0.865926 -0.754629 0.474117 -0.235173 1.110445 1.016953 -0.263842 0.486785 0.989554 0.771989 -0.725929 -1.977799 0.267077 0.128943 0.691699 0.617817 -0.641380 0.275055 0.887156 0.051368 -1.326167 -1.240997 -0.410056 0.240573 0.162555 -0.431181 0.395395 0.436190 -0.231856 0.403714 1.537024 -0.004468 -0.622652 -1.154274 -0.339916 -1.697051 0.989011 0.795881 0.135424 0.289612 1.050759 0.314367 0.173481 -0.011589 -1.340162 0.058355 -0.640561 0.758579 -1.917131 0.360984 0.371720 0.320892 0.276292 -0.393508 0.999591 -1.080695 -0.339532 0.982458 0.727681 0.026345 0.711000 0.051524 -0.544892 -1.223744 1.468548 0.485880 -0.237856 1.195325 -0.135817 -0.667834 -0.645909 1.273075 0.362983 0.240175 0.334428 1.090163 -1.615362 -1.386214 0.630851 1.053570 0.838283 1.468842 0.201760 -0.896329 -0.810299 1.099315 0.705710 1.121834 -0.851454 -0.458548 -0.924888 0.446152 0.223037 2.020723 0.482067 1.305820 1.283135 -2.033918 -1.156286 0.073349 1.144244 0.932094 0.875127 0.482367 -1.933691 0.954026 1.296467 0.248394 0.807961 -0.489914 -0.789373 -0.628485 0.001286 0.590535 -0.908120 1.282751 0.624464 -0.617127 -1.724529 -0.230632 -1.587789 -0.189358 1.050500 1.693003 -1.583226 -1.105159 -0.217643 -0.934886 1.516003 -1.415040 -1.715572 -0.659250 -1.160075 0.356683 0.766927 0.019460 0.204313 0.220135 -0.318806 -0.993726 0.914952 1.328095 1.092646 1.011778 0.383581 -0.211338 -2.843857 -0.655234 -0.808086 -0.234402 0.467590 -0.713763 0.347581 -0.233426 -1.501616 0.603207 0.255861 0.204465 0.197122 -1.044093 1.859621 1.487538 0.594173 1.191146 0.321173 1.649969 0.017206 -0.719405 -1.273193 1.352725 -0.189371 -0.795711 0.685598 -0.588105 0.218459 -0.486208 1.514482 -1.289085 -1.142795 1.714295 -0.517992 2.159220 1.205713 0.502911 -0.047920 1.150009 -0.293703 0.887298 -0.699333 -2.417307 0.516240 -0.883645 -2.655238 -0.955073 0.448735 1.178777 -0.273012 1.256533 -0.648097 0.073059 2.582119 0.778081 -0.666608 -1.195104 -2.252266 -0.638451 1.100297 -1.708973 1.248778 1.183379 0.014316 -0.499303 0.776730 -0.685202 -0.769534 -0.159319 -0.053963 0.586103 0.560234 0.617160 -0.033005 -0.703632 -0.600284 0.655938 -0.862762 -1.385443 1.440903 -0.656483 0.178169 -0.477785 -1.016959 1.733731 -0.623499 -1.106280 -0.257567 0.994259 0.938409 1.361499 -0.044379 -1.822554 0.963729 0.084212 -0.709645 -0.707987 -0.595470 1.583911 1.326213 -1.368126 -1.013488 1.626690 0.054347 -0.047437 0.533788 -0.078103 -0.632914 1.351879 -0.768379 0.619815 -0.870006 1.278883 1.114443 0.277326 -0.947544 0.520020 0.365184 -2.268270 0.507169 -0.219507 -0.811679 0.010831 -1.236247 -0.253106 0.988300 0.809160 -1.746099 -0.884843 0.590500 -0.815795 -2.096337 0.108392 -1.187564 -0.322647 -0.934454 -0.046880 -1.296428 1.421640 -0.055954 0.003854 1.244678 -0.181393 1.149924 0.250210 2.072551 -0.141080 1.063207 -1.614932 1.797712 -0.545247 0.142502 -1.224466 0.282141 1.520237 1.330699 -0.788705 0.146330 1.340715 0.537579 1.604265 -0.587178 0.205848 0.195949 -1.799805 0.397041 -1.113604 -0.301259 -0.189888 -0.141045 0.725390 1.914117 0.409197 1.130926 -2.315294 1.307977 0.282307 -1.815294 -1.560726 0.577646 0.576794 -1.354629 0.146142 -0.985252 -0.216319 -0.232982 -0.233167 -0.827355 1.201580 -0.850869 -0.589154 -1.865793 0.354591 -1.741591 -0.906662 1.766901 0.284130 -1.564961 0.085775 0.045928 0.029663 -0.880920 -0.771529 0.000650 -0.062123 -1.932697 0.969988 -0.575988 -1.091693 -0.332545 0.314844 -0.353615 -0.366578 0.942969 -0.409706 -0.427320 -1.674084 -0.189600 0.336879 0.801739 -1.231298 0.326962 -0.361631 -0.914486 -0.927316 -2.219310 0.575639 -0.272592 -1.511442 0.125768 0.066977 0.136326 -1.896608 -1.078130 0.311844 -1.226520 2.137874 1.135134 -2.142441 0.222934 0.039396 0.606516 0.870283 -0.090313 -1.836944 0.963317 -1.189500 -1.659704 -1.052976 0.917872 0.138980 0.127123 1.464708 -0.540707 0.770704 -0.102548 -0.876620 0.379542 0.754129 -0.619604 -0.511339 0.796309 0.734219 -0.761060 0.579729 -0.199513 -0.856957 1.106605 -0.420492 0.295479 -1.110277 0.346884 -0.345290 0.861339 2.625624 0.326939 -0.289242 1.746200 -1.170921 0.227233 0.515298 1.015442 1.516698 -1.915482 -1.410853 1.968643 -0.471008 0.245550 -1.869887 1.105913 -0.269481 0.376027 -0.921711 -0.168815 0.437031 1.060796 0.863041 2.110082 0.514059 1.886680 0.272481 0.864739 -0.689079 1.221264 0.955947 -0.458488 0.300845 -1.580299 -0.024406 0.578302 0.394636 1.715978 1.499987 -1.060034 -0.726755 1.848613 0.204026 -1.250642 -0.473448 -0.301591 -0.803773 -0.046561 -0.641407 -1.129237 -0.974260 1.184243 -0.232033 1.131646 -0.909042 -0.624296 -1.827356 0.293936 -1.167906 0.237850 -0.461541 1.107618 -0.248151 1.218587 0.367199 -0.958510 -0.287977 -0.309518 -0.363126 -0.978301 1.702158 0.270183 -0.323485 -0.195859 -1.428571 -0.633889 1.849110 -2.397235 -0.638169 0.039205 -0.452578 0.943481 -1.251369 0.330299 -0.381422 0.887519 0.842091 -0.666995 0.113196 -2.469568 0.403631 0.223309 -1.225426 -0.346186 -0.299132 2.455264 0.203975 0.169128 -1.060965 0.921615 0.050832 -1.359336 1.295938 -0.201298 0.539859 -0.096921 -1.371696 0.164167 0.577455 0.456936 0.403094 -0.328414 0.540452 0.443777 1.621211 -1.881416 -1.004980 0.356611 -1.673683 1.104959 1.482184 -0.530656 -0.249205 -0.863208 -0.636070 -0.751861 -0.875427 1.182256 0.333407 1.105147 0.490579 -0.789764 -0.024684 1.068085 -1.807207 0.314615 -0.483932 0.364240 0.987803 0.214707 -0.334155 -0.305843 -0.331610 1.629704 -0.072907 0.635032 1.861424 0.386385 -0.197339 0.399146 -0.402701 0.225081 0.017765 -0.583215 1.475329 -0.647957 -1.676917 1.126301 -2.989732 1.334075 -0.332368 -2.124335 0.901964 1.323896 0.700555 -0.001685 1.829768 0.468061 0.281386 -1.744400 -0.886936 -0.941280 -0.271111 -0.251979 1.135633 1.722842 1.070571 -0.242705 -0.147429 -0.265354 0.877501 -2.023688 1.458034 -0.055875 -0.512103 -0.966974 1.108227 -0.995803 -0.893376 1.054282 0.341100 0.944892 0.886314 0.857048 -0.466824 0.784375 -0.655159 1.270678 0.940028 -2.326858 1.319025 -0.196243 -0.094024 1.168204 0.260541 -0.862552 0.519640 -0.203118 -0.724839 0.477573 -0.217983 -0.106910 -0.091045 2.561109 0.343507 2.255091 -0.589866 -1.682657 -0.250477 0.233249 -1.217360 2.749002 -0.843965 0.976192 0.891217 0.888487 -1.810846 0.186346 0.027255 0.041385 1.208862 0.575833 0.005197 0.767250 0.017138 0.690183 1.047266 0.878591 -0.467049 0.293552 0.312373 0.277349 0.163253 0.139161 -1.771526 1.115919 2.219529 1.978855 1.124256 0.470772 1.213835 -2.214206 1.183958 -1.775239 -1.628092 0.542637 -0.742070 -0.375466 -0.859881 -0.001429 0.806508 0.546949 1.240768 -0.820007 -0.634975 0.159308 -1.242074 -0.475259 0.123629 1.444823 0.730732 0.118447 0.298409 0.920067 -0.583172 -1.210022 1.405507 -2.069564 0.231506 1.498363 -0.541050 -0.962026 -0.208365 1.180731 1.619352 -0.024590 -0.464543 -0.368584 -0.304005 0.355985 0.806890 1.299346 -0.729651 0.190536 0.259920 -2.379571 0.440913 0.194146 -2.396454 -0.695295 0.079721 -0.386354 0.307981 -0.385256 1.131118 -0.375513 -1.558648 1.278507 -0.352222 0.983485 0.816816 -0.530303 0.333357 0.214971 0.190514 -0.556807 2.602531 0.348706 1.029284 0.936997 0.892127 0.740346 1.160693 0.919211 -1.793655 -2.246911 -1.251214 0.735832 -1.396098 -1.792833 -0.092224 -0.549188 0.953673 -1.107894 1.016105 2.143735 -0.733685 -0.480733 1.453449 -0.114802 1.182972 -0.442700 0.388232 -0.984116 -0.851685 -2.644500 0.854597 0.576547 -0.043826 0.700245 -0.495623 -0.914106 0.483225 1.521629 -0.055757 -0.794271 -0.571339 -0.380392 -0.378822 1.530607 0.596058 -0.725993 0.773857 -0.537437 -1.739203 -0.351234 2.129510 -0.149803 1.220772 0.548210 0.697791 -1.363288 0.042933 0.513187 0.266012 -1.780172 -0.716945 -1.220890 0.316539 0.836511 0.095501 -1.156141 -1.524913 -0.603052 0.726707 -0.853354 -0.733373 1.347528 1.923259 2.436541 0.208732 0.902918 0.081210 -1.355974 -0.027087 0.384410 -1.041195 -0.157476 -1.325269 -0.922743 2.408617 0.074730 0.174357 -0.494499 -0.314526 -0.213068 -0.349586 -0.363436 0.948203 -1.147627 -0.115235 -0.723410 -1.228854 0.830700 -0.038168 0.661454 1.914305 -0.855020 1.416930 -0.175557 -1.450479 -2.647512 -0.544666 0.112586 0.051060 -1.179116 1.222668 -0.145673 0.018436 -1.337394 -1.223823 1.364962 1.052731 -0.336317 -0.787976 0.684008 0.667164 0.463196 1.589584 0.662272 -0.698627 -0.524006 0.828193 -0.699523 1.845963 0.872316 -1.059519 -0.160004 0.532146 -0.207233 0.323406 -1.792085 -0.129250 -1.473878 0.103275 -0.563047 -0.514171 -1.040036 0.480043 0.411926 -1.535234 1.243318 1.052024 0.910167 2.102447 -0.145208 1.284047 0.330005 0.224908 1.405426 -0.944466 -0.741259 -0.009173 -1.982286 -2.283470 1.146957 0.965977 -0.365483 0.439400 1.250638 1.183491 -2.289924 -0.704978 -0.131643 -0.299371 1.012997 0.273365 -0.876999 -0.598543 -0.482354 0.225860 0.608572 -0.197588 0.574221 0.571137 -0.673276 -0.538299 -1.869238 -1.044473 0.898303 -0.593885 -1.672910 -1.334364 -0.384305 -0.943662 -1.571270 -0.099488 -0.118125 1.882936 0.429536 -0.783105 -0.631856 -0.629850 0.622253 -0.335532 1.540442 0.076237 -0.455508 1.039570 -0.450349 -1.131271 0.792678 0.526134 -0.155994 -0.806556 -1.873762 -0.928231 -2.264983 1.864866 -1.138319 1.034034 -0.269718 -0.041951 -1.278346 0.081632 0.506586 0.308176 -0.511957 1.672843 0.135285 0.871455 -0.631366 0.067029 -0.102983 1.077718 0.216322 0.857877 -1.849277 -0.811244 0.497697 -0.984190 -0.302486 0.981551 0.263593 -0.263034 -0.191253 -2.043953 0.731222 0.398989 0.981802 0.830707 0.167428 0.996674 0.203486 1.399611 3.027235 -0.172879 -0.039297 -0.682577 -0.571911 1.986047 -0.468229 0.316441 0.304988 -0.895729 -1.894943 -1.740725 0.352668 0.812278 1.319250 -0.571316 1.717443 -0.997494 0.515044 -0.404776 0.777885 -0.117326 -0.067361 -0.593239 0.270465 -1.112386 -0.905524 1.059753 -1.071673 1.088817 -0.982194 1.258710 -0.215886 0.467336 -0.252137 -1.578835 3.170104 0.051529 0.757500 -1.246438 0.937578 1.467338 0.460633 -0.925773 -0.137028 -0.828872 -0.611520 1.306965 -0.204110 -0.139543 -1.334365 -2.311174 -0.030792 -0.229859 -0.235906 -2.161516 0.876282 1.560275 -0.548831 0.236336 0.166911 0.768340 1.243537 0.345053 0.348916 0.885365 -1.816937 -0.864817 -0.278422 -0.980751 -0.245323 -0.868546 0.080465 0.803488 0.094691 1.498689 -0.743451 -0.596704 1.405068 -0.222745 -0.849428 -2.117434 0.835055 0.035212 1.307662 1.186553 1.129461 0.425915 0.460863 0.990216 -0.614902 1.260561 0.360243 0.336161 -0.301071 -0.194565 -0.789604 -0.083893 0.500949 1.759645 -1.123881 0.558235 -0.779104 0.708290 -0.172079 0.440945 -0.966626 1.203485 1.067714 -0.262009 1.743095 -2.435197 1.250735 0.934555 -1.216159 0.313940 2.164220 0.683508 0.044484 0.680944 2.020182 0.261819 -0.440694 -1.033851 1.676201 -1.286888 0.954097 0.784211 0.769767 -0.551353 0.942733 0.807896 -0.654609 0.007629 -1.265329 0.858232 -1.915466 -0.914870 -0.765499 1.311557 1.180888 -0.839513 -0.579034 0.914837 -0.591679 -0.520174 0.039778 0.028580 -0.606264 0.222071 0.279589 2.222638 -2.071841 1.653496 0.665652 -0.719602 -1.301576 0.128748 0.074156 -0.633828 -0.558426 0.339744 -0.397756 -0.896734 -1.398676 0.083397 -0.030077 -0.015011 -0.618557 -1.102519 1.083654 -0.403713 0.975601 0.112595 0.774495 0.062058 -1.910262 -0.324735 -0.440926 0.158352 0.110921 0.768205 -1.132705 0.443730 -0.271227 0.398398 -1.137149 0.292009 0.881081 0.132649 0.174522 -0.446583 0.919343 2.046331 -0.933117 -0.737272 -1.371546 0.791723 -0.736481 -1.351762 0.168319 -2.455791 0.642788 -0.116042 -0.730495 0.043364 -0.656601 0.897494 1.360952 -1.480407 0.146863 1.282233 -0.174837 -0.182500 1.046942 1.598243 -0.604693 -0.497624 0.262711 -0.540787 -0.565728 -0.544731 -0.478115 -0.400665 -0.949654 0.594130 -0.175466 -0.780454 0.011455 -0.007052 -0.645243 -0.594440 0.765461 0.009427 0.648475 1.237184 -0.183686 1.820926 1.494185 -0.001388 -0.711455 -0.064691 -0.084252 1.097456 0.194557 -2.329655 0.653724 -0.071753 -0.644765 -0.004553 -0.709843 -1.148209 -1.010261 -1.484966 2.012201 0.908452 0.279282 -0.938146 1.252223 1.088763 1.462231 0.456496 0.388544 -0.343686 -1.542072 -0.718602 0.540875 -0.997652 -0.161143 -0.078257 0.120349 2.131186 -0.135743 -1.331675 -1.216481 0.837796 1.300518 -1.635946 -0.017920 0.061534 -1.817186 -0.210409 -0.968967 0.445708 -0.375257 -0.226133 -1.321303 -0.490160 -1.078638 -1.608420 0.432693 -0.324967 0.426797 -0.205379 -0.062045 0.668261 0.471223 -0.290648 -0.334017 -1.692897 -0.138810 -1.548031 1.266016 -0.946740 0.568674 1.203820 -1.495425 -0.578126 0.016618 -0.101231 -0.831448 -0.202663 0.596266 1.818513 -1.671984 -0.005611 -2.090212 -1.202982 2.049715 -0.364789 -0.884321 -1.368660 0.944373 0.877791 1.854974 -1.054510 0.407853 0.296008 -0.341256 -1.058755 -1.086984 0.282150 0.852428 0.736805 -1.188719 0.990578 1.513035 -0.681653 -0.017538 1.151912 0.307031 1.542125 0.638395 -1.301233 -1.836702 -0.353852 -1.033957 0.879139 0.009724 0.858065 0.882501 -0.377627 -0.882169 -0.919390 -1.636253 -0.239799 -0.369709 1.082813 0.372955 0.513117 -0.708467 3.312747 2.060248 -1.555640 -0.103352 0.510428 -0.236872 0.959496 0.713331 0.075947 1.362839 -0.004110 -1.182551 0.783850 -0.103723 -1.403727 0.008824 0.049634 0.163165 0.124761 0.870950 -1.138395 -1.012304 0.442359 0.988329 -0.549717 -0.447302 -0.940848 -0.725671 0.643555 0.509250 -0.246683 0.457389 1.804627 0.354524 -0.347537 -0.334110 0.958458 0.045482 -0.013141 -0.651766 -0.523322 -0.421510 -0.338769 0.339624 -0.404221 0.999921 -1.028447 1.173726 -0.969334 0.481048 1.007856 1.468608 -0.657604 0.795317 2.011081 -0.858021 -1.459663 0.003233 -0.095582 -0.144628 1.138225 -0.192788 -0.046697 -2.591277 -0.794585 -0.198215 1.599236 -0.613488 0.260301 1.064640 0.443521 -0.240619 -0.294206 0.246940 0.756107 -0.063902 -1.898334 1.018466 0.855009 0.132660 0.753718 -0.659601 -0.466230 -0.454135 -0.415405 0.900338 2.586645 1.035076 0.431861 1.136112 -0.909347 0.430363 -0.543179 1.372782 0.432605 -0.199119 0.077403 -0.512633 -3.015130 0.609356 0.954944 0.185572 -0.440999 -1.464424 0.291769 1.491868 -0.081228 1.217236 1.583393 0.240509 2.295621 -1.317095 -0.427945 0.062211 0.582180 -0.139981 0.451540 0.557978 -1.314935 0.233617 0.873138 0.014203 0.616103 -0.757389 1.461274 0.590055 1.224671 -0.856276 1.824647 -0.378792 1.002790 -0.484718 2.201425 -0.073694 -0.639735 0.815302 0.040074 0.026326 -0.001383 0.010649 -1.862078 0.345042 1.015820 -1.058362 -0.873823 -0.032153 -1.222218 0.904190 0.726946 1.384934 1.856895 -0.215017 0.027596 0.582541 1.050240 0.138246 0.646529 -1.317698 -0.373748 0.356051 0.984399 0.160501 -1.156403 -0.854844 1.282073 -0.881645 1.238289 -0.965539 -0.046470 0.022795 0.702273 0.005744 -0.718206 0.079032 0.121368 0.088913 -0.529803 -1.757680 -0.164629 -0.184245 -0.120820 -0.743689 -1.238850 0.353542 0.305938 0.958842 1.476033 1.287293 1.234362 -2.149458 -1.164803 1.403312 0.314344 -1.075699 -0.905171 0.063301 -0.472144 1.558036 0.030526 -0.643167 -0.551800 0.252520 -1.070032 -0.378063 0.270769 0.261213 1.571633 2.763346 2.496115 -0.373993 -1.561872 -1.389118 0.475573 0.754799 0.524109 -0.084374 -3.033971 0.286962 -0.424167 0.158809 1.239951 -0.276438 -0.595250 0.910769 -0.425179 0.287422 0.000973 -1.288063 0.205491 2.076771 -0.049960 -1.260541 -1.068718 -2.804787 0.741876 0.399284 1.015462 -0.360716 0.566160 -0.513153 0.847101 1.875916 0.151795 0.706938 -0.009410 -1.193158 -1.010186 0.924023 0.064535 -0.014078 0.051129 0.890998 0.204087 0.198351 0.802279 -0.706927 -1.298119 0.174002 1.410333 -1.400216 -1.152908 -0.269376 -0.184887 -0.177140 0.454848 -0.876943 0.600181 -0.749222 -0.526323 0.117741 0.003533 -0.618461 -2.512527 -0.154752 1.797476 -0.465449 2.307480 0.688607 1.447634 -0.018677 0.574648 1.053534 -0.028905 0.579173 0.493949 1.092373 -1.582711 -0.681943 0.692657 1.792022 0.207667 -1.723565 -0.036817 -1.295180 0.182300 0.033547 0.585028 0.580446 1.930488 1.879939 -0.244537 0.422714 -0.369584 0.855000 -0.725437 0.615584 -0.735246 -1.841702 0.498442 -0.238110 0.466078 -2.233608 0.114496 0.840096 0.064636 0.149754 0.113829 0.163454 -1.765857 -1.539522 -0.069352 -2.829661 0.209020 0.798676 0.194671 0.993626 -0.368872 -0.766434 -2.074451 0.003967 0.509723 -0.396368 0.390904 1.132044 0.512994 -0.108143 -0.804722 -0.790463 -0.885939 -1.530979 -0.048698 -0.726313 -1.812697 0.512082 -0.196154 1.862476 -2.383311 -0.021810 1.893719 -0.418696 0.341799 -0.511528 -1.043213 0.409836 -0.459664 0.319421 -0.553315 -0.436473 -0.257842 0.377903 -0.336270 -0.993174 1.052071 1.542739 -1.268964 0.257208 -0.494136 0.257508 -0.563916 -1.232126 -0.411390 0.862412 0.150080 0.212993 0.806357 0.113200 0.762991 1.887784 -1.715526 -1.501695 -2.082056 1.461206 1.763069 1.454673 0.120596 0.297216 0.426591 -0.960866 0.218605 0.551349 -1.627858 0.015124 -0.577841 0.325598 0.259396 0.854669 -1.186554 -0.378545 -0.987597 0.474507 0.937249 -1.198147 1.688042 4.107336 0.363898 -0.200241 -0.946611 -0.164655 -0.363791 1.399563 0.480282 -1.518036 0.250724 -0.248294 -0.846818 -0.884970 0.409872 0.365714 0.352588 0.452399 -0.141591 -0.087253 -1.417631 0.691459 -0.875581 0.535144 -1.498188 0.794632 -0.566632 -1.097025 -0.942260 -0.893658 1.185475 0.323716 0.339978 0.409531 1.720200 -0.402132 0.921564 -1.332472 -0.548759 0.065298 0.660046 -0.723521 -1.924116 -0.241962 -1.479702 2.655165 0.860276 -0.509776 1.001606 -1.053472 -0.093252 0.987309 -0.002914 0.643790 -1.503612 -0.396475 -0.981283 -0.255894 -1.585213 -0.153200 -0.783542 0.750888 -0.604103 -0.417100 0.311161 0.242214 0.197022 1.418462 0.517816 0.517381 -0.892463 -0.074960 1.145402 0.183110 0.132510 0.081302 -0.509166 0.303057 -0.465614 1.552203 0.561448 0.525503 0.538752 0.496819 -0.193765 0.409570 0.905254 -0.585853 1.461323 -0.045614 0.733438 -0.698809 0.727179 -1.370909 2.063672 1.708877 1.550329 0.086810 -1.121839 -0.870719 2.409867 -0.780570 -0.033429 -0.771824 -1.070651 -0.748407 0.614422 1.165959 0.957582 2.207389 0.154581 1.596218 0.034288 -0.013622 1.139299 0.794557 -1.231527 0.287269 0.298851 -0.903046 -0.156854 -1.468324 -0.534040 2.124347 -0.740231 1.535382 0.634763 2.084429 -2.734333 0.230067 -1.228131 0.155832 0.670646 -0.698532 -0.397571 -0.211761 0.633758 -0.707760 1.204590 -0.284267 -0.840425 -0.671532 -0.541187 0.206684 0.087906 0.101160 -1.127936 0.409470 -0.224261 1.134597 -1.719086 0.514614 1.075767 -0.331433 -0.231096 -0.897806 -2.019815 0.200274 0.687152 -1.969966 -1.706190 -0.086817 0.091905 -0.588019 0.751095 -0.620357 0.193759 -0.468999 0.967798 0.073820 0.644209 -1.394659 0.804336 -0.021018 -1.301088 -0.533011 0.779612 -0.607817 0.158143 2.741529 -0.149251 -1.366744 0.114977 0.083629 -0.695892 -0.801915 -0.675690 1.426776 1.256968 -1.991864 0.319212 -0.465626 -0.341771 -0.447855 -1.814398 0.468494 0.355960 -0.183413 0.576564 0.446715 -0.140829 1.148006 0.914357 0.786689 -0.070787 0.627603 1.210469 -2.298141 0.639871 -2.208320 0.757009 0.537876 1.810249 0.387853 1.083888 -0.858261 1.276968 -1.088287 -1.012211 1.534870 1.284858 -0.050204 1.363022 -1.332978 0.980970 -0.689142 0.685358 1.078347 -1.746930 0.023312 -1.938658 -0.914446 0.435777 -0.421742 1.708142 0.156843 -1.560234 1.418934 0.445790 0.405836 0.771711 0.624812 0.672021 0.563403 -1.408850 0.746298 -0.865189 -0.707788 -0.045368 -0.044778 -0.566478 0.207464 0.250663 -0.363923 0.293410 0.920212 2.110075 1.139628 -0.914664 1.910748 0.916361 -0.508321 0.731455 -0.799901 0.061519 0.636496 -2.011769 -0.320913 0.915594 -0.384234 0.386490 -1.027516 -0.027224 -0.039721 0.622825 -0.103416 1.172500 -0.910405 -1.282741 0.185386 -1.848701 -0.965753 -1.621811 1.308636 -0.793228 0.772366 2.112356 -0.711821 0.147172 -0.628489 0.074242 -0.104362 -0.899276 -0.034899 0.613939 0.644705 -0.650207 0.096887 0.741189 -2.031399 0.860363 -0.058471 -0.653064 0.741550 1.310730 0.615329 -0.152878 0.545812 0.487998 -1.022798 -0.931367 -2.204288 0.039008 -0.036600 -2.592915 1.790995 -1.098916 -0.685117 0.018427 -0.019552 0.669645 -0.898825 1.929951 -1.633866 -0.719185 0.014111 0.583262 1.085664 0.843571 -0.488150 0.351814 1.578643 0.711077 -2.812820 0.111146 -0.004939 -0.622732 -0.610655 0.781789 -0.537824 0.943816 -1.777788 1.177292 2.769161 -1.537068 0.076913 -0.707217 -0.486375 0.812016 1.805636 0.300122 0.931888 -2.347086 0.175188 -0.089631 -0.849430 -1.532101 1.887681 0.434484 -0.692641 1.421173 -1.332134 -1.119256 0.812577 0.598530 -0.157473 1.766521 0.393012 -0.121068 1.806035 0.220720 0.785124 0.478547 0.451752 -0.895539 -2.769899 0.277416 -0.553913 0.157146 -1.840538 1.837973 0.399849 -0.781873 0.649162 0.485842 -0.263166 0.359090 -0.409024 0.370345 0.235190 0.286946 1.562444 -0.017511 0.729477 -0.708589 0.713469 0.531710 -0.925402 -0.156900 -1.485032 0.115183 -1.241617 0.252389 0.864716 -0.530404 1.002139 0.231785 -0.376397 0.306624 0.139007 -1.193983 -1.764377 1.753981 1.503360 1.347458 -0.099752 0.077372 -0.507566 0.162250 0.602773 -0.327720 0.981864 -1.019356 1.310737 -0.827719 -0.661013 0.000170 -0.746808 0.046391 0.658680 -0.677229 0.890343 0.081531 1.532710 1.247157 0.407151 -0.918952 0.506951 0.388380 0.307772 0.806760 0.058004 0.168848 0.227618 0.905782 0.755642 -1.390522 -1.150228 -0.347317 1.678147 -0.558860 -1.084184 -0.848690 0.720853 -0.642171 -1.232965 0.169653 1.469429 -1.281615 1.684873 0.082957 0.217271 0.798401 -1.333374 0.201373 -0.663497 0.783053 -0.641142 -0.561820 0.288418 0.939722 0.180973 -1.148593 1.626035 -0.601266 -1.117022 0.292634 0.176050 0.205381 0.790903 -0.585944 0.277272 -1.151931 1.726631 0.672513 -0.111138 -0.063202 1.304260 -0.141662 1.872720 2.114275 -0.120210 -0.076420 1.916018 -1.666691 -0.134835 -1.032093 -0.830547 0.573127 0.481564 -0.054559 0.028619 1.435315 0.029807 0.640441 1.120156 1.607380 0.062192 0.759780 -0.001740 0.021246 -1.380472 1.430903 -0.208687 -0.088340 -0.695478 -0.462266 -0.980763 0.474480 -2.311598 0.064530 -1.362198 -1.635884 -1.362532 -0.514205 0.941939 1.485247 0.028951 0.893165 1.457262 2.662710 -0.462764 1.495657 -0.867798 -2.026170 -1.157758 -0.487220 -0.470864 0.227907 1.617604 -0.338452 1.227577 0.448796 -0.251855 0.308402 -0.579709 -1.164568 0.926961 0.766912 0.154853 -0.504541 -1.655348 -1.332655 -0.598509 0.689288 -2.804032 0.982476 0.238580 1.148020 -0.294788 -0.907454 -0.094976 0.466006 -0.999342 -0.887409 0.436157 -0.839789 0.043515 0.669229 1.258042 0.438228 1.059324 1.603654 -1.937946 0.983024 -1.332761 -0.492051 -0.587296 1.426321 0.658769 0.001266 -0.515539 -0.330892 -0.361925 0.253725 0.042736 0.005584 -0.600578 -1.016967 0.514929 -1.593625 -0.059904 1.132962 -0.986940 -0.043520 -0.063733 -0.598704 0.136591 2.599548 -0.407257 -2.254520 2.018976 0.402235 0.400728 0.794564 -0.003456 0.134937 -0.588918 0.870443 1.935033 -0.445654 0.417900 -0.978728 -0.731678 0.638904 -1.599044 -0.699825 -0.049183 1.393931 0.678059 1.944496 1.093378 -0.940605 -0.793458 0.513502 -0.404839 0.837149 -0.044491 0.157377 0.277518 -0.305207 -0.871700 2.426700 1.271909 1.194222 -0.949599 0.678888 -0.703073 0.666688 -0.289384 0.985298 -1.799053 0.650939 0.597276 1.266483 0.390392 -0.968705 -1.408112 0.780864 -0.739095 0.698770 1.112155 1.767845 -0.264285 -0.731756 0.723047 -0.818285 1.170277 -1.148369 -1.570081 0.060779 0.768857 -1.832704 -1.592816 1.217901 -0.201884 1.227337 1.019841 0.344265 -1.553372 0.009502 0.595947 0.339451 0.164428 2.811161 -0.767388 0.274419 1.516192 -0.044711 0.553650 -1.715034 0.575584 1.753655 -0.443460 -0.854102 1.831045 0.331046 -0.231816 -0.320905 -0.283572 -1.548708 -0.029187 -0.052116 -1.340663 -1.102733 -1.509603 0.137063 0.731704 -0.677083 0.827130 -0.598630 -0.968396 0.476478 -0.392088 -0.348210 0.892849 1.459415 1.391301 -0.080458 -3.249384 -0.151096 0.269173 0.125182 -0.055344 1.923631 0.621747 1.465132 -1.984544 -0.391676 -0.638162 -0.699442 -0.700337 -0.690416 0.893253 -1.704468 0.043703 -0.661987 0.714861 -0.116860 1.170977 0.379068 0.400146 -0.250319 -0.864503 -0.834698 -1.516137 -0.733708 -0.047690 -1.342049 -0.346561 -0.255332 -0.097921 1.240786 0.323937 -0.327240 2.976065 1.180455 -0.837137 -0.167413 -0.910548 0.525854 -1.116442 0.313807 -1.092549 -0.831161 0.756303 -0.034289 0.656348 -2.152700 0.205139 0.115880 1.388941 -0.164344 0.491436 1.150673 -1.582127 0.023564 0.466575 0.295246 2.180461 -0.181910 -1.229616 0.279031 -1.108377 -2.270179 -1.581260 1.156775 0.357843 1.759514 1.012229 0.439721 -0.842833 -0.116623 1.002112 -0.760907 -1.403117 2.760688 -0.220868 0.095751 -0.634098 -0.513011 0.187939 -0.036231 0.617205 1.110149 -0.946946 2.072390 -0.281239 0.512237 0.283018 -0.506546 -1.057903 -0.352273 1.037730 0.874902 -0.551992 -0.997533 0.528453 -0.858940 -0.755298 0.511586 0.373136 0.430958 0.448681 1.824098 0.265684 0.254023 0.161946 -0.606897 -0.574131 1.385162 -0.177675 0.592997 -0.128161 -0.609753 1.512050 -0.810747 -1.302762 0.742861 -1.384730 -0.350343 -1.739466 0.590445 1.809776 -0.415502 -0.153641 0.491041 -0.143301 -0.762853 -0.169845 -0.906051 -0.142042 -0.107995 -0.656563 -0.514486 -1.095627 1.112646 2.186678 -0.775241 0.114964 -0.599579 -0.395701 -1.762523 -0.379311 -1.125269 1.006691 -1.051003 1.284773 -0.199307 -0.056061 -0.052508 0.477408 1.006452 -0.567938 -0.443663 0.943125 0.791043 0.052965 -0.034678 0.610340 -0.130767 -0.764573 -2.034061 0.178660 0.710220 1.958468 -0.954258 1.328205 0.555469 1.262814 0.318249 0.739863 0.554282 0.449057 -2.875288 0.229119 0.013224 -1.938013 -0.344475 0.939334 -1.641553 1.402764 0.487058 0.576100 1.089436 -0.417140 -0.246017 -1.040784 0.436485 0.276300 -1.830492 1.196919 0.989223 0.379188 1.033818 0.840768 -0.510133 -1.140607 0.952736 -0.645365 0.744038 -0.066738 0.751909 -0.569774 -0.392002 -2.308152 -0.054785 0.475965 1.736913 0.201796 -0.294816 0.648122 -0.022844 -0.684238 -0.122374 1.057389 0.936965 -0.392932 -0.814476 -0.599609 0.853237 1.330047 -0.918559 0.603942 -0.070913 -0.465412 -0.340029 -0.385096 -0.315588 0.391263 0.444357 0.536972 -0.086831 -1.895054 -0.194737 1.735582 0.811149 -1.213851 0.396383 -2.133819 -0.257369 -4.319156 -3.044942 -0.790113 -1.347107 -0.837992 -0.626351 -0.207674 -0.556132 2.251905 0.543769 0.436324 1.642856 -0.554156 -0.344758 -1.132169 1.619178 0.563697 -2.174561 1.583847 -0.705916 0.989823 0.069385 -0.655678 0.141746 -1.309310 -0.975043 1.679542 0.661965 0.731895 -0.694316 0.891731 0.120925 2.033622 -1.071791 1.026706 -0.522800 1.676385 -1.242327 0.913233 0.692028 -0.061938 0.029669 0.613730 -1.430574 -1.848931 -2.326722 1.293404 0.956804 0.912447 0.252683 -2.906338 0.453360 -0.478032 -0.541623 -0.746083 -0.089287 0.844259 -1.126355 -0.776578 -0.753509 -0.073196 -0.125341 1.113602 -0.377882 -1.514228 -1.180663 -0.377196 0.229551 -0.644662 0.075954 0.105000 0.246546 1.638075 0.658533 0.547091 -0.289009 -0.268251 -1.614806 -0.179356 -0.973628 1.115560 1.583236 0.814816 0.890196 -2.518957 1.272280 0.762542 0.509718 0.292199 1.504667 -1.792461 0.635829 -0.925464 -1.525300 -2.159020 0.680811 -0.730365 -1.860812 -0.143734 0.585380 -0.051673 1.938856 -1.113688 -0.176015 0.417431 1.014327 0.121073 1.261413 -0.920316 -0.015801 -0.736845 -0.664101 -0.040139 -0.865294 -0.675911 0.751717 -0.645355 -2.430007 0.546003 1.678530 0.114729 0.082048 0.048096 0.169784 0.148307 2.022872 -0.466405 -0.418842 -0.368479 -0.937732 -0.145839 -0.988977 -0.190094 0.459525 -0.211728 1.316007 -0.256094 0.559174 0.405673 0.957226 -1.248316 0.213324 0.098954 -1.247115 1.632751 0.592269 -0.021217 0.678522 -2.118034 0.349561 -0.640858 0.109967 1.347877 1.095817 -1.490945 0.196583 0.803016 1.341124 -1.051501 0.385682 -1.040939 0.589424 0.489594 0.364747 -0.377990 0.365290 1.073396 1.601534 -0.017151 0.005899 -1.374174 0.212504 1.408455 1.092966 0.948789 -0.473038 -0.178782 1.249213 2.979777 -0.971912 -1.510899 -0.634850 0.215828 0.870668 1.244697 1.058416 -0.285372 0.009451 0.085978 -0.043047 -0.213993 -0.307329 -1.592980 -0.565839 0.931378 1.529170 -0.006161 -1.285828 1.041924 1.563175 -0.005298 -0.767133 1.285695 -0.882207 0.082105 2.004415 0.979812 -1.079096 -0.194843 -0.803750 0.701932 1.799737 -1.230045 -0.919208 -0.747618 -1.127053 1.761275 -0.099095 0.721287 -1.390618 0.415868 1.129787 0.192372 0.820457 0.578902 1.306230 -0.831130 0.034485 0.634875 -0.214851 1.199756 -0.422127 0.474155 -0.230180 0.576520 -0.852657 -1.462047 0.103816 1.405127 -0.775728 0.134931 -0.547591 -0.280910 1.837911 -0.591293 1.609065 -0.782662 0.915562 1.498568 -0.148475 0.627474 0.388470 -0.947904 1.294316 -0.405363 -1.589754 1.333735 -0.280701 -0.021216 -0.093349 -0.711403 -0.480034 0.202225 -0.485898 -1.103479 -0.277410 -0.848123 -1.328948 0.218867 0.151413 -0.476842 -1.047602 -0.834602 -0.674873 0.063984 -0.694159 -0.611476 -0.519488 0.324626 1.685019 0.043750 0.767987 -2.797760 -1.621549 1.166515 -0.582631 0.170594 -1.346363 -0.897814 0.079248 0.022953 -1.394092 -1.376169 0.810654 0.729388 0.681655 -0.102805 -0.723948 -1.248014 0.217256 -0.687904 -2.096015 -1.190147 -1.688204 -0.638826 -0.585646 -1.192371 1.046118 0.175708 -1.052852 -1.594563 -1.467182 0.032660 1.181812 -0.454858 -0.346438 0.434125 -0.168684 -0.140338 -0.350140 0.204661 1.416934 -0.860966 -1.318590 -1.883242 -0.286773 -1.734276 -0.943476 -2.303590 1.482700 -0.053311 1.500839 -0.791516 0.719230 -0.113488 -0.190604 0.336452 0.049777 -1.353710 -1.139990 -1.021624 -0.214707 1.056158 0.832447 0.078102 0.823166 0.760996 -1.384380 -0.642206 -0.141428 1.790023 -1.976607 -0.223420 -0.910064 0.013511 0.672907 1.086021 1.565957 0.655917 0.029228 0.746712 -0.191157 1.769621 -0.099608 -0.095395 -0.105645 -0.050045 1.380092 -0.312991 0.431169 -0.384684 1.095962 0.264331 0.881912 0.709254 -0.765523 0.789872 -0.092041 -1.427197 0.082011 -0.050244 0.736572 -0.751523 1.513839 1.320660 -0.140377 -1.417787 0.065843 0.645898 1.180062 -0.427829 0.371241 -0.283841 1.305209 1.096294 -0.522454 -1.166521 1.029486 0.217789 0.919312 -2.048194 1.771728 0.801366 -1.207871 -1.009896 -0.340149 1.152356 -2.473197 -0.679426 0.017866 0.800646 -0.534877 1.608132 -0.696219 0.939598 0.793140 -0.708754 0.721184 -0.915004 0.018398 -0.744229 0.052573 -0.608678 -1.208047 -0.956279 1.236325 -1.016774 1.307668 1.045381 -1.027732 -0.749890 0.634387 -0.878448 0.549889 -0.375345 0.478259 -0.922086 0.027552 0.724358 -1.532217 0.100517 -1.418605 0.239823 0.170980 -0.534454 -0.369249 1.038801 -0.419062 -0.291669 0.333677 0.948915 -1.954313 0.433542 0.248454 0.261364 0.909289 2.116266 -0.192922 0.632301 0.505216 0.414278 -1.159790 -1.103867 1.041649 2.214324 0.604886 -0.033405 0.037769 0.832985 0.684643 0.422100 1.566603 -1.456645 -1.708745 -1.439654 0.779249 -2.894062 -1.091974 0.370316 -0.210925 0.079943 0.111501 1.548763 0.642286 -0.777382 -2.052095 0.171440 0.718334 -0.101711 1.945040 -1.093236 -1.988214 -1.628185 -0.130887 0.384293 -0.576362 0.253973 -0.319667 -0.691671 0.913991 -0.756773 1.346216 0.958615 -0.485559 -0.305953 1.071702 -0.437020 -1.785756 0.392715 -0.464261 -0.327113 -0.971874 0.587169 -0.157361 1.310603 -0.257293 -0.881162 -0.783858 1.358828 -0.985217 0.517941 -0.366963 -0.873510 0.710518 -0.148539 1.275122 0.281179 0.294908 1.702131 -0.666510 -0.475861 0.122314 0.689547 1.256845 -1.755338 -0.677530 -0.607741 -0.467756 -1.117717 -0.413594 -0.374299 -0.210623 0.626143 1.967707 1.000732 0.941386 -0.574478 -0.482160 -0.539432 -0.623837 -1.366416 0.821941 -0.669147 0.349991 0.359038 0.389023 1.063379 0.138214 -1.258077 -0.436863 1.580840 -0.051662 -0.713631 0.746889 0.682903 -0.668522 0.105777 0.656026 1.907689 -1.831606 -0.745853 0.645532 0.534564 -0.881117 1.226069 -0.382322 -1.511812 -0.550735 0.145220 -0.634223 0.096897 -1.304306 -0.281869 -0.223215 -2.187868 0.215137 -1.394104 0.299760 -0.473537 1.733727 0.861337 -0.556132 3.068054 0.409694 0.435920 0.207387 0.742857 0.624370 -0.953461 -1.484062 0.729436 -0.132215 0.010254 0.632234 -0.113132 1.441265 -2.200263 0.281211 1.394434 -1.612807 0.796904 -0.881516 0.143287 0.139544 0.101460 -0.547932 0.128118 -1.924274 0.505319 0.276111 0.299512 -1.108601 -0.211849 0.569345 1.877373 -0.499183 1.669635 -1.419711 -1.723678 0.517964 0.232692 -1.213167 0.273286 -1.101861 -0.003248 -0.017385 0.011649 0.635321 -0.223857 0.606860 -0.862327 -0.709896 2.092843 0.968290 -1.148569 -0.294426 -1.648963 -0.624640 -1.397257 0.754738 0.531431 -1.493394 0.364487 -0.357811 -0.911421 -0.873801 -0.936287 -0.849102 -0.078719 1.369818 -0.140505 0.676996 1.303301 -0.234782 0.475161 -0.480371 0.897645 0.636484 0.533046 -0.878878 0.640613 0.536944 -0.909901 -0.157021 -0.955577 -0.100255 -0.794247 -1.349454 0.928821 0.038518 1.569651 -0.044560 -1.332075 -0.402625 0.913947 0.014681 1.283490 -1.069637 -0.715867 -1.260940 -0.363312 0.248684 -0.653900 0.154638 0.884399 -0.483687 0.431493 -0.417740 -0.381488 -2.512972 -0.138985 -0.250609 -0.202134 1.259954 -0.251334 0.674538 0.602328 -0.164400 -0.212049 1.679906 -0.710652 -0.548694 -0.536499 -0.423595 1.007610 0.770502 2.071470 -0.979774 -0.664407 2.210420 -1.015023 -2.241995 -0.074578 0.506076 1.251991 -0.279662 -0.086724 -0.716216 -0.538927 0.914820 1.247374 -1.099592 -0.834359 1.424677 0.593179 -0.830210 0.589641 0.398472 -0.970098 -0.092245 -1.538662 -1.320203 0.181596 0.145662 -1.191895 -0.980704 2.717232 -0.412418 0.490945 -0.381521 0.365016 -0.401370 -1.795862 1.188899 -0.574667 1.023317 -1.858262 -0.794027 -0.684277 0.755027 -0.796759 0.656618 0.521148 -0.074472 0.731169 -0.098609 -0.134204 -0.919502 0.527946 -0.308991 -1.662399 1.389247 1.120648 -0.995104 1.291113 1.002115 0.960535 -2.012071 0.344947 -0.570300 0.155652 0.092360 -0.643288 -0.479840 0.358605 1.763896 -0.598515 0.872246 0.696589 0.655927 1.275811 -0.394697 -0.322837 -0.371108 -1.736795 -0.090084 -0.261850 -0.862589 0.730206 0.668807 -1.328315 -0.364267 1.701261 0.018731 -1.385483 0.161099 1.503942 0.642925 -0.783840 -2.066561 0.287832 0.158245 0.161325 0.042542 0.019805 0.193328 0.989693 0.152813 -1.316620 -0.530530 0.168718 -1.266710 0.308488 -0.512068 -0.308681 0.491823 1.152611 0.334821 0.968438 0.117840 1.546238 1.921196 -1.155864 -0.264154 -0.391455 -1.026306 -3.028827 0.080532 0.654891 -0.028798 -1.232755 -0.203326 1.288070 1.122876 0.947431 0.008231 -0.721521 -1.942823 1.114906 2.126056 0.338141 0.375189 0.420790 1.251618 0.384154 0.224143 0.003748 -0.130055 0.635035 -1.526215 -0.545356 0.150182 -1.951176 1.216736 -1.213613 0.561157 -0.245911 -1.502652 0.220166 0.712743 2.065901 1.732781 1.545160 -0.598826 1.656920 0.607382 -1.671319 -0.241069 -0.433821 -0.982444 -0.781737 0.073235 -1.238152 -0.278663 -0.202822 1.961809 0.232941 0.341737 -0.361340 -0.976162 -0.146519 1.102637 -0.577330 0.234387 0.220064 -1.018151 0.615355 -0.293416 -0.253866 -0.317488 -0.974554 -0.741835 0.725272 -0.778096 1.513098 0.506883 -0.800108 -1.322270 0.907477 0.674183 -0.195646 -0.912770 1.364508 -0.213728 -1.419599 0.835275 -0.182615 -0.810627 -1.417856 0.187418 -1.277192 -0.343689 -0.313478 0.431474 0.383459 0.411535 -0.292818 0.444308 0.313448 -0.462784 0.921639 -0.734581 0.143865 0.063968 -1.335865 -0.418662 0.200110 -1.225404 -0.330550 -1.066284 -0.111197 0.568707 0.495739 0.471617 -1.730864 0.722034 -0.915716 1.311906 -1.180967 -0.989765 -0.148860 -0.132655 -0.046524 0.560652 -0.273855 -0.156352 1.254773 1.772734 -2.022586 1.090534 -0.661334 0.908024 0.621056 0.471194 0.439250 -0.331217 0.536228 0.372423 0.900184 1.409596 -0.230143 1.308341 -1.020638 -0.786850 -0.818955 -0.149643 0.502731 -0.317678 -0.822447 -0.588264 -0.439518 -1.047746 0.396185 0.904183 