-0.864240 -0.886459 -0.908948 -0.931697 -0.954699 -0.977945 -1.001426 -1.025134 -1.049060 -1.073195 -1.097532 -1.122060 -1.146772 -1.171660 -1.196713 -1.221925 -1.247286 -1.272787 -1.298421 -1.324178 -1.350050 -1.376028 -1.402103 -1.428268 -1.454513 -1.480830 -1.507211 -1.533646 -1.560127 -1.586645 -1.613192 -1.639760 -1.666339 -1.692921 -1.719497 -1.746060 -1.772599 -1.799108 -1.825576 -1.851996 -1.878358 -1.904655 -1.930877 -1.957016 -1.983064 -2.009012 -2.034850 -2.060572 -2.086167 -2.111628 -2.136946 -2.162111 -2.187117 -2.211953 -2.236612 -2.261085 -2.285362 -2.309437 -2.333299 -2.356941 -2.380353 -2.403528 -2.426456 -2.449130 -2.471539 -2.493677 -2.515534 -2.537101 -2.558370 -2.579332 -2.599980 -2.620303 -2.640294 -2.659944 -2.679245 -2.698187 -2.716762 -2.734962 -2.752778 -2.770201 -2.787223 -2.803836 -2.820029 -2.835796 -2.851127 -2.866014 -2.880447 -2.894420 -2.907923 -2.920959 -2.933533 -2.945652 -2.957323 -2.968552 -2.979345 -2.989709 -2.999651 -3.009176 -3.018292 -3.027005 -3.035320 -3.043246 -3.050788 -3.057952 -3.064745 -3.071174 -3.077245 -3.082965 -3.088339 -3.093375 -3.098079 -3.102457 -3.106516 -3.110262 -3.113702 -3.116842 -3.119689 -3.122249 -3.124528 -3.126534 -3.128272 -3.129749 -3.130971 -3.131945 -3.132678 -3.133175 -3.133444 -3.133491 -3.133321 -3.132943 -3.132361 -3.131583 -3.130615 -3.129464 -3.128136 -3.126637 -3.124974 -3.123153 -3.121181 -3.119065 -3.116810 -3.114423 -3.111912 -3.109281 -3.106538 -3.103689 -3.100740 -3.097699 -3.094571 -3.091363 -3.088081 -3.084732 -3.081323 -3.077859 -3.074347 -3.070795 -3.067207 -3.063591 -3.059953 -3.056299 -3.052637 -3.048972 -3.045311 -3.041661 -3.038027 -3.034417 -3.030836 -3.027292 -3.023790 -3.020338 -3.016941 -3.013606 -3.010340 -3.007149 -3.004039 -3.001018 -2.998091 -2.995264 -2.992545 -2.989940 -2.987455 -2.985097 -2.982872 -2.980787 -2.978847 -2.977061 -2.975433 -2.973971 -2.972681 -2.971569 -2.970643 -2.969907 -2.969369 -2.969036 -2.968912 -2.969006 -2.969322 -2.969868 -2.970649 -2.971672 -2.972943 -2.974469 -2.976256 -2.978309 -2.980637 -2.983244 -2.986137 -2.989322 -2.992806 -2.996595 -3.000695 -3.005113 -3.009855 -3.014927 -3.020332 -3.026074 -3.032155 -3.038573 -3.045317 -3.052378 -3.059746 -3.067412 -3.075365 -3.083596 -3.092095 -3.100851 -3.109856 -3.119099 -3.128571 -3.138262 -3.148161 -3.158260 -3.168547 -3.179014 -3.189651 -3.200448 -3.211394 -3.222481 -3.233697 -3.245035 -3.256483 -3.268032 -3.279671 -3.291392 -3.303184 -3.315036 -3.326938 -3.338879 -3.350850 -3.362840 -3.374838 -3.386834 -3.398819 -3.410780 -3.422709 -3.434594 -3.446425 -3.458193 -3.469886 -3.481494 -3.493007 -3.504415 -3.515706 -3.526871 -3.537900 -3.548781 -3.559506 -3.570062 -3.580440 -3.590630 -3.600621 -3.610402 -3.619964 -3.629296 -3.638388 -3.647229 -3.655809 -3.664117 -3.672144 -3.679878 -3.687310 -3.694429 -3.701224 -3.707690 -3.713828 -3.719640 -3.725129 -3.730295 -3.735141 -3.739670 -3.743883 -3.747783 -3.751372 -3.754651 -3.757623 -3.760290 -3.762654 -3.764717 -3.766482 -3.767949 -3.769122 -3.770003 -3.770593 -3.770895 -3.770911 -3.770642 -3.770092 -3.769261 -3.768153 -3.766769 -3.765111 -3.763182 -3.760984 -3.758518 -3.755786 -3.752792 -3.749536 -3.746022 -3.742251 -3.738224 -3.733946 -3.729416 -3.724638 -3.719614 -3.714345 -3.708835 -3.703084 -3.697095 -3.690870 -3.684411 -3.677721 -3.670800 -3.663653 -3.656280 -3.648683 -3.640865 -3.632829 -3.624575 -3.616106 -3.607424 -3.598531 -3.589430 -3.580129 -3.570637 -3.560967 -3.551129 -3.541134 -3.530993 -3.520718 -3.510319 -3.499808 -3.489195 -3.478491 -3.467708 -3.456857 -3.445948 -3.434993 -3.424001 -3.412981 -3.401940 -3.390885 -3.379824 -3.368764 -3.357713 -3.346675 -3.335652 -3.324643 -3.313648 -3.302667 -3.291701 -3.280748 -3.269809 -3.258885 -3.247974 -3.237076 -3.226192 -3.215322 -3.204466 -3.193622 -3.182793 -3.171976 -3.161174 -3.150384 -3.139609 -3.128847 -3.118098 -3.107363 -3.096642 -3.085934 -3.075240 -3.064559 -3.053892 -3.043239 -3.032599 -3.021973 -3.011360 -3.000762 -2.990177 -2.979605 -2.969048 -2.958504 -2.947974 -2.937457 -2.926955 -2.916466 -2.905991 -2.895529 -2.885082 -2.874648 -2.864228 -2.853822 -2.843430 -2.833052 -2.822687 -2.812336 -2.802000 -2.791677 -2.781368 -2.771073 -2.760792 -2.750525 -2.740272 -2.730033 -2.719808 -2.709597 -2.699399 -2.689216 -2.679047 -2.668892 -2.658751 -2.648624 -2.638511 -2.628413 -2.618328 -2.608258 -2.598202 -2.588161 -2.578134 -2.568121 -2.558123 -2.548140 -2.538172 -2.528218 -2.518279 -2.508355 -2.498446 -2.488553 -2.478674 -2.468810 -2.458962 -2.449129 -2.439311 -2.429509 -2.419722 -2.409951 -2.400196 -2.390456 -2.380731 -2.371023 -2.361331 -2.351654 -2.341994 -2.332349 -2.322721 -2.313109 -2.303513 -2.293933 -2.284370 -2.274823 -2.265293 -2.255779 -2.246282 -2.236802 -2.227338 -2.217892 -2.208462 -2.199049 -2.189653 -2.180274 -2.170912 -2.161568 -2.152241 -2.142931 -2.133638 -2.124363 -2.115106 -2.105866 -2.096644 -2.087439 -2.078253 -2.069084 -2.059933 -2.050800 -2.041685 -2.032588 -2.023509 -2.014449 -2.005406 -1.996382 -1.987377 -1.978390 -1.969422 -1.960472 -1.951541 -1.942628 -1.933735 -1.924860 -1.916004 -1.907167 -1.898349 -1.889551 -1.880771 -1.872011 -1.863270 -1.854548 -1.845846 -1.837163 -1.828500 -1.819857 -1.811233 -1.802629 -1.794045 -1.785480 -1.776936 -1.768411 -1.759907 -1.751423 -1.742959 -1.734515 -1.726092 -1.717688 -1.709306 -1.700944 -1.692602 -1.684281 -1.675981 -1.667702 -1.659443 -1.651205 -1.642989 -1.634793 -1.626618 -1.618465 -1.610333 -1.602222 -1.594132 -1.586064 -1.578017 -1.569992 -1.561988 -1.554006 -1.546046 -1.538107 -1.530190 -1.522296 -1.514423 -1.506572 -1.498743 -1.490937 -1.483153 -1.475391 -1.467651 -1.459934 -1.452239 -1.444567 -1.436918 -1.429291 -1.421687 -1.414105 -1.406547 -1.399011 -1.391499 -1.384009 -1.376543 -1.369100 -1.361680 -1.354283 -1.346910 -1.339560 -1.332234 -1.324931 -1.317652 -1.310396 -1.303165 -1.295957 -1.288773 -1.281613 -1.274477 -1.267365 -1.260277 -1.253213 -1.246174 -1.239159 -1.232168 -1.225202 -1.218260 -1.211343 -1.204451 -1.197583 -1.190740 -1.183922 -1.177128 -1.170360 -1.163617 -1.156899 -1.150206 -1.143538 -1.136895 -1.130278 -1.123686 -1.117120 -1.110579 -1.104064 -1.097575 -1.091111 -1.084673 -1.078261 -1.071874 -1.065514 -1.059180 -1.052872 -1.046590 -1.040334 -1.034105 -1.027902 -1.021725 -1.015575 -1.009451 -1.003354 -0.997284 -0.991241 -0.985224 -0.979234 -0.973271 -0.967335 -0.961426 -0.955544 -0.949690 -0.943862 -0.938062 -0.932290 -0.926545 -0.920827 -0.915137 -0.909474 -0.903839 -0.898232 -0.892653 -0.887102 -0.881578 -0.876083 -0.870616 -0.865177 -0.859766 -0.854383 -0.849029 -0.843703 -0.838406 -0.833137 -0.827897 -0.822686 -0.817505 -0.812352 -0.807229 -0.802135 -0.797070 -0.792035 -0.787029 -0.782054 -0.777108 -0.772192 -0.767306 -0.762451 -0.757625 -0.752830 -0.748066 -0.743332 -0.738629 -0.733957 -0.729316 -0.724706 -0.720126 -0.715579 -0.711062 -0.706577 -0.702124 -0.697702 -0.693312 -0.688954 -0.684628 -0.680334 -0.676072 -0.671842 -0.667645 -0.663481 -0.659349 -0.655249 -0.651183 -0.647150 -0.643149 -0.639182 -0.635248 -0.631348 -0.627481 -0.623647 -0.619847 -0.616082 -0.612349 -0.608651 -0.604987 -0.601358 -0.597762 -0.594201 -0.590675 -0.587183 -0.583726 -0.580304 -0.576917 -0.573565 -0.570248 -0.566967 -0.563720 -0.560510 -0.557335 -0.554195 -0.551092 -0.548024 -0.544992 -0.541997 -0.539038 -0.536115 -0.533228 -0.530379 -0.527565 -0.524789 -0.522050 -0.519347 -0.516682 -0.514053 -0.511462 -0.508909 -0.506393 -0.503915 -0.501474 -0.499071 -0.496706 -0.494380 -0.492091 -0.489841 -0.487629 -0.485455 -0.483320 -0.481224 -0.479166 -0.477148 -0.475168 -0.473228 -0.471327 -0.469465 -0.467642 -0.465860 -0.464116 -0.462413 -0.460749 -0.459125 -0.457542 -0.455998 -0.454495 -0.453032 -0.451610 -0.450229 -0.448888 -0.447587 -0.446328 -0.445110 -0.443933 -0.442797 -0.441703 -0.440650 -0.439638 -0.438668 -0.437740 -0.436854 -0.436010 -0.435208 -0.434448 -0.433731 -0.433056 -0.432423 -0.431833 -0.431286 -0.430781 -0.430320 -0.429901 -0.429526 -0.429194 -0.428905 -0.428660 -0.428458 -0.428300 -0.428186 -0.428116 -0.428090 -0.428107 -0.428169 -0.428276 -0.428427 -0.428622 -0.428862 -0.429147 -0.429476 -0.429851 -0.430270 -0.430735 -0.431245 -0.431801 -0.432402 -0.433049 -0.433741 -0.434481 -0.435267 -0.436101 -0.436982 -0.437911 -0.438888 -0.439914 -0.440989 -0.442113 -0.443287 -0.444511 -0.445785 -0.447110 -0.448486 -0.449913 -0.451393 -0.452924 -0.454508 -0.456145 -0.457835 -0.459578 -0.461375 -0.463227 -0.465133 -0.467094 -0.469111 -0.471183 -0.473311 -0.475496 -0.477737 -0.480035 -0.482391 -0.484804 -0.487276 -0.489806 -0.492395 -0.495043 -0.497750 -0.500518 -0.503345 -0.506234 -0.509183 -0.512193 -0.515265 -0.518399 -0.521596 -0.524855 -0.528177 -0.531563 -0.535012 -0.538525 -0.542103 -0.545746 -0.549454 -0.553229 -0.557069 -0.560977 -0.564952 -0.568995 -0.573106 -0.577286 -0.581535 -0.585853 -0.590242 -0.594702 -0.599233 -0.603836 -0.608510 -0.613257 -0.618078 -0.622971 -0.627939 -0.632981 -0.638099 -0.643291 -0.648560 -0.653905 -0.659325 -0.664820 -0.670389 -0.676032 -0.681747 -0.687535 -0.693395 -0.699325 -0.705326 -0.711396 -0.717535 -0.723743 -0.730018 -0.736360 -0.742768 -0.749242 -0.755781 -0.762385 -0.769052 -0.775782 -0.782574 -0.789428 -0.796343 -0.803319 -0.810354 -0.817448 -0.824601 -0.831811 -0.839079 -0.846402 -0.853781 -0.861214 -0.868700 -0.876239 -0.883829 -0.891470 -0.899161 -0.906901 -0.914688 -0.922523 -0.930404 -0.938330 -0.946300 -0.954314 -0.962371 -0.970469 -0.978607 -0.986786 -0.995004 -1.003259 -1.011552 -1.019881 -1.028245 -1.036643 -1.045075 -1.053540 -1.062036 -1.070564 -1.079121 -1.087707 -1.096321 -1.104962 -1.113629 -1.122322 -1.131040 -1.139780 -1.148544 -1.157329 -1.166135 -1.174961 -1.183807 -1.192670 -1.201550 -1.210447 -1.219359 -1.228286 -1.237226 -1.246179 -1.255144 -1.264120 -1.273105 -1.282100 -1.291103 -1.300114 -1.309130 -1.318152 -1.327179 -1.336209 -1.345243 -1.354278 -1.363315 -1.372352 -1.381388 -1.390423 -1.399456 -1.408486 -1.417512 -1.426534 -1.435550 -1.444559 -1.453562 -1.462556 -1.471542 -1.480517 -1.489483 -1.498437 -1.507378 -1.516307 -1.525222 -1.534122 -1.543006 -1.551874 -1.560725 -1.569557 -1.578371 -1.587165 -1.595938 -1.604690 -1.613420 -1.622126 -1.630809 -1.639469 -1.648104 -1.656716 -1.665304 -1.673867 -1.682406 -1.690921 -1.699410 -1.707876 -1.716316 -1.724731 -1.733121 -1.741486 -1.749825 -1.758139 -1.766427 -1.774689 -1.782925 -1.791135 -1.799319 -1.807476 -1.815607 -1.823711 -1.831788 -1.839839 -1.847862 -1.855857 -1.863826 -1.871767 -1.879680 -1.887565 -1.895423 -1.903252 -1.911053 -1.918826 -1.926570 -1.934286 -1.941973 -1.949631 -1.957260 -1.964859 -1.972430 -1.979970 -1.987482 -1.994963 -2.002415 -2.009836 -2.017227 -2.024588 -2.031919 -2.039219 -2.046488 -2.053727 -2.060934 -2.068110 -2.075255 -2.082369 -2.089451 -2.096503 -2.103526 -2.110520 -2.117486 -2.124425 -2.131337 -2.138224 -2.145085 -2.151923 -2.158738 -2.165530 -2.172300 -2.179050 -2.185779 -2.192489 -2.199180 -2.205854 -2.212510 -2.219150 -2.225775 -2.232385 -2.238982 -2.245565 -2.252135 -2.258692 -2.265237 -2.271769 -2.278289 -2.284796 -2.291290 -2.297771 -2.304241 -2.310697 -2.317142 -2.323574 -2.329993 -2.336401 -2.342796 -2.349177 -2.355509 -2.361724 -2.367753 -2.373562 -2.379141 -2.384478 -2.389562 -2.394384 -2.398932 -2.403197 -2.407167 -2.410831 -2.414180 -2.417203 -2.419889 -2.422227 -2.424207 -2.425819 -2.427051 -2.427894 -2.428336 -2.428367 -2.427977 -2.427154 -2.425888 -2.424170 -2.421987 -2.419329 -2.416187 -2.412549 -2.408404 -2.403743 -2.398554 -2.392827 -2.386552 -2.379717 -2.372313 -2.364328 -2.355752 -2.346574 -2.336785 -2.326372 -2.315326 -2.303637 -2.291292 -2.278283 -2.264598 -2.250227 -2.235159 -2.219383 -2.202889 -2.185667 -2.167705 -2.148994 -2.129523 -2.109280 -2.088256 -2.066439 -2.043820 -2.020388 -1.996131 -1.971041 -1.945105 -1.918331 -1.890741 -1.862357 -1.833203 -1.803302 -1.772678 -1.741354 -1.709352 -1.676696 -1.643409 -1.609514 -1.575035 -1.539995 -1.504416 -1.468323 -1.431738 -1.394684 -1.357185 -1.319263 -1.280943 -1.242246 -1.203197 -1.163819 -1.124134 -1.084166 -1.043938 -1.003473 -0.962795 -0.921927 -0.880891 -0.839711 -0.798411 -0.757012 -0.715540 -0.674016 -0.632464 -0.590907 -0.549369 -0.507872 -0.466439 -0.425095 -0.383861 -0.342762 -0.301820 -0.261059 -0.220501 -0.180170 -0.140089 -0.100281 -0.060768 -0.021574 0.017279 0.055767 0.093868 0.131558 0.168815 0.205608 0.241865 0.277506 0.312451 0.346618 0.379926 0.412295 0.443643 0.473889 0.502953 0.530753 0.557209 0.582239 0.605763 0.627699 0.647967 0.666486 0.683175 0.697952 0.710737 0.721452 0.730345 0.738319 0.746175 0.754057 0.761966 0.769901 0.777862 0.785849 0.793861 0.801898 0.809961 0.818048 0.826160 0.834296 0.842455 0.850639 0.858845 0.867075 0.875328 0.883603 0.891901 0.900221 0.908562 0.916925 0.925310 0.933715 0.942141 0.950588 0.959055 0.967541 0.976048 0.984574 0.993119 1.001683 1.010265 1.018866 1.027485 1.036122 1.044777 1.053449 1.062138 1.070843 1.079566 1.088304 1.097059 1.105829 1.114615 1.123415 1.132231 1.141062 1.149907 1.158766 1.167639 1.176526 1.185426 1.194339 1.203265 1.212204 1.221154 1.230117 1.239092 1.248078 1.257076 1.266084 1.275104 1.284133 1.293173 1.302223 1.311283 1.320352 1.329430 1.338517 1.347612 1.356716 1.365828 1.374948 1.384076 1.393210 1.402352 1.411501 1.420656 1.429817 1.438985 1.448158 1.457336 1.466520 1.475709 1.484902 1.494100 1.503302 1.512507 1.521717 1.530930 1.540145 1.549364 1.558585 1.567809 1.577034 1.586262 1.595490 1.604720 1.613951 1.623183 1.632415 1.641648 1.650880 1.660112 1.669344 1.678574 1.687803 1.697031 1.706258 1.715482 1.724704 1.733924 1.743141 1.752355 1.761566 1.770774 1.779977 1.789177 1.798372 1.807563 1.816749 1.825930 1.835105 1.844275 1.853439 1.862597 1.871748 1.880893 1.890031 1.899162 1.908285 1.917400 1.926508 1.935607 1.944698 1.953780 1.962853 1.971917 1.980971 1.990015 1.999049 2.008073 2.017086 2.026088 2.035080 2.044059 2.053027 2.061984 2.070928 2.079859 2.088778 2.097684 2.106576 2.115455 2.124320 2.133172 2.142008 2.150831 2.159638 2.168431 2.177208 2.185969 2.194715 2.203444 2.212157 2.220853 2.229532 2.238194 2.246839 2.255466 2.264075 2.272666 2.281238 2.289791 2.298325 2.306840 2.315335 2.323811 2.332266 2.340701 2.349116 2.357509 2.365882 2.374233 2.382562 2.390869 2.399154 2.407417 2.415657 2.423874 2.432067 2.440237 2.448383 2.456506 2.464603 2.472677 2.480725 2.488748 2.496746 2.504719 2.512665 2.520585 2.528479 2.536346 2.544186 2.551999 2.559785 2.567542 2.575272 2.582973 2.590646 2.598290 2.605905 2.613491 2.621047 2.628573 2.636069 2.643535 2.650970 2.658374 2.665747 2.673088 2.680398 2.687676 2.694921 2.702134 2.709315 2.716462 2.723576 2.730656 2.737703 2.744715 2.751694 2.758637 2.765546 2.772420 2.779258 2.786060 2.792827 2.799558 2.806252 2.812909 2.819529 2.826112 2.832658 2.839166 2.845635 2.852067 2.858460 2.864814 2.871129 2.877405 2.883641 2.889837 2.895993 2.902109 2.908184 2.914218 2.920211 2.926162 2.932072 2.937939 2.943765 2.949548 2.955288 2.960985 2.966639 2.972249 2.977815 2.983338 2.988816 2.994249 2.999638 3.004981 3.010279 3.015531 3.020737 3.025897 3.031011 3.036078 3.041098 3.046071 3.050996 3.055873 3.060702 3.065483 3.070216 3.074899 3.079534 3.084119 3.088654 3.093140 3.097575 3.101960 3.106295 3.110578 3.114810 3.118991 3.123120 3.127197 3.131222 3.135194 3.139113 3.142980 3.146793 3.150552 3.154258 3.157909 3.161506 3.165049 3.168536 3.171969 3.175349 3.178674 3.181947 3.185166 3.188334 3.191450 3.194515 3.197529 3.200493 3.203407 3.206271 3.209087 3.211854 3.214574 3.217246 3.219871 3.222449 3.224982 3.227469 3.229910 3.232307 3.234660 3.236969 3.239235 3.241459 3.243640 3.245779 3.247876 3.249933 3.251950 3.253926 3.255863 3.257761 3.259621 3.261442 3.263226 3.264973 3.266683 3.268356 3.269995 3.271597 3.273166 3.274699 3.276199 3.277666 3.279100 3.280501 3.281870 3.283208 3.284515 3.285791 3.287037 3.288253 3.289441 3.290599 3.291730 3.292833 3.293908 3.294957 3.295979 3.296976 3.297947 3.298893 3.299815 3.300713 3.301587 3.302438 3.303267 3.304073 3.304858 3.305622 3.306365 3.307088 3.307791 3.308475 3.309140 3.309786 3.310415 3.311026 3.311621 3.312199 3.312761 3.313307 3.313839 3.314355 3.314858 3.315347 3.315823 3.316286 3.316737 3.317176 3.317604 3.318021 3.318427 3.318824 3.319212 3.319590 3.319960 3.320322 3.320676 3.321023 3.321364 3.321698 3.322027 3.322351 3.322670 3.322984 3.323295 3.323603 3.323908 3.324210 3.324510 3.324808 3.325104 3.325398 3.325691 3.325982 3.326272 3.326561 3.326849 3.327136 3.327422 3.327708 3.327993 3.328278 3.328563 3.328849 3.329134 3.329420 3.329706 3.329994 3.330282 3.330571 3.330861 3.331152 3.331445 3.331740 3.332037 3.332335 3.332636 3.332938 3.333244 3.333552 3.333862 3.334176 3.334492 3.334812 3.335135 3.335461 3.335792 3.336126 3.336464 3.336806 3.337152 3.337503 3.337858 3.338219 3.338584 3.338954 3.339329 3.339710 3.340096 3.340488 3.340886 3.341290 3.341700 3.342116 3.342538 3.342968 3.343404 3.343847 3.344297 3.344754 3.345218 3.345691 3.346170 3.346658 3.347154 3.347658 3.348170 3.348691 3.349220 3.349758 3.350305 3.350861 3.351426 3.352001 3.352585 3.353179 3.353783 3.354397 3.355021 3.355655 3.356300 3.356956 3.357622 3.358299 3.358987 3.359687 3.360398 3.361121 3.361855 3.362601 3.363359 3.364130 3.364912 3.365707 3.366513 3.367333 3.368164 3.369008 3.369864 3.370732 3.371613 3.372507 3.373413 3.374332 3.375263 3.376207 3.377163 3.378133 3.379115 3.380110 3.381118 3.382138 3.383172 3.384219 3.385278 3.386351 3.387437 3.388536 3.389648 3.390773 3.391912 3.393064 3.394229 3.395408 3.396600 3.397806 3.399025 3.400257 3.401504 3.402763 3.404037 3.405324 3.406625 3.407940 3.409268 3.410611 3.411967 3.413338 3.414722 3.416120 3.417533 3.418959 3.420400 3.421855 3.423324 3.424807 3.426305 3.427817 3.429343 3.430884 3.432439 3.434009 3.435593 3.437192 3.438805 3.440432 3.442073 3.443729 3.445398 3.447082 3.448779 3.450490 3.452215 3.453953 3.455705 3.457470 3.459249 3.461041 3.462846 3.464665 3.466496 3.468340 3.470198 3.472068 3.473951 3.475846 3.477755 3.479675 3.481608 3.483554 3.485512 3.487481 3.489464 3.491458 3.493464 3.495482 3.497511 3.499553 3.501606 3.503671 3.505747 3.507835 3.509933 3.512044 3.514165 3.516297 3.518441 3.520595 3.522760 3.524935 3.527121 3.529318 3.531524 3.533741 3.535968 3.538205 3.540451 3.542708 3.544973 3.547249 3.549533 3.551827 3.554130 3.556442 3.558763 3.561093 3.563432 3.565779 3.568134 3.570498 3.572870 3.575250 3.577638 3.580034 3.582438 3.584849 3.587269 3.589695 3.592129 3.594570 3.597018 3.599473 3.601935 3.604404 3.606879 3.609361 3.611849 3.614344 3.616845 3.619352 3.621865 3.624383 3.626908 3.629438 3.631974 3.634515 3.637061 3.639612 3.642169 3.644730 3.647297 3.649868 3.652444 3.655024 3.657608 3.660197 3.662790 3.665387 3.667988 3.670593 3.673202 3.675814 3.678430 3.681049 3.683671 3.686296 3.688925 3.691556 3.694190 3.696827 3.699467 3.702108 3.704753 3.707399 3.710048 3.712698 3.715351 3.718005 3.720661 3.723319 3.725978 3.728638 3.731300 3.733963 3.736626 3.739291 3.741956 3.744622 3.747289 3.749956 3.752623 3.755291 3.757958 3.760626 3.763293 3.765961 3.768627 3.771294 3.773960 3.776625 3.779289 3.781953 3.784615 3.787277 3.789937 3.792597 3.795256 3.797913 3.800570 3.803226 3.805880 3.808534 3.811186 3.813838 3.816488 3.819138 3.821786 3.824433 3.827079 3.829724 3.832368 3.835010 3.837652 3.840292 3.842931 3.845568 3.848205 3.850840 3.853474 3.856107 3.858739 3.861369 3.863998 3.866626 3.869252 3.871877 3.874500 3.877123 3.879744 3.882363 3.884981 3.887598 3.890213 3.892827 3.895439 3.898050 3.900660 3.903268 3.905874 3.908479 3.911082 3.913684 3.916285 3.918884 3.921481 3.924077 3.926671 3.929263 3.931854 3.934443 3.937031 3.939617 3.942202 3.944784 3.947365 3.949945 3.952522 3.955098 3.957672 3.960245 3.962816 3.965385 3.967952 3.970517 3.973081 3.975643 3.978203 3.980761 3.983317 3.985872 3.988425 3.990975 3.993524 3.996071 3.998616 4.001160 4.003701 4.006240 4.008778 4.011313 4.013846 4.016378 4.018907 4.021435 4.023960 4.026483 4.029005 4.031524 4.034041 4.036556 4.039069 4.041580 4.044089 4.046596 4.049101 4.051603 4.054103 4.056601 4.059097 4.061591 4.064082 4.066572 4.069059 4.071544 4.074026 4.076507 4.078985 4.081460 4.083934 4.086405 4.088874 4.091340 4.093804 4.096266 4.098726 4.101183 4.103637 4.106090 4.108540 4.110987 4.113432 4.115874 4.118315 4.120752 4.123187 4.125620 4.128050 4.130478 4.132903 4.135325 4.137745 4.140163 4.142578 4.144990 4.147400 4.149807 4.152211 4.154613 4.157012 4.159409 4.161803 4.164194 4.166583 4.168968 4.171351 4.173732 4.176110 4.178484 4.180857 4.183226 4.185593 4.187956 4.190317 4.192676 4.195031 4.197383 4.199733 4.202080 4.204424 4.206765 4.209103 4.211438 4.213770 4.216097 4.218421 4.220740 4.223055 4.225365 4.227669 4.229968 4.232261 4.234547 4.236827 4.239100 4.241366 4.243625 4.245876 4.248118 4.250353 4.252578 4.254795 4.257002 4.259200 4.261388 4.263566 4.265733 4.267889 4.270034 4.272167 4.274289 4.276399 4.278496 4.280581 4.282652 4.284711 4.286755 4.288786 4.290803 4.292805 4.294792 4.296764 4.298720 4.300661 4.302585 4.304494 4.306385 4.308260 4.310117 4.311957 4.313778 4.315582 4.317366 4.319132 4.320879 4.322607 4.324314 4.326002 4.327669 4.329315 4.330940 4.332544 4.334127 4.335688 4.337227 4.338744 4.340239 4.341712 4.343162 4.344590 4.345994 4.347376 4.348734 4.350069 4.351380 4.352668 4.353931 4.355171 4.356386 4.357576 4.358743 4.359884 4.361000 4.362091 4.363157 4.364197 4.365211 4.366200 4.367162 4.368099 4.369008 4.369892 4.370748 4.371578 4.372380 4.373155 4.373903 4.374623 4.375315 4.375979 4.376615 4.377223 4.377802 4.378352 4.378874 4.379366 4.379831 4.380266 4.380674 4.381053 4.381404 4.381727 4.382023 4.382291 4.382531 4.382744 4.382930 4.383089 4.383221 4.383326 4.383405 4.383457 4.383483 4.383482 4.383456 4.383403 4.383325 4.383221 4.383092 4.382938 4.382758 4.382553 4.382323 4.382069 4.381790 4.381486 4.381158 4.380806 4.380430 4.380030 4.379606 4.379159 4.378688 4.378193 4.377676 4.377135 4.376572 4.375986 4.375377 4.374745 4.374092 4.373416 4.372718 4.371998 4.371256 4.370493 4.369708 4.368902 4.368074 4.367226 4.366356 4.365466 4.364555 4.363624 4.362672 4.361701 4.360709 4.359697 4.358665 4.357614 4.356543 4.355453 4.354343 4.353215 4.352067 4.350901 4.349716 4.348513 4.347291 4.346051 4.344793 4.343517 4.342224 4.340912 4.339583 4.338237 4.336874 4.335493 4.334095 4.332681 4.331250 4.329803 4.328339 4.326859 4.325362 4.323850 4.322322 4.320779 4.319220 4.317645 4.316055 4.314451 4.312831 4.311196 4.309547 4.307883 4.306205 4.304513 4.302806 4.301086 4.299351 4.297603 4.295841 4.294066 4.292277 4.290475 4.288659 4.286830 4.284988 4.283132 4.281264 4.279383 4.277488 4.275581 4.273662 4.271730 4.269785 4.267828 4.265858 4.263876 4.261882 4.259876 4.257858 4.255827 4.253785 4.251732 4.249666 4.247589 4.245500 4.243400 4.241289 4.239166 4.237032 4.234887 4.232731 4.230564 4.228386 4.226197 4.223998 4.221788 4.219567 4.217336 4.215095 4.212843 4.210582 4.208310 4.206028 4.203736 4.201434 4.199122 4.196801 4.194470 4.192130 4.189780 4.187421 4.185052 4.182674 4.180288 4.177892 4.175487 4.173073 4.170651 4.168220 4.165780 4.163331 4.160875 4.158409 4.155936 4.153454 4.150965 4.148467 4.145961 4.143447 4.140926 4.138397 4.135860 4.133316 4.130764 4.128205 4.125639 4.123065 4.120485 4.117897 4.115302 4.112701 4.110092 4.107477 4.104856 4.102227 4.099593 4.096952 4.094304 4.091651 4.088991 4.086326 4.083654 4.080976 4.078293 4.075604 4.072910 4.070209 4.067504 4.064793 4.062076 4.059355 4.056628 4.053896 4.051159 4.048417 4.045671 4.042919 4.040163 4.037402 4.034637 4.031866 4.029092 4.026313 4.023530 4.020743 4.017951 4.015156 4.012356 4.009552 4.006745 4.003934 4.001119 3.998300 3.995478 3.992653 3.989824 3.986991 3.984156 3.981317 3.978475 3.975630 3.972782 3.969931 3.967078 3.964221 3.961362 3.958500 3.955636 3.952769 3.949900 3.947029 3.944155 3.941279 3.938401 3.935521 3.932639 3.929755 3.926869 3.923982 3.921093 3.918202 3.915310 3.912416 3.909521 3.906625 3.903728 3.900829 3.897929 3.895029 3.892127 3.889224 3.886321 3.883417 3.880512 3.877607 3.874701 3.871795 3.868889 3.865982 3.863075 3.860168 3.857261 3.854354 3.851447 3.848540 3.845633 3.842727 3.839821 3.836916 3.834011 3.831106 3.828203 3.825300 3.822398 3.819497 3.816597 3.813697 3.810799 3.807903 3.805007 3.802113 3.799220 3.796329 3.793439 3.790551 3.787664 3.784780 3.781897 3.779016 3.776137 3.773260 3.770386 3.767513 3.764643 3.761775 3.758910 3.756047 3.753187 3.750329 3.747474 3.744622 3.741773 3.738927 3.736083 3.733243 3.730406 3.727573 3.724742 3.721915 3.719091 3.716271 3.713455 3.710642 3.707833 3.705028 3.702227 3.699429 3.696636 3.693847 3.691062 3.688281 3.685505 3.682733 3.679966 3.677203 3.674444 3.671691 3.668942 3.666198 3.663459 3.660725 3.657996 3.655272 3.652554 3.649840 3.647132 3.644430 3.641733 3.639041 3.636356 3.633676 3.631001 3.628333 3.625671 3.623014 3.620364 3.617720 3.615082 3.612450 3.609825 3.607206 3.604594 3.601989 3.599390 3.596798 3.594212 3.591634 3.589062 3.586498 3.583941 3.581391 3.578848 3.576313 3.573785 3.571264 3.568752 3.566246 3.563749 3.561259 3.558778 3.556304 3.553838 3.551381 3.548931 3.546490 3.544057 3.541633 3.539217 3.536810 3.534411 3.532021 3.529640 3.527268 3.524905 3.522551 3.520206 3.517870 3.515543 3.513226 3.510918 3.508619 3.506330 3.504051 3.501782 3.499522 3.497272 3.495032 3.492802 3.490582 3.488373 3.486173 3.483984 3.481805 3.479637 3.477479 3.475332 3.473196 3.471070 3.468955 3.466852 3.464759 3.462677 3.460606 3.458547 3.456499 3.454462 3.452437 3.450423 3.448421 3.446431 3.444452 3.442485 3.440530 3.438587 3.436656 3.434738 3.432831 3.430937 3.429055 3.427186 3.425329 3.423484 3.421653 3.419834 3.418028 3.416234 3.414454 3.412687 3.410933 3.409192 3.407464 3.405750 3.404049 3.402362 3.400688 3.399028 3.397382 3.395749 3.394130 3.392526 3.390935 3.389358 3.387796 3.386247 3.384712 3.383191 3.381683 3.380189 3.378709 3.377242 3.375789 3.374349 3.372922 3.371509 3.370109 3.368721 3.367347 3.365986 3.364638 3.363302 3.361980 3.360670 3.359373 3.358088 3.356816 3.355556 3.354308 3.353073 3.351850 3.350640 3.349441 3.348254 3.347080 3.345917 3.344766 3.343627 3.342500 3.341384 3.340280 3.339187 3.338106 3.337036 3.335977 3.334930 3.333893 3.332868 3.331854 3.330851 3.329859 3.328877 3.327907 3.326947 3.325998 3.325059 3.324131 3.323213 3.322305 3.321408 3.320521 3.319645 3.318778 3.317921 3.317075 3.316238 3.315411 3.314594 3.313786 3.312988 3.312200 3.311421 3.310652 3.309892 3.309141 3.308400 3.307667 3.306944 3.306230 3.305525 3.304828 3.304141 3.303462 3.302792 3.302131 3.301478 3.300833 3.300197 3.299570 3.298950 3.298339 3.297736 3.297142 3.296555 3.295976 3.295405 3.294842 3.294287 3.293739 3.293199 3.292666 3.292141 3.291624 3.291114 3.290611 3.290115 3.289626 3.289145 3.288671 3.288203 3.287743 3.287289 3.286842 3.286401 3.285968 3.285541 3.285120 3.284706 3.284298 3.283896 3.283501 3.283112 3.282729 3.282352 3.281980 3.281615 3.281256 3.280902 3.280554 3.280212 3.279875 3.279544 3.279218 3.278897 3.278582 3.278272 3.277967 3.277667 3.277372 3.277083 3.276798 3.276518 3.276242 3.275971 3.275705 3.275444 3.275187 3.274934 3.274686 3.274442 3.274202 3.273967 3.273735 3.273508 3.273284 3.273064 3.272849 3.272636 3.272428 3.272223 3.272022 3.271824 3.271630 3.271439 3.271251 3.271067 3.270885 3.270707 3.270532 3.270359 3.270190 3.270023 3.269859 3.269698 3.269540 3.269384 3.269230 3.269079 3.268930 3.268784 3.268639 3.268497 3.268357 3.268219 3.268083 3.267949 3.267816 3.267686 3.267557 3.267429 3.267304 3.267179 3.267056 3.266935 3.266814 3.266695 3.266577 3.266460 3.266345 3.266230 3.266116 3.266002 3.265890 3.265778 3.265667 3.265556 3.265446 3.265336 3.265227 3.265118 3.265009 3.264900 3.264791 3.264682 3.264574 3.264465 3.264356 3.264246 3.264137 3.264027 3.263916 3.263805 3.263693 3.263581 3.263468 3.263354 3.263240 3.263124 3.263007 3.262890 3.262771 3.262651 3.262530 3.262407 3.262283 3.262158 3.262031 3.261902 3.261772 3.261640 3.261506 3.261371 3.261233 3.261094 3.260952 3.260809 3.260663 3.260514 3.260364 3.260211 3.260056 3.259898 3.259737 3.259574 3.259408 3.259240 3.259068 3.258894 3.258716 3.258536 3.258352 3.258165 3.257975 3.257782 3.257585 3.257385 3.257181 3.256973 3.256762 3.256547 3.256329 3.256106 3.255880 3.255649 3.255415 3.255176 3.254933 3.254686 3.254435 3.254179 3.253919 3.253654 3.253384 3.253110 3.252832 3.252548 3.252259 3.251966 3.251668 3.251364 3.251055 3.250742 3.250422 3.250098 3.249768 3.249433 3.249092 3.248745 3.248393 3.248035 3.247672 3.247302 3.246927 3.246545 3.246158 3.245764 3.245365 3.244960 3.244549 3.244134 3.243713 3.243286 3.242856 3.242420 3.241980 3.241535 3.241086 3.240633 3.240176 3.239716 3.239251 3.238783 3.238312 3.237838 3.237361 3.236881 3.236398 3.235913 3.235425 3.234935 3.234443 3.233950 3.233454 3.232957 3.232459 3.231959 3.231458 3.230956 3.230453 3.229950 3.229447 3.228942 3.228438 3.227934 3.227430 3.226926 3.226423 3.225920 3.225418 3.224917 3.224417 3.223919 3.223422 3.222926 3.222432 3.221940 3.221450 3.220962 3.220477 3.219994 3.219513 3.219036 3.218561 3.218090 3.217622 3.217157 3.216696 3.216239 3.215786 3.215337 3.214892 3.214451 3.214015 3.213583 3.213157 3.212735 3.212319 3.211908 3.211503 3.211103 3.210709 3.210321 3.209939 3.209563 3.209194 3.208831 3.208476 3.208127 3.207785 3.207450 3.207123 3.206803 3.206491 3.206187 3.205890 3.205602 3.205323 3.205051 3.204789 3.204535 3.204290 3.204054 3.203828 3.203610 3.203403 3.203205 3.203017 3.202839 3.202672 3.202515 3.202368 3.202232 3.202106 3.201992 3.201889 3.201797 3.201717 3.201648 3.201591 3.201545 3.201512 3.201490 3.201481 3.201484 3.201499 3.201527 3.201567 3.201620 3.201686 3.201765 3.201857 3.201962 3.202081 3.202212 3.202358 3.202517 3.202690 3.202876 3.203077 3.203292 3.203521 3.203765 3.204023 3.204295 3.204583 3.204885 3.205202 3.205534 3.205881 3.206244 3.206622 3.207016 3.207425 3.207850 3.208291 3.208748 3.209221 3.209710 3.210216 3.210738 3.211277 3.211832 3.212405 3.212994 3.213600 3.214224 3.214865 3.215523 3.216199 3.216892 3.217604 3.218333 3.219080 3.219845 3.220629 3.221431 3.222251 3.223090 3.223948 3.224824 3.225720 3.226635 3.227568 3.228521 3.229494 3.230486 3.231498 3.232529 3.233580 3.234652 3.235743 3.236855 3.237987 3.239140 3.240313 3.241507 3.242722 3.243958 3.245214 3.246492 3.247792 3.249112 3.250455 3.251818 3.253204 3.254612 3.256041 3.257493 3.258967 3.260463 3.261982 3.263524 3.265088 3.266675 3.268285 3.269918 3.271574 3.273253 3.274956 3.276683 3.278433 3.280207 3.282005 3.283826 3.285672 3.287542 3.289437 3.291356 3.293300 3.295268 3.297261 3.299279 3.301323 3.303391 3.305485 3.307604 3.309748 3.311919 3.314115 3.316337 3.318585 3.320859 3.323159 3.325486 3.327839 3.330219 3.332626 3.335059 3.337519 3.340007 3.342521 3.345063 3.347633 3.350230 3.352854 3.355506 3.358186 3.360894 3.363630 3.366393 3.369185 3.372005 3.374853 3.377730 3.380634 3.383568 3.386530 3.389520 3.392539 3.395587 3.398664 3.401769 3.404904 3.408068 3.411260 3.414483 3.417734 3.421015 3.424325 3.427665 3.431034 3.434433 3.437862 3.441320 3.444809 3.448327 3.451876 3.455455 3.459064 3.462703 3.466372 3.470072 3.473803 3.477564 3.481356 3.485179 3.489032 3.492916 3.496832 3.500778 3.504756 3.508764 3.512804 3.516876 3.520979 3.525113 3.529279 3.533477 3.537706 3.541967 3.546260 3.550585 3.554943 3.559332 3.563753 3.568207 3.572693 3.577212 3.581763 3.586347 3.590963 3.595612 3.600294 3.605009 3.609757 3.614538 3.619352 3.624199 3.629079 3.633993 3.638940 3.643921 3.648936 3.653984 3.659065 3.664181 3.669330 3.674514 3.679731 3.684983 3.690269 3.695589 3.700943 3.706332 3.711756 3.717214 3.722706 3.728234 3.733796 3.739392 3.745020 3.750673 3.756347 3.762037 3.767738 3.773446 3.779154 3.784859 3.790555 3.796237 3.801901 3.807542 3.813154 3.818732 3.824273 3.829770 3.835220 3.840616 3.845954 3.851229 3.856437 3.861572 3.866629 3.871604 3.876491 3.881285 3.885983 3.890577 3.895065 3.899441 3.903699 3.907835 3.911845 3.915722 3.919463 3.923062 3.926514 3.929815 3.932959 3.935942 3.938758 3.941403 3.943872 3.946159 3.948261 3.950171 3.951886 3.953399 3.954707 3.955804 3.956685 3.957346 3.957781 3.957986 3.957955 3.957685 3.957168 3.956402 3.955380 3.954099 3.952552 3.950736 3.948645 3.946274 3.943618 3.940669 3.937410 3.933821 3.929884 3.925578 3.920886 3.915787 3.910263 3.904295 3.897863 3.890949 3.883532 3.875595 3.867118 3.858081 3.848466 3.838254 3.827425 3.815960 3.803841 3.791047 3.777561 3.763362 3.748430 3.732704 3.716086 3.698475 3.679772 3.659877 3.638688 3.616098 3.591939 3.566021 3.538150 3.508136 3.475786 3.440908 3.403310 3.362801 3.319189 3.272282 3.221887 3.167814 3.109869 3.047862 2.981601 2.910893 2.835547 2.755370 2.670171 2.579759 2.483940 2.382524 2.275318 2.162131 2.042770 1.917044 1.784761 1.645729 1.499811 1.347862 1.191605 1.032788 0.873162 0.714476 0.558481 0.406628 0.259154 0.115989 -0.022938 -0.157698 -0.288359 -0.414994 -0.537672 -0.656463 -0.771439 -0.882669 -0.990223 -1.094173 -1.194589 -1.291540 -1.385099 -1.475333 -1.562315 -1.646115 -1.726802 -1.804448 -1.879123 -1.950897 -2.019840 -2.086023 -2.149517 -2.210391 -2.268716 -2.324561 -2.377976 -2.429003 -2.477683 -2.524059 -2.568171 -2.610061 -2.649771 -2.687343 -2.722818 -2.756237 -2.787643 -2.817077 -2.844580 -2.870194 -2.893961 -2.915922 -2.936120 -2.954595 -2.971389 -2.986543 -3.000100 -3.012101 -3.022588 -3.031602 -3.039185 -3.045378 -3.050222 -3.053761 -3.056035 -3.057085 -3.056954 -3.055683 -3.053314 -3.049888 -3.045447 -3.040032 -3.033685 -3.026448 -3.018362 -3.009469 -2.999811 -2.989428 -2.978364 -2.966658 -2.954353 -2.941491 -2.928113 -2.914261 -2.899976 -2.885300 -2.870275 -2.854941 -2.839342 -2.823518 -2.807510 -2.791362 -2.775113 -2.758806 -2.742483 -2.726184 -2.709953 -2.693828 -2.677834 -2.661971 -2.646239 -2.630639 -2.615172 -2.599837 -2.584634 -2.569562 -2.554622 -2.539812 -2.525133 -2.510584 -2.496164 -2.481874 -2.467713 -2.453680 -2.439774 -2.425997 -2.412347 -2.398824 -2.385427 -2.372156 -2.359011 -2.345991 -2.333096 -2.320325 -2.307679 -2.295156 -2.282756 -2.270479 -2.258325 -2.246293 -2.234382 -2.222593 -2.210925 -2.199377 -2.187949 -2.176641 -2.165452 -2.154382 -2.143431 -2.132598 -2.121882 -2.111284 -2.100803 -2.090438 -2.080189 -2.070056 -2.060039 -2.050136 -2.040348 -2.030674 -2.021114 -2.011667 -2.002333 -1.993111 -1.984002 -1.975005 -1.966118 -1.957343 -1.948679 -1.940124 -1.931680 -1.923344 -1.915118 -1.907000 -1.898991 -1.891089 -1.883295 -1.875608 -1.868027 -1.860552 -1.853184 -1.845920 -1.838762 -1.831708 -1.824759 -1.817913 -1.811171 -1.804532 -1.797995 -1.791561 -1.785229 -1.778998 -1.772868 -1.766838 -1.760909 -1.755080 -1.749350 -1.743720 -1.738188 -1.732754 -1.727418 -1.722180 -1.717038 -1.711994 -1.707045 -1.702193 -1.697436 -1.692774 -1.688207 -1.683734 -1.679355 -1.675069 -1.670877 -1.666777 -1.662770 -1.658855 -1.655031 -1.651298 -1.647656 -1.644104 -1.640642 -1.637270 -1.633987 -1.630793 -1.627687 -1.624669 -1.621738 -1.618895 -1.616138 -1.613468 -1.610884 -1.608385 -1.605971 -1.603643 -1.601398 -1.599238 -1.597161 -1.595168 -1.593257 -1.591428 -1.589682 -1.588017 -1.586434 -1.584931 -1.583508 -1.582166 -1.580903 -1.579720 -1.578615 -1.577589 -1.576640 -1.575770 -1.574976 -1.574260 -1.573620 -1.573056 -1.572567 -1.572154 -1.571816 -1.571552 -1.571362 -1.571246 -1.571203 -1.571234 -1.571336 -1.571511 -1.571757 -1.572074 -1.572463 -1.572922 -1.573451 -1.574050 -1.574718 -1.575455 -1.576260 -1.577134 -1.578075 -1.579084 -1.580159 -1.581301 -1.582509 -1.583783 -1.585122 -1.586527 -1.587995 -1.589528 -1.591125 -1.592785 -1.594508 -1.596293 -1.598141 -1.600050 -1.602021 -1.604052 -1.606145 -1.608297 -1.610509 -1.612781 -1.615111 -1.617501 -1.619948 -1.622453 -1.625016 -1.627635 -1.630311 -1.633044 -1.635832 -1.638676 -1.641574 -1.644527 -1.647535 -1.650596 -1.653711 -1.656879 -1.660099 -1.663371 -1.666696 -1.670072 -1.673499 -1.676976 -1.680503 -1.684080 -1.687706 -1.691380 -1.695103 -1.698873 -1.702691 -1.706555 -1.710465 -1.714422 -1.718423 -1.722470 -1.726561 -1.730695 -1.734874 -1.739095 -1.743358 -1.747664 -1.752012 -1.756400 -1.760829 -1.765299 -1.769808 -1.774356 -1.778943 -1.783568 -1.788232 -1.792932 -1.797670 -1.802444 -1.807254 -1.812099 -1.816979 -1.821894 -1.826844 -1.831826 -1.836842 -1.841891 -1.846972 -1.852084 -1.857228 -1.862403 -1.867608 -1.872843 -1.878107 -1.883401 -1.888723 -1.894072 -1.899450 -1.904854 -1.910285 -1.915743 -1.921226 -1.926734 -1.932267 -1.937824 -1.943405 -1.949009 -1.954636 -1.960286 -1.965957 -1.971650 -1.977364 -1.983099 -1.988853 -1.994627 -2.000421 -2.006233 -2.012063 -2.017911 -2.023776 -2.029658 -2.035556 -2.041470 -2.047400 -2.053344 -2.059303 -2.065276 -2.071262 -2.077262 -2.083274 -2.089298 -2.095334 -2.101381 -2.107438 -2.113506 -2.119584 -2.125671 -2.131766 -2.137871 -2.143983 -2.150102 -2.156229 -2.162362 -2.168501 -2.174645 -2.180795 -2.186949 -2.193108 -2.199270 -2.205435 -2.211603 -2.217774 -2.223946 -2.230119 -2.236294 -2.242469 -2.248644 -2.254818 -2.260991 -2.267163 -2.273333 -2.279501 -2.285665 -2.291827 -2.297984 -2.304138 -2.310286 -2.316430 -2.322567 -2.328699 -2.334824 -2.340942 -2.347052 -2.353155 -2.359248 -2.365333 -2.371409 -2.377475 -2.383530 -2.389575 -2.395608 -2.401629 -2.407639 -2.413635 -2.419619 -2.425589 -2.431544 -2.437486 -2.443412 -2.449322 -2.455217 -2.461095 -2.466957 -2.472801 -2.478627 -2.484435 -2.490224 -2.495994 -2.501744 -2.507474 -2.513184 -2.518873 -2.524542 -2.530189 -2.535814 -2.541417 -2.546998 -2.552557 -2.558092 -2.563604 -2.569092 -2.574556 -2.579996 -2.585411 -2.590801 -2.596166 -2.601505 -2.606817 -2.612104 -2.617363 -2.622596 -2.627801 -2.632978 -2.638127 -2.643247 -2.648339 -2.653402 -2.658435 -2.663438 -2.668411 -2.673354 -2.678265 -2.683146 -2.687995 -2.692812 -2.697597 -2.702349 -2.707068 -2.711754 -2.716407 -2.721026 -2.725611 -2.730164 -2.734683 -2.739168 -2.743620 -2.748039 -2.752425 -2.756777 -2.761096 -2.765383 -2.769638 -2.773862 -2.778056 -2.782223 -2.786361 -2.790474 -2.794561 -2.798624 -2.802663 -2.806681 -2.810677 -2.814654 -2.818612 -2.822551 -2.826474 -2.830382 -2.834274 -2.838153 -2.842020 -2.845874 -2.849719 -2.853554 -2.857381 -2.861201 -2.865014 -2.868822 -2.872627 -2.876428 -2.880227 -2.884026 -2.887825 -2.891625 -2.895427 -2.899233 -2.903043 -2.906858 -2.910680 -2.914510 -2.918347 -2.922194 -2.926052 -2.929920 -2.933801 -2.937695 -2.941603 -2.945527 -2.949466 -2.953423 -2.957398 -2.961391 -2.965405 -2.969440 -2.973497 -2.977577 -2.981680 -2.985809 -2.989963 -2.994145 -2.998354 -3.002592 -3.006860 -3.011158 -3.015489 -3.019851 -3.024246 -3.028672 -3.033131 -3.037622 -3.042145 -3.046700 -3.051287 -3.055905 -3.060556 -3.065238 -3.069952 -3.074697 -3.079474 -3.084283 -3.089123 -3.093995 -3.098899 -3.103833 -3.108799 -3.113797 -3.118825 -3.123885 -3.128976 -3.134098 -3.139251 -3.144436 -3.149651 -3.154897 -3.160174 -3.165482 -3.170821 -3.176190 -3.181591 -3.187021 -3.192483 -3.197975 -3.203498 -3.209051 -3.214634 -3.220248 -3.225893 -3.231567 -3.237272 -3.243007 -3.248773 -3.254568 -3.260394 -3.266249 -3.272135 -3.278050 -3.283995 -3.289970 -3.295975 -3.302010 -3.308075 -3.314169 -3.320292 -3.326446 -3.332629 -3.338841 -3.345083 -3.351354 -3.357654 -3.363984 -3.370343 -3.376731 -3.383149 -3.389595 -3.396071 -3.402576 -3.409109 -3.415672 -3.422263 -3.428882 -3.435529 -3.442203 -3.448903 -3.455631 -3.462384 -3.469162 -3.475966 -3.482794 -3.489647 -3.496524 -3.503423 -3.510346 -3.517292 -3.524259 -3.531248 -3.538259 -3.545290 -3.552342 -3.559414 -3.566505 -3.573615 -3.580744 -3.587892 -3.595057 -3.602240 -3.609440 -3.616656 -3.623888 -3.631136 -3.638399 -3.645677 -3.652969 -3.660274 -3.667593 -3.674925 -3.682269 -3.689625 -3.696992 -3.704370 -3.711759 -3.719157 -3.726565 -3.733982 -3.741408 -3.748841 -3.756281 -3.763728 -3.771181 -3.778639 -3.786101 -3.793567 -3.801037 -3.808508 -3.815982 -3.823457 -3.830933 -3.838409 -3.845884 -3.853358 -3.860829 -3.868298 -3.875764 -3.883226 -3.890683 -3.898135 -3.905581 -3.913020 -3.920452 -3.927877 -3.935293 -3.942699 -3.950096 -3.957483 -3.964858 -3.972222 -3.979573 -3.986911 -3.994235 -4.001545 -4.008840 -4.016120 -4.023383 -4.030629 -4.037857 -4.045067 -4.052259 -4.059430 -4.066582 -4.073712 -4.080821 -4.087908 -4.094972 -4.102012 -4.109029 -4.116020 -4.122987 -4.129927 -4.136840 -4.143726 -4.150584 -4.157413 -4.164213 -4.170983 -4.177722 -4.184430 -4.191106 -4.197749 -4.204360 -4.210936 -4.217478 -4.223984 -4.230455 -4.236889 -4.243286 -4.249645 -4.255966 -4.262248 -4.268489 -4.274691 -4.280851 -4.286970 -4.293046 -4.299080 -4.305069 -4.311015 -4.316915 -4.322770 -4.328578 -4.334340 -4.340054 -4.345720 -4.351337 -4.356904 -4.362421 -4.367887 -4.373302 -4.378665 -4.383975 -4.389232 -4.394434 -4.399582 -4.404674 -4.409711 -4.414690 -4.419613 -4.424477 -4.429283 -4.434029 -4.438716 -4.443341 -4.447906 -4.452409 -4.456849 -4.461226 -4.465539 -4.469788 -4.473971 -4.478089 -4.482140 -4.486124 -4.490041 -4.493889 -4.497667 -4.501376 -4.505013 -4.508578 -4.512071 -4.515490 -4.518834 -4.522102 -4.525295 -4.528410 -4.531447 -4.534405 -4.537283 -4.540080 -4.542796 -4.545429 -4.547979 -4.550445 -4.552825 -4.555120 -4.557327 -4.559447 -4.561478 -4.563420 -4.565271 -4.567030 -4.568698 -4.570272 -4.571753 -4.573139 -4.574429 -4.575622 -4.576718 -4.577716 -4.578615 -4.579413 -4.580110 -4.580706 -4.581199 -4.581588 -4.581873 -4.582052 -4.582125 -4.582091 -4.581949 -4.581698 -4.581337 -4.580866 -4.580283 -4.579588 -4.578779 -4.577857 -4.576819 -4.575665 -4.574395 -4.573007 -4.571500 -4.569874 -4.568127 -4.566260 -4.564270 -4.562157 -4.559921 -4.557560 -4.555073 -4.552460 -4.549719 -4.546850 -4.543852 -4.540724 -4.537465 -4.534075 -4.530551 -4.526895 -4.523104 -4.519177 -4.515115 -4.510915 -4.506578 -4.502102 -4.497486 -4.492729 -4.487832 -4.482792 -4.477608 -4.472281 -4.466809 -4.461191 -4.455426 -4.449513 -4.443453 -4.437243 -4.430882 -4.424371 -4.417707 -4.410891 -4.403922 -4.396802 -4.389533 -4.382116 -4.374552 -4.366844 -4.358993 -4.351000 -4.342867 -4.334597 -4.326189 -4.317647 -4.308972 -4.300164 -4.291227 -4.282161 -4.272968 -4.263650 -4.254209 -4.244645 -4.234961 -4.225158 -4.215237 -4.205202 -4.195052 -4.184790 -4.174417 -4.163935 -4.153346 -4.142650 -4.131851 -4.120949 -4.109945 -4.098843 -4.087642 -4.076345 -4.064954 -4.053470 -4.041894 -4.030229 -4.018475 -4.006635 -3.994710 -3.982702 -3.970612 -3.958442 -3.946194 -3.933869 -3.921468 -3.908994 -3.896448 -3.883832 -3.871147 -3.858395 -3.845577 -3.832696 -3.819752 -3.806747 -3.793684 -3.780563 -3.767386 -3.754155 -3.740871 -3.727536 -3.714152 -3.700721 -3.687243 -3.673720 -3.660155 -3.646548 -3.632902 -3.619218 -3.605497 -3.591741 -3.577953 -3.564132 -3.550282 -3.536403 -3.522497 -3.508567 -3.494612 -3.480636 -3.466640 -3.452625 -3.438593 