0.172200 0.202931 0.919873 -1.852111 -0.457560 -1.159364 0.218350 1.588196 0.036760 -0.764759 -0.522834 0.467288 0.964264 0.586232 0.205499 -0.624432 -0.367854 -1.386446 0.450738 -1.559397 0.386982 2.372955 0.331953 0.351192 1.361712 1.009312 -0.357885 -0.344154 2.077631 -0.137335 1.212602 1.331352 0.460901 -0.109921 1.047558 0.585240 -0.207037 0.999459 0.606587 2.205589 -0.935690 -0.089717 -0.826960 1.018097 -0.925294 -0.781079 -0.742425 1.098896 -0.559577 1.868308 -1.950791 0.272149 -0.310743 -1.868284 -0.406906 0.071157 -0.440175 -1.874827 -1.839714 0.032513 -2.126079 1.254947 -1.513850 1.747297 0.892208 0.512327 3.171382 0.249707 -0.657453 -1.224553 -1.041468 1.133783 0.909092 -0.363268 -1.949082 -0.143581 1.577038 -0.930928 -2.984395 0.126744 0.525827 -0.317300 -0.122095 -0.392064 0.314519 0.594963 0.473019 0.116923 -0.984430 -1.223018 0.641287 -1.317850 -0.965577 0.805770 0.038663 -0.858799 -0.028743 0.378373 -0.257275 1.087865 -1.013091 -0.792950 -1.198593 1.317919 0.890302 0.824760 -1.577640 -1.207911 -0.395305 0.190103 0.053199 -0.709330 0.049669 -0.979387 0.000709 -0.156573 -1.351273 -1.123258 0.712486 -0.593237 2.500604 -0.883929 1.743562 0.738052 -0.926852 0.324386 -1.184694 1.356860 0.330315 0.484809 -0.856843 -1.107984 -0.851134 0.891841 -0.527824 1.232482 0.986158 -0.709692 1.352957 -0.748319 -1.147941 -0.543520 0.584155 1.536570 -0.908854 0.022105 -0.118542 0.694763 -0.595141 -0.035067 -0.812823 1.164080 -0.086466 -2.304284 1.500878 -0.644153 -1.382980 0.447081 1.376785 -0.520881 1.010542 3.004922 0.654500 2.055164 -0.750533 -1.245561 1.165206 -0.776538 -0.724624 0.364780 0.467821 -1.176751 0.425449 -0.384302 1.420090 0.116129 -1.012737 -0.365308 -0.217832 0.535162 1.488728 -0.509244 0.218237 0.291414 0.958578 -1.016851 -0.833175 -0.286552 0.391887 0.470569 -1.370485 -1.100303 -0.316227 -0.675373 1.152396 0.801890 2.512752 -0.715660 -0.276747 -0.407419 -1.509762 1.590376 -0.147235 1.751003 0.841339 -1.785134 -0.282324 0.242689 1.353026 -2.027069 -0.390009 -0.536706 -0.091305 -1.666703 0.221818 -1.165631 0.392056 -0.157713 -0.162757 -0.728452 0.089357 0.089263 -0.010452 1.184570 -1.439557 0.711634 0.465136 -0.066632 1.596865 -1.649577 -0.111830 -1.431744 -0.965034 0.091301 1.254787 -0.110918 0.557522 -0.530416 0.171305 0.154386 0.047595 -0.162810 -0.770618 0.651883 2.278556 -0.352908 -0.852662 0.376615 -0.253163 -0.163560 -0.836216 0.915907 0.707663 -0.244613 0.384925 0.789578 -0.412736 0.273230 -1.058198 -0.385549 0.267661 -0.261091 0.326184 -0.931824 -0.600803 1.219152 0.480003 -1.389256 -0.012001 0.568402 1.126117 2.183823 1.735951 2.007224 0.643186 -0.472966 -0.580216 -0.033421 -0.155626 -0.821348 -0.647307 -1.072277 -0.650324 -0.449472 -0.993160 -0.259941 0.980460 -0.879128 1.183890 0.341645 -0.176438 -0.163611 -0.739088 0.499057 -0.297237 0.513881 0.249486 0.365231 -0.222564 -0.752606 -1.232968 0.645645 0.492390 -0.754709 0.595915 -0.099018 0.701942 -1.814267 2.095735 -0.374152 0.539186 -0.211533 -0.782495 1.204173 1.519069 1.411999 0.329965 1.093313 0.296022 -0.841448 -0.181213 0.179565 0.144888 0.769667 1.302982 0.563037 0.653687 0.015433 -0.636832 -0.613223 -0.567452 -1.125271 -0.927525 0.495132 -0.716033 -0.995844 2.178081 -0.609998 0.926161 -0.549220 0.838203 -0.018612 -0.436929 -2.247507 -0.235186 -0.692392 -0.556271 1.342269 0.447183 -1.766274 -2.514046 0.325028 1.209970 -1.329610 -0.549063 -1.222757 -1.285397 -0.875052 0.342170 -1.226200 0.255648 1.537312 -0.490499 -0.263945 0.911153 0.091211 -1.778525 0.905096 -0.730982 -0.494823 -0.973885 1.551083 0.552774 -0.534265 -0.436090 0.048609 0.147139 -1.133098 0.169350 -1.310545 1.521442 1.211573 0.469152 1.522124 0.700872 -1.695288 -1.517565 -1.394505 -0.194290 -0.242174 -0.176625 1.032892 -0.732480 -1.500924 -1.962210 0.663022 1.494220 1.830242 -2.127066 -0.987893 -0.092559 1.832473 -0.555752 -0.111133 1.563068 2.116678 -0.344158 -0.394266 0.665412 0.500445 1.086157 1.261007 -2.637098 1.631162 -0.469657 -0.235072 -0.512064 -0.406407 0.870265 0.772626 -0.350382 0.110797 0.235341 -0.958667 -0.841276 0.971475 1.912622 -0.098123 -0.531963 -0.489467 -0.293794 1.580321 -0.116900 1.630675 -0.497299 2.387679 -1.119207 0.442383 0.085521 1.859822 -1.482430 1.830407 0.225322 -0.808832 -1.155371 -1.709668 0.955814 -0.540026 0.408766 0.694424 -0.922050 -0.521969 -1.101870 -1.551888 0.311060 -0.355981 -0.837499 -1.267675 -0.854408 -0.080132 -0.672459 -0.593341 -1.252823 -0.315203 -0.831250 -1.249845 0.082703 -0.011601 1.288822 1.614411 0.812946 0.087141 0.696240 1.111418 -1.043534 1.445333 0.347518 -0.763447 -2.428097 -0.826417 -1.424319 0.030191 -1.252164 0.106454 0.788953 0.297897 0.940599 0.007657 0.060427 0.505820 -0.189928 -0.277460 -0.921894 -0.115467 0.427803 0.999101 -2.201739 -1.194107 0.136490 -0.437049 0.203319 0.584844 0.552471 -0.620195 0.273324 0.036934 -2.452522 0.326601 -0.579203 -0.357081 0.244559 -0.906607 -0.693695 -0.606141 0.775730 -1.410196 0.107794 0.557852 0.563185 -1.270402 -0.507013 2.472115 -1.593041 -0.559761 -0.265054 -0.073069 -0.639710 1.228202 -0.949648 -0.136489 0.590222 1.055141 -0.999640 1.554410 1.183299 -0.133012 0.500592 0.263469 -1.559621 -1.370420 -0.036962 -0.189421 -0.091113 1.762895 -1.510210 0.187435 0.669207 -0.624194 -1.293529 -0.606886 1.291190 1.060009 1.077731 1.381791 1.856319 -1.317481 0.077734 -0.281749 0.316865 -0.461539 0.809269 -1.727686 0.596827 2.328437 1.314595 -0.714799 -1.239303 0.243293 0.158028 0.138618 0.420308 -1.446906 0.893649 1.381946 0.032485 1.104196 0.868636 -0.328036 -0.296098 -0.258639 0.261875 -1.034041 0.425524 0.237059 1.604334 -0.413385 -0.233429 1.538458 0.096661 -0.433327 -0.575634 0.186746 -0.442422 2.156694 0.467101 -0.670661 0.743783 1.869714 -0.237027 0.350640 -0.419227 -0.894281 1.753724 0.184337 0.829497 0.611933 0.807536 0.682072 1.805754 -0.964477 1.621565 1.267207 -1.178009 -0.373014 -0.399754 -0.807907 1.068666 -2.098277 0.791584 -0.606655 1.142778 -1.047957 -1.308638 0.690028 -0.084658 -1.638195 0.257697 -0.946684 1.239043 0.975156 2.764400 0.413022 -1.768922 -0.828805 2.095164 0.470670 -0.918736 0.385424 -0.141633 -0.328554 -0.326051 0.142283 1.223235 -0.646520 1.449833 -0.144739 -0.412625 0.771537 -1.254276 0.225479 -0.629307 0.335717 0.150949 -1.504416 0.656709 0.999981 0.466163 0.284044 -0.332161 -0.771356 1.177070 0.919898 0.716058 -0.634483 -0.941912 -0.744190 -0.027220 -0.123397 0.381099 -0.215889 0.629019 0.634417 0.013216 -0.031663 -1.328327 -0.460851 0.093751 0.138981 0.103035 -1.664494 -0.592750 -0.553743 0.228524 -0.582260 0.125840 -0.442859 1.003516 1.476549 0.615430 2.946139 -0.061442 0.836617 0.428970 -1.372745 -0.076554 -0.309074 0.484577 0.266144 0.494428 0.478018 0.500135 0.509687 -2.126862 0.073030 0.449275 1.736924 0.170562 0.314528 -0.853245 0.066080 0.605228 0.890930 -1.149668 0.959877 -1.563683 -1.025682 0.175928 0.696505 0.590438 -0.712507 -0.958346 1.022434 1.543589 1.843612 0.167285 -0.912852 -0.039503 -0.630917 -1.210218 -0.092532 -1.328873 -0.281327 0.418513 -0.066907 -0.021350 -0.617746 2.603268 0.177213 1.032276 -0.598750 -0.907100 1.034258 0.698081 -0.589882 -0.673062 1.461872 0.680822 0.108631 -0.026217 0.546355 -0.667561 0.111417 -1.301424 0.174016 0.109736 0.246395 0.803075 -1.732305 -0.579138 0.519965 -0.672989 1.788068 -0.505237 -0.026963 -1.959674 -0.764557 -0.279380 -1.583307 1.774654 1.244414 0.364816 -0.880902 -1.210361 -0.464326 -1.863762 -1.636658 0.140058 0.283504 0.549332 0.531461 0.586047 2.957650 -0.664039 -2.914603 0.256914 -0.499249 0.349645 1.145144 -0.731197 0.268454 -0.284057 -0.701271 0.256917 0.091490 -1.105561 -0.349020 -1.419152 -0.461074 -1.152257 0.911017 -0.642334 0.287332 0.831736 0.782086 -0.498634 -0.538361 1.930093 2.069603 0.621633 -0.800846 -1.849821 -0.848395 -0.891099 0.260616 1.793655 -1.394116 -1.339348 0.078706 -1.061994 0.200398 0.995833 -0.939193 -1.851052 1.045166 -0.383227 -0.297151 1.333022 0.470163 0.598654 0.494965 -0.127227 0.364249 0.221064 0.133074 1.183791 -0.188592 -1.231081 0.125667 -0.547795 -1.666341 0.274441 -1.693947 0.035582 -0.089977 -1.086534 2.119922 1.034333 1.205387 -1.085195 1.146421 0.154225 1.373049 0.918489 0.067630 0.867105 -1.131434 -0.137513 1.348329 1.143595 0.353505 0.923408 -1.500555 -1.076235 -0.493059 0.676166 0.399780 -0.201705 -1.163959 -0.192055 -0.065534 -0.145624 -0.313244 0.308009 2.233176 -1.095915 -1.256156 -0.081994 -0.029094 -0.054772 0.933457 0.222795 0.422444 -0.085594 0.571378 0.306944 0.832186 -1.216630 -0.961442 -0.825562 -0.025426 -1.300660 1.318770 -1.406611 -0.199701 -0.265778 -0.129064 0.486173 0.221967 0.970194 -0.529599 0.439863 0.202340 -1.629803 0.428707 -0.532158 -1.435095 2.356122 0.064792 -1.365981 -0.123546 -0.669747 0.127729 1.021478 -0.343970 -0.853016 0.021537 0.137128 0.018079 -1.345922 0.696637 -1.355321 0.381212 1.305341 -0.670495 2.042969 -1.599859 -0.282776 -1.295096 -2.785466 -0.648166 -0.295644 0.095743 -0.642449 -0.240756 -0.097390 1.160898 -0.953082 -0.914315 0.887691 -0.438938 1.002700 -0.061700 -1.058735 0.286435 0.748637 1.878134 -0.492338 -1.431614 1.175561 -0.898860 0.615690 0.603158 0.053152 -0.425299 -0.959974 -0.720363 -0.240530 0.995961 -0.508822 0.311416 1.516438 -1.007068 -0.132425 0.745581 -1.163172 -2.212288 -0.208610 -0.185783 -1.265359 -1.676014 2.197412 0.644480 0.883205 -0.099080 3.015325 -0.502503 -0.919842 0.665630 0.352307 1.773701 -0.666137 -0.917709 1.561513 0.215945 0.884464 -0.307164 -0.663194 0.707789 1.150909 1.023250 -1.147866 -2.619522 -0.981765 1.506030 0.573303 0.425301 0.404071 1.335685 -0.535801 1.329831 -1.130689 0.331846 1.345334 0.595765 -1.173603 -1.053685 0.466758 -0.346058 0.333803 0.052499 0.234519 -0.234935 0.503721 -0.273698 1.571031 -1.845962 -0.162792 0.273615 -0.835321 -0.045839 0.312582 0.524201 -0.816219 -0.549018 -0.566107 -1.072989 -0.311592 0.178665 -0.378943 -0.822459 0.607151 0.523065 -0.117212 1.036180 -0.448973 -2.049432 -0.594435 1.195832 -1.460223 0.610901 -0.872599 -0.345971 0.889883 0.658056 0.562709 0.292214 1.669174 0.706562 -1.152816 -0.483855 0.619788 -0.042876 0.484725 -0.937398 -1.793930 0.388116 -0.363686 0.933250 0.511421 -1.162707 -2.047895 1.287325 -0.212877 -0.833989 0.888379 0.194877 -0.677348 1.150588 1.488243 0.641681 1.109623 -0.347917 -0.184682 -1.492696 -1.282731 -0.123449 -0.795463 -0.503391 0.131752 -1.483690 0.125120 -1.912872 0.340278 0.579075 1.230125 -0.751176 0.634427 -1.810585 -0.269054 -0.533022 1.852233 -0.357092 -0.760726 0.094146 1.290672 1.202721 -1.744500 0.354189 -0.508891 -0.086811 -0.940023 -0.307706 -0.210701 -1.357505 0.794631 0.418558 1.203367 -1.545308 1.239995 0.883705 -0.943218 -0.301614 0.014993 -0.327600 -0.413166 0.840261 0.044487 -1.649719 1.042682 0.100589 0.260665 -0.008354 1.218098 -0.712102 1.863107 -0.993590 1.062879 -1.153103 -0.235205 0.884828 -1.205674 -0.735135 1.410019 0.295658 -0.338817 0.170389 -0.381050 0.346957 0.735259 0.010032 0.540898 0.497082 -1.252329 -0.522292 -0.594409 0.757209 1.076483 0.368103 -0.775992 0.622492 0.003141 1.146637 -1.116784 0.305499 -1.021510 -0.061163 -0.115825 -0.814618 -1.781098 -0.423242 -0.231931 -0.219868 -0.200909 -0.776986 -1.104461 1.469156 -0.631468 0.706843 0.968774 -0.190786 1.123757 0.113189 -1.526150 0.236882 0.729970 0.080746 -0.089239 -2.426529 -0.654937 1.076731 -0.238646 1.466782 -0.140265 0.971033 -0.503646 -1.516768 2.116481 0.205314 -0.103624 -1.030233 -0.583950 -0.407418 -0.495739 -1.683377 -0.413062 0.956429 0.956576 -0.355214 -0.290704 -0.183174 0.437057 -0.977237 0.220354 -0.548110 -0.873881 -0.123293 -0.181631 0.531072 -0.307641 1.069879 0.792665 -0.409831 -0.366454 -0.467655 -0.964422 0.221527 -1.120171 -0.273445 1.513002 -0.373296 1.599875 -0.087424 0.205344 -0.670801 2.412852 0.685192 1.753011 0.261665 -0.863620 -1.239030 -0.669596 -1.264137 -1.369521 0.700601 1.853165 -0.531458 0.907153 1.904262 1.123841 0.831488 -1.364345 0.098355 -1.283257 0.269182 1.115817 0.367370 -0.644728 0.674805 2.520194 0.848149 0.702012 0.388888 2.248945 -0.479823 -0.382912 -1.191277 -0.361633 2.120031 -0.735737 0.801526 2.312922 1.210805 1.675103 0.572859 -0.574812 -0.653069 0.038266 -0.070221 -0.162535 1.795003 1.627460 -0.140110 -0.014415 -0.654893 0.671496 -0.240652 0.384892 0.858361 -2.018562 -0.796822 -0.267990 -0.071620 0.372240 -2.093213 0.287360 0.793312 -0.751082 -0.760620 0.984503 -1.341179 -0.494213 -1.717502 -0.765047 -0.126607 0.566636 -1.250739 0.724246 0.795023 -0.409246 -0.393169 -1.096277 0.346901 -0.483377 -0.877498 -0.290826 -3.142706 -1.243851 1.642232 -0.903366 -0.737494 -2.527695 1.240875 -0.334539 -1.354972 -0.847265 -0.251740 -1.635388 0.232556 -0.477232 1.376418 -0.660846 -0.402550 -1.050292 0.852170 -1.705566 0.727542 1.062055 -0.779897 -1.709698 -1.026627 -0.189384 0.148750 -1.116941 0.131368 -0.430175 -0.093668 -0.782640 -1.403610 0.515078 -0.342920 0.436081 0.747724 0.184031 -2.159389 0.465194 0.203198 1.275522 -1.515065 0.579278 -1.315712 0.850980 1.722799 0.633969 -1.171019 0.087830 1.445210 1.640374 -0.495878 -1.186798 0.784591 0.127619 -0.452499 -0.138308 1.066012 -2.561075 0.954012 0.535133 -0.003172 0.489924 -0.841790 0.099464 2.226137 1.460105 -0.732521 -0.065728 -0.554595 0.147746 -0.111263 0.363599 2.619265 -0.614877 1.018575 -0.587669 -0.889299 0.779657 0.996955 0.340827 1.351416 0.275368 -0.833013 1.024048 0.724493 1.126038 1.378565 -0.458453 -0.255391 1.572063 0.170738 -0.615266 2.921610 1.349773 0.217318 -1.068568 -0.233227 -1.487168 0.458889 2.598312 -0.251282 0.220551 0.868673 -1.953286 -0.551548 -1.434879 -0.003365 -0.190126 0.150150 -2.082315 1.369989 -0.516036 0.201484 -1.251220 1.379047 1.252465 -0.675947 -0.423905 0.601117 0.183119 -2.410440 -0.299186 -0.419901 -1.320665 0.086889 1.220400 0.620719 -1.799260 0.411338 0.778349 0.737254 1.095286 -0.398180 -1.356661 -2.322320 0.490347 -1.719334 0.952873 0.085684 1.005631 1.037530 -0.235354 1.085980 -0.654579 -1.626772 -0.509582 0.166948 0.811953 -0.568021 0.322443 0.883932 -0.911898 -2.000812 1.038537 1.424756 0.062285 0.044397 -0.490912 -2.023622 -0.556820 -0.719189 0.405039 -0.318983 0.587831 1.230925 0.572411 -0.034893 -0.881951 0.413291 -2.252151 -0.072896 0.920008 0.937665 -0.906185 0.479510 -1.306521 0.075407 -0.111905 -0.260839 0.336909 0.331517 -0.667333 -0.071707 -0.635479 1.176734 0.844818 0.170962 1.342896 -1.232753 1.558704 0.976856 0.926068 0.552575 -0.712312 0.774571 -0.152003 -1.200599 -0.709350 1.203803 -1.289332 0.778917 -0.601378 -0.302650 -0.322979 0.330364 0.240152 -0.515149 -0.241545 0.301802 0.367530 -0.334752 1.483967 -2.403193 1.157234 1.343664 0.732658 -0.116342 1.099573 0.521664 0.335546 0.916515 -1.257491 2.031765 -1.405444 -0.333691 -0.576923 -0.298618 0.352198 0.774776 0.890057 0.059656 1.532427 -0.590496 0.144061 -0.067866 1.160521 0.308886 -3.313055 0.361964 -0.471429 1.105734 -0.591899 -1.533457 1.265237 1.715324 1.099220 -1.236798 -1.495047 -1.260091 -0.480213 -1.150217 0.067369 0.757060 1.548821 0.283457 -0.286821 -0.891987 1.563880 1.156420 -0.323545 -0.282005 1.074401 -0.732851 -0.060714 -0.848495 -0.147779 1.073286 -0.833727 -0.591090 -0.605313 0.920412 0.025873 0.627892 0.491503 -0.113186 0.651046 0.441407 0.365199 0.775649 0.089477 -0.503122 0.761526 1.254458 -0.777327 -0.664483 0.021452 -0.537123 0.136509 -0.567988 0.183602 -1.649906 0.622914 1.012850 0.295502 2.696724 -1.392768 0.950197 1.119299 -0.091282 0.272955 1.293864 0.089115 -0.612522 -0.345081 -0.376069 -0.971709 0.389463 0.270421 1.529601 -1.000905 -1.249238 0.098295 0.649790 -0.105097 1.574215 0.228910 -0.808616 1.857128 0.277063 -0.394081 1.270933 -1.260514 0.830222 1.193956 -1.815409 0.781261 0.609953 0.172168 -0.696485 0.196054 -1.068669 0.922163 -0.382117 -0.356074 -1.516789 1.307805 -1.953833 0.841014 0.583958 -1.781150 -0.204636 0.940212 0.998716 0.605318 0.698041 1.175477 0.442176 1.672893 -0.631018 0.676435 -1.353673 1.385039 -1.411799 0.132826 0.652590 -1.183656 0.397345 -0.472224 -0.109886 1.478549 0.188099 -0.992634 -0.298979 -0.707440 1.142335 0.214319 0.895168 -1.720476 -0.579168 -1.116575 -0.418460 1.349228 -0.192136 -2.306396 1.728665 -0.219791 -0.124601 0.229941 0.853906 0.740334 1.261004 -0.001792 -1.379524 0.131485 -0.008514 0.524725 -2.100487 0.813870 1.872365 -0.022831 -1.203263 0.075220 -0.442967 1.957691 0.361930 -0.894213 -1.328960 -0.320339 -0.280256 1.336932 0.501137 -0.119073 1.922096 -1.297569 -1.605798 0.142006 0.680156 -0.137689 -1.916108 -0.179146 -1.390107 0.875961 1.716610 0.188465 -0.316778 -0.773137 0.123273 0.453801 0.302187 -0.494649 -0.977411 -1.243591 0.792142 -0.042334 0.540082 0.394253 0.489734 1.103960 -0.914365 -1.361149 1.638515 1.343991 -0.679157 0.621400 2.444573 -0.271279 -0.806398 -1.455477 -2.547079 0.209998 0.072937 0.710423 -0.612680 -0.089041 0.015623 0.580024 -0.227846 -0.413051 1.494607 0.667361 0.720945 -0.064061 0.619659 -0.177221 0.422969 -0.970672 -0.866652 0.514585 1.055201 -0.264740 -0.828011 0.619685 0.512117 0.457618 -0.336936 -1.495102 0.606906 -0.098588 -1.252346 1.840593 0.370531 -0.680401 1.795099 -1.452952 0.615342 0.276689 -0.199285 0.828488 -2.259963 0.168690 -0.172200 1.349274 0.892163 -0.355338 -1.319920 1.280451 0.523219 -0.959050 0.932325 -1.637614 -0.548595 -0.583333 -0.388236 0.087542 -1.093403 -1.937809 -0.497793 0.918651 0.679345 -0.062543 -1.161797 -1.480060 -0.012256 0.453367 -0.425445 0.822658 1.424406 0.162711 0.794318 1.186021 -1.558824 0.413729 -0.411137 -0.336750 -0.413033 0.380123 -0.889056 -1.349561 2.005846 0.888311 0.252180 0.149201 0.240749 0.794596 0.569932 -1.427668 1.082460 -0.300124 -0.104864 0.371316 -1.460628 0.029180 0.519646 0.573161 -0.920079 -0.018677 -1.212725 0.820156 -0.004890 1.187273 0.318787 -0.783953 0.642360 -0.796778 0.596231 0.203844 0.906000 1.320968 -1.817537 0.451182 -1.682900 -0.674340 0.927799 -0.404029 -0.232054 -0.165005 0.781025 1.103919 -0.270833 0.320237 0.160819 -0.944426 0.344959 0.799180 -0.524694 0.767949 -0.511652 0.274930 1.348339 -0.030464 -0.088068 -0.126133 0.040678 -0.083676 -0.673452 -1.211151 0.772760 1.332423 -0.051870 -1.845466 -0.849653 -0.101831 -0.151139 -0.869883 1.642224 0.285374 0.511847 -0.788183 0.560341 2.135463 0.504213 1.035181 -0.447712 -1.313530 -0.591211 -1.811369 0.749570 0.436952 -1.167725 -0.295609 1.147688 1.067337 0.136110 1.313701 -0.799441 -0.532646 -1.711854 -1.497768 -0.224892 0.406260 -1.407205 0.719603 1.390461 3.114016 -1.696021 -1.346354 0.495570 1.031837 -1.101586 0.697197 0.654022 1.364303 1.899053 -1.484546 -0.086049 -1.396640 -0.469130 -1.338734 -0.460457 -0.983551 1.145688 -0.088241 -0.626649 0.094192 0.075741 1.246451 0.307165 -0.278670 0.916549 -0.320994 -0.251026 -0.386987 -0.921376 -0.243584 -0.189277 -0.709983 -0.022538 1.284107 -0.106843 0.546209 -0.766866 0.014188 -1.301132 -1.677809 1.433151 1.729584 1.003936 0.266724 0.449001 -1.408208 -1.209875 -0.701031 -1.451045 -1.819234 -0.214539 -1.257424 2.094634 -0.648824 1.409531 -0.785561 0.766020 -0.773176 -0.668671 -0.117445 -1.410800 0.138782 -1.217415 0.966181 0.054891 -0.374188 0.202910 0.787354 1.263720 -0.872547 -1.881778 -1.095726 1.501109 0.509964 -0.850198 -0.683572 -1.603399 -0.000097 -0.794883 0.371419 -0.493845 1.638838 -0.991256 -0.073493 1.023803 0.796196 1.742790 -1.669628 0.550094 -0.896338 0.048477 -0.916676 -1.996794 -1.100888 -0.295833 1.078186 -0.455630 -0.219130 -0.169621 0.578026 0.396374 0.782130 -0.056240 -0.025578 0.638436 0.497451 0.333197 1.399212 -1.856221 0.307349 0.158046 -1.640220 0.859168 2.507502 0.956187 -0.973619 -1.786000 0.855493 0.568756 -0.859442 -0.994836 -1.307754 0.386907 -0.261500 -0.860541 1.517360 0.155510 0.293018 0.772543 0.727908 0.508640 0.409740 -1.519061 -0.151427 0.477681 -1.433907 1.729950 2.043946 -0.522814 -1.597901 -0.600427 1.187660 0.203720 0.696223 -0.758585 -0.914308 0.623804 -0.728263 0.415869 -0.435315 0.409745 -0.270755 -0.047082 -0.086428 -0.101732 -1.294041 0.666110 0.535831 -1.317212 0.723734 -0.572023 0.217629 -1.144964 0.927122 1.198658 -0.078528 -0.033574 -2.452036 0.495084 0.211159 0.761122 0.998055 -0.164317 -0.524877 0.233209 0.776833 -0.234105 0.346854 0.276237 -1.458175 0.688723 -0.088420 -1.305188 0.008489 1.276595 -0.126294 -0.043753 2.435958 -0.993958 -0.120261 0.367130 0.297044 -0.490369 0.859515 0.667796 0.630967 -1.746534 0.339977 0.786941 -1.105519 -0.440618 2.034381 -1.796168 1.037340 0.228576 -0.352199 2.001182 0.580219 -0.175059 -0.172194 -1.122415 0.694557 1.129968 0.315672 2.000377 -1.705419 0.585829 1.583862 0.783995 -1.455904 1.286972 -2.485258 -0.715430 -0.073539 -1.294511 2.432820 -0.229002 0.665356 -0.710419 0.385963 0.047589 -1.799300 0.784814 -0.054884 2.050797 0.431199 1.220330 -0.847092 -0.528425 0.012870 0.458359 2.698609 -1.386543 2.736304 1.119519 0.068303 0.981136 -1.610461 0.365309 0.197704 0.956751 0.599008 -1.608303 0.596185 0.518845 -0.064979 -1.507382 0.651684 -1.230147 -0.836064 2.290981 -0.502738 -0.296890 -2.019612 1.542614 -0.097210 0.059992 1.625941 0.921642 -0.195779 -0.125790 -0.090648 -2.659315 1.424762 1.033367 0.965920 0.260719 -0.662661 -0.482013 0.234055 -1.152481 0.585949 -0.683716 1.485660 -0.520237 -0.185134 -0.872722 -0.017224 1.097312 1.463869 -1.783213 0.451190 0.536598 -1.282055 0.575329 -0.823856 2.431522 1.427060 -0.341283 -0.412575 -0.746611 -0.005056 -0.874973 1.053948 0.150222 2.291084 -0.410613 -0.139938 0.424307 -0.225904 0.258512 1.918007 -1.373379 -1.012323 -0.700537 0.117435 0.546457 0.446117 -0.857150 0.072802 0.918010 0.762712 0.536785 -1.420589 0.112392 -1.093868 -0.826399 0.335276 -0.887761 1.175125 1.664991 0.381594 0.895051 -0.370332 -0.299443 0.202302 1.365338 -0.851971 0.016413 -0.506124 0.956959 0.747126 -0.601210 1.267407 -0.706454 -1.612626 -0.262584 0.421877 0.878970 0.125138 0.243334 0.295338 1.070169 -0.395545 0.768133 -0.054974 0.665017 -0.072540 -0.584200 0.721273 -1.812380 1.004839 -0.541235 0.972338 0.083087 0.303174 0.245620 -0.333571 0.369389 1.397558 -0.614133 0.720122 0.644365 -1.156399 -0.384192 -0.341929 0.325551 1.440463 0.698752 -0.581889 0.288655 2.207172 1.752038 0.144075 -1.140417 -1.438999 -0.468107 -1.089027 -1.076325 0.889341 -0.264597 0.664406 1.866433 0.460126 -0.236161 -0.218491 -1.431234 -0.662106 -1.825340 -2.143246 -1.790883 -0.074484 -0.005577 -0.530263 -0.948395 -0.667633 2.008540 0.360913 0.243469 -0.513106 -0.855300 1.134825 -0.399451 -1.050001 -1.009729 -0.030628 0.591353 0.475556 -0.866256 1.145764 -0.179601 -0.096367 0.355357 0.280010 -0.422857 -0.956142 -0.777667 -1.323639 0.779406 -0.688591 0.080286 1.916951 0.533747 0.487898 1.569737 -1.128651 -0.420982 -1.690536 -0.832768 -0.869799 -0.018907 -0.043322 -1.149882 -0.765693 -0.021684 0.616348 -0.235012 -0.848652 -0.688116 -0.483175 0.228855 0.678723 -0.113814 -1.286330 -0.973893 0.436612 -0.951324 0.328072 0.160557 0.260879 -0.945196 0.511919 0.321666 0.830824 -0.621616 -0.542394 0.178746 -0.429296 -0.414649 -1.101745 -0.266511 -0.231111 -1.973490 -1.686814 -0.816535 0.594990 -0.816054 -0.050486 -0.032589 0.754488 1.233075 -0.315168 0.256831 -0.463020 -1.561742 -1.458599 1.143649 -0.995465 -0.196313 -0.770959 -0.484471 -2.865528 0.668808 -0.309913 -1.504890 1.175471 -0.196737 1.200942 0.284310 -0.334143 -1.111528 0.938846 0.630787 -0.862577 -0.124656 1.134762 -1.441385 -1.240530 0.658626 -1.360209 0.083738 -0.028716 1.261505 0.412825 0.467038 0.894751 -0.520086 0.176464 -0.054789 0.524384 -0.902443 -0.082966 -0.717226 -1.153533 -0.998207 0.941212 -0.491327 2.074292 -0.116604 0.669818 0.517870 -0.139147 -0.298593 -0.995399 1.602035 -1.847450 -1.375200 1.812220 0.398577 -0.284458 0.285353 -0.288971 2.238615 1.231736 -0.318851 -0.980213 -0.011180 -1.261064 -1.163977 0.704548 1.159055 -0.108729 1.253304 1.111463 0.402886 0.885306 1.205439 -0.320291 -0.246060 0.410477 2.154421 -0.066520 0.603713 -0.752475 0.174748 0.102195 0.633579 0.399841 0.407371 1.102267 -0.240757 1.104717 -0.391885 -0.279306 -0.308792 1.029465 0.221005 -0.356622 -2.069371 -0.990913 0.440439 -0.301211 0.895879 -1.059671 1.246116 1.107941 -1.429763 -0.718659 -1.862642 0.364504 0.769115 0.685920 0.548712 0.707069 3.216071 0.759013 -0.005944 -0.180880 -2.524721 -2.115388 -0.679338 -0.028000 2.400019 0.321428 -0.674827 0.873002 0.258960 -0.581534 1.080830 0.181159 -0.376330 -0.165029 0.569986 1.685607 -0.467093 2.065278 -0.804751 2.026942 0.333357 0.344222 0.150140 -1.028965 -2.663531 0.219673 -1.049728 0.960117 1.415233 1.391336 0.706457 0.781670 0.657209 -0.210433 0.353251 -0.471098 -0.336808 1.017009 0.938673 -1.635722 -1.283194 0.239009 -0.392436 -0.392323 -1.014416 -1.319532 0.326145 1.598264 0.018886 0.633063 -0.606400 0.276702 -1.060606 0.302386 -1.169949 -2.127810 -1.109155 -1.468895 -1.156413 0.835378 -0.486337 -0.926807 -0.048514 -0.561538 -0.519323 1.306787 -0.858450 -1.311845 -0.432057 0.932671 0.064004 -0.020084 1.152950 0.413441 -0.782427 0.481559 -0.945909 -0.821784 -0.174598 -0.176464 0.451673 -0.190000 0.522319 1.026752 0.289701 -1.075332 0.274376 -0.425551 -0.385205 1.414024 1.151575 1.638201 0.176887 0.244213 0.745740 -0.037775 -1.434570 -0.705973 0.060801 -0.517683 0.211054 0.179023 0.255697 1.515029 2.503130 1.414049 -0.058500 -0.626262 1.942483 -2.189632 -1.294547 -1.282410 0.975673 -0.404807 0.381994 -1.512930 0.800041 1.358844 1.064878 0.125314 0.764668 1.383775 1.170214 -0.319893 -0.373093 -0.292889 1.035012 -1.056921 0.961647 -2.281666 0.192894 -0.518067 0.900330 -1.239047 -0.292737 -0.172144 1.810273 0.275684 0.179518 0.786624 0.143304 -1.686832 1.572139 -0.020457 1.262071 1.625525 0.882899 0.194710 -0.375838 -2.797706 0.610587 -0.830620 -1.316789 0.719718 -1.006768 -1.845856 -0.895066 -0.707080 0.522991 -0.826253 0.603578 2.404118 0.989751 0.824699 -0.641770 0.128658 1.207088 -0.330148 -1.048361 -1.484560 0.814312 0.053857 -0.577950 -1.189008 -0.250192 0.520196 1.016437 0.752664 -1.831306 -0.139164 -0.103930 1.122762 -1.753581 -1.442190 -0.546914 -0.893021 0.437120 1.415965 -0.591907 0.843254 0.794726 -0.524757 0.636115 -0.201940 -0.827140 0.474332 0.437659 -1.487866 -1.841940 0.938968 0.750772 -1.227133 0.735121 0.669937 0.144395 -0.569764 1.876560 -1.599597 -0.629059 -0.673988 0.709737 -0.704875 -0.575212 -0.510526 -0.321943 -0.822631 -0.185915 1.628652 -0.484265 -0.327618 -1.552530 0.656017 0.415626 -0.356470 -0.451026 0.331215 -0.194081 0.415332 -0.391541 0.855746 0.078256 0.720063 0.517873 1.073610 0.865562 -1.165098 0.844917 -1.236453 -0.994495 -1.014326 1.664197 1.370174 -0.623456 0.776750 -1.752841 1.140418 -0.571308 0.676120 1.015655 -0.186773 -1.286801 0.792557 0.659607 1.037639 -0.483586 0.885755 -1.020088 -1.348181 1.814205 -1.077377 0.374109 0.231685 1.052334 0.251226 0.876140 1.885816 0.310127 -0.928455 -0.863271 0.552435 -0.219711 0.357932 0.245754 1.632483 -2.227344 0.089095 -0.689750 1.354560 0.947212 -0.415604 -0.252522 -1.268476 1.540132 -0.823120 1.153034 1.457398 -0.387549 -0.254266 1.671543 2.009614 -0.313567 -0.917601 0.498302 -2.548859 0.353823 -0.561925 0.252849 0.853653 0.946258 0.244565 -2.833275 -0.458195 0.076345 0.051313 0.489534 -1.352800 1.618717 -0.390713 0.353748 0.022647 0.083674 0.656322 -0.055896 -0.025729 0.569197 0.559385 2.910634 0.523720 -0.748709 1.225527 0.495608 -2.158710 -0.111065 0.512571 -1.951595 -0.957203 0.476850 -0.097474 -0.649790 1.324596 2.371762 -0.393261 -0.307671 -2.190958 -0.503926 2.553224 1.383039 -1.417525 0.255025 -0.721008 -0.541554 0.528494 -0.374991 0.933354 -0.924047 0.041357 -0.630384 -0.449652 -0.525917 1.393645 -0.691333 -1.115727 1.611709 0.175118 -0.490725 -1.174041 0.948489 -1.081951 -0.236893 -0.967393 -1.340671 0.797146 0.675735 -0.695284 0.006061 -0.480028 2.111727 0.420343 0.934417 0.041045 -0.412135 0.861276 -0.622962 -0.602116 -0.619847 -1.626423 0.499372 0.429812 -0.217213 0.393501 -0.771942 0.643978 -0.149863 0.483710 -1.619429 -0.639912 0.073322 -0.526572 1.990179 -1.490713 0.755206 0.597416 -0.593301 -1.343298 -1.157387 -0.967250 0.998564 -0.379896 0.899002 -0.419181 -0.167735 -1.469589 1.207175 0.858079 -2.445885 -0.209157 -0.097205 0.673382 -0.252796 1.638635 -1.779000 -0.100691 1.114158 -0.369134 0.774264 -0.641633 -0.442655 -0.413967 -0.894963 -0.296642 1.581101 0.744057 0.603962 -0.065668 0.633750 0.473767 -2.825540 -0.046329 -0.084080 0.665801 0.441234 0.468113 0.462123 -0.138853 1.093382 1.977486 -0.247160 -0.899351 1.764350 -0.314968 -0.324605 1.448920 0.642194 -1.917091 -1.571739 -0.061060 -1.291161 0.131834 0.646864 1.304513 -0.626782 0.217733 0.127791 1.973761 0.897356 -0.585986 0.129609 0.247273 -1.001454 0.261990 0.162339 0.795770 -0.522015 -0.968065 1.706233 1.493272 1.211066 -1.609960 -1.224432 -0.334816 -1.506270 1.680882 -0.564982 -0.281878 0.505517 0.043359 1.830441 -0.429376 -1.008691 -0.925977 0.033387 -0.057785 -0.109359 0.554153 -0.708339 0.815681 -0.574829 0.133067 0.019351 0.061851 0.011522 0.677302 -1.284784 0.805988 -0.561534 0.797380 0.582224 0.566566 -1.450942 0.747161 -1.874449 -1.007539 0.346228 -0.932684 -0.161986 0.581806 0.000363 1.841444 0.352527 -1.027325 -0.936697 0.562630 -0.275819 1.557078 0.032465 0.102916 0.192729 0.255043 0.083862 -0.034196 -0.042954 -1.318967 -0.383320 -0.941658 0.490290 -0.892110 -1.332444 -0.455812 -0.269242 -0.856550 0.467644 -0.199472 2.374800 -0.492307 -1.025858 -0.298061 -0.169901 -0.289668 -0.398492 -0.937785 1.143779 1.115791 0.905436 -0.590357 -0.433847 0.261665 0.161820 -0.632947 -1.887502 -0.227287 -0.106396 -0.070356 -1.415827 0.128729 0.819520 -0.538210 1.361829 1.117170 0.983475 -0.511362 0.232031 -0.524456 -1.758839 0.333278 0.865269 -0.503628 0.843753 0.225371 0.239584 0.151146 1.372483 1.017894 0.205840 0.193625 -1.084486 -0.878499 -0.170309 1.080012 0.836844 0.131421 -1.033295 1.166556 1.011106 -0.549078 -1.882621 1.036430 0.351986 -0.985820 -1.542073 -0.565282 -0.984801 -0.189471 0.409461 -0.919613 -0.655474 -0.439496 0.932069 1.334306 1.076272 1.500259 -0.562271 0.214496 0.107802 -1.270056 -1.243165 -0.391667 -2.162473 0.763575 0.740575 1.297051 0.450143 -0.766603 -0.640924 0.095159 0.610063 0.315521 0.908845 -0.402547 -1.478746 0.051298 0.005538 -0.756653 -0.087460 -1.242065 0.330625 0.356640 0.295718 2.684791 -0.206694 -0.808821 -1.325621 -0.404133 -0.500913 -1.163045 -0.392354 -0.834496 -0.502338 -0.408472 1.555429 1.273293 -0.205875 1.070945 0.970948 -0.453266 -0.552482 -0.531301 0.155352 0.756025 -2.516460 2.271858 0.815167 -0.519962 0.005531 -1.128144 0.311517 -1.064549 2.214023 -0.761372 -1.135540 0.321440 -0.236391 -0.291948 1.467079 1.281075 -0.850881 -0.040523 0.628694 0.465429 0.838182 -1.311669 -2.400758 1.188043 -0.840003 -0.301244 -0.409789 -1.464495 -0.610689 0.106941 -0.019475 1.674480 0.163861 0.706340 -0.717230 -0.014820 -0.217212 -0.984542 0.262160 0.799307 1.334263 1.039606 0.866418 0.666112 0.493380 2.174650 -0.851118 1.043039 -1.652846 -0.080614 -1.387146 0.100557 0.672651 1.900057 -1.436094 0.085993 1.525980 -1.812917 -1.705517 -0.835504 -1.767530 1.049532 1.017336 -0.957091 1.191374 2.577398 -0.303897 1.461991 -0.610935 0.163129 -0.485973 1.548422 -0.624195 0.190087 1.587783 -0.404705 -0.305445 -0.239694 1.204322 -0.881641 -1.969153 0.289521 1.121547 -0.871293 1.711347 0.359669 -0.164899 0.526275 -0.116975 -0.796871 -0.675191 0.158196 -2.379723 -1.284328 -0.978042 -1.955245 -1.017152 -1.399354 -0.427527 -0.922278 1.245848 -0.216706 0.488419 1.041523 -0.991709 2.240671 -0.056803 0.524658 0.924045 0.917574 -1.244572 -0.471294 0.892447 0.094245 -0.638337 0.042164 0.182886 -1.049275 0.326191 0.243711 -0.419779 0.253816 -1.642440 1.170014 1.024971 -0.423266 0.114020 0.236525 0.272499 -0.505073 0.148624 -0.564824 -1.055582 -0.898152 -0.740259 1.308616 -0.166579 -0.161971 0.530956 1.250960 -0.920430 2.912245 1.174766 -0.327078 -0.373599 -0.828722 0.534183 -1.571294 1.121639 -0.337757 -0.065780 0.582831 -0.664045 0.668657 -0.102655 -1.368048 0.025341 0.812157 0.040389 -0.048855 0.035978 -1.180239 0.308015 0.234892 0.122424 1.985795 0.510329 -0.199503 -0.807098 0.678069 0.469924 0.920514 -0.599370 -0.419319 -0.830530 -0.643928 1.292765 -0.250911 -0.880749 1.259046 0.008170 -0.699974 -0.041621 0.667470 -1.406373 0.716235 1.943525 -0.239954 -0.273736 -1.464697 -0.507865 -0.488309 0.164467 -0.639659 -0.425608 -1.480075 0.769332 -1.282038 1.407099 0.487027 0.492383 -1.565349 0.066511 0.065076 2.531455 -1.238591 -0.485973 -1.550518 0.183415 -0.640626 0.586402 -0.861631 0.026283 -0.464796 -1.661251 -0.182846 0.465604 0.362469 -0.450673 -0.278637 1.149000 1.652017 -0.685468 -1.401189 0.178981 -2.343192 0.446393 0.925261 0.832885 0.665263 -0.554240 0.885985 0.061688 -0.705524 -0.861684 -0.021205 -0.617468 -0.539056 -1.085054 0.418683 -0.241240 1.714084 -0.548288 -0.439864 0.291072 -1.626554 1.056150 0.152513 -0.504607 0.123339 -1.625771 -0.101879 1.149688 0.322740 -0.581189 0.252904 1.001610 1.460272 -0.172430 -0.284994 -1.500190 1.383236 -0.853711 -0.217728 1.055214 -1.495610 1.308471 1.775814 0.870271 -0.772662 -0.534479 1.520173 0.591705 -0.303889 -1.050381 1.247792 -0.772120 -1.382394 0.657939 0.672730 -0.718597 -0.014719 2.048337 -0.793164 -0.080811 -0.112056 1.258381 0.356241 -0.389762 0.930632 -0.380466 0.379943 0.853972 -0.550295 0.120670 -0.461355 0.315325 0.210045 0.873170 0.709813 -0.636673 -1.770714 1.117620 -0.303658 -0.393455 1.542405 0.211244 0.242691 0.889510 0.169125 0.662112 0.561323 -0.196069 0.449358 0.490941 -0.878379 -1.431781 0.808774 -0.557980 0.790917 -0.622426 1.557846 -0.542421 -1.046189 0.337786 0.994708 0.163286 -1.272378 -0.955434 0.622442 0.615402 1.677321 0.700211 0.715918 -0.575827 0.875221 -0.659534 -0.041227 1.850220 -2.906878 -0.494457 -0.269820 -0.060798 0.366742 0.377747 2.982540 -0.611503 -0.429107 -0.460767 -0.919565 0.972158 0.064118 0.706290 0.009119 0.289428 -1.064718 0.373236 1.567613 1.892312 -1.051121 -0.195618 -0.603786 -1.105101 0.828866 -0.049810 -0.705879 -0.506137 0.496576 -0.870016 -0.805128 -0.715212 0.722009 0.653828 -0.110512 -0.741123 -0.514553 -2.316054 -0.773381 -1.369580 2.727630 0.375489 1.033343 0.304341 -0.184004 1.058541 0.681820 -0.906586 -0.294559 -0.689098 -1.206571 0.237454 0.221113 -0.520580 0.222075 -0.319508 -0.263872 -0.905084 -1.453273 0.656862 -0.050753 1.219733 -0.298838 -0.797355 1.313721 -0.142228 -0.318289 0.212475 -0.998056 0.402421 1.043517 -1.094150 -0.423832 -0.211361 -1.445588 1.238654 -0.210433 -0.922288 -1.441726 0.941362 -1.175538 0.789976 -1.949827 0.287039 -0.944379 -0.805445 0.519538 1.085982 -0.360793 0.866491 -0.399604 0.226155 0.129787 0.015892 -0.776436 -1.326214 -0.411533 -1.016887 -0.890045 -0.826486 -1.292184 -0.421683 -1.619543 1.864106 0.268233 0.167044 0.733577 0.083609 0.654849 -0.277923 -0.317430 -0.435559 0.992461 0.791367 -2.034523 -0.441358 1.698514 2.105530 0.203630 0.082670 -1.720595 -0.721552 -0.673475 -2.139533 -0.047906 -0.548759 -0.972613 0.488269 0.598016 -0.215864 1.010196 -1.056699 -0.379766 -0.979144 -0.194102 0.341897 -1.036205 -1.552526 -0.631424 -0.378556 -0.467811 -0.498641 -1.084975 -0.229266 1.185579 0.303600 1.395584 0.529818 1.108051 -1.082876 -0.362559 0.883587 -0.650606 0.584710 -0.178343 -1.981309 -0.433545 -0.908023 -0.250128 -0.374253 1.056701 0.269596 0.276550 0.925386 2.028935 2.293260 -0.186961 0.399549 0.385302 -1.612957 0.339739 0.236079 0.821056 1.315603 1.291044 1.136293 -0.316737 2.342265 0.574855 1.651912 0.666586 -0.022289 1.972164 0.432945 -0.337969 0.221302 0.396651 2.245226 0.629308 -0.100403 -0.038733 -0.434113 0.906564 -1.266061 0.826389 -1.140364 1.794910 1.637130 -1.142320 -0.991366 -0.707583 -0.421773 0.057391 -2.486018 -0.840009 2.150906 1.439267 0.406315 2.304528 -0.338564 2.221986 -1.962123 1.343791 -0.193712 -0.754696 -1.321634 -0.399431 -0.076853 -1.481320 0.805014 -1.229867 1.012820 0.936646 0.854997 -1.900306 -0.949192 0.009940 0.539198 -0.264470 -1.623188 1.391089 -1.806681 1.007657 1.423265 -0.058968 0.492502 1.171308 -0.146823 -3.553296 -1.043579 -2.161088 1.287257 -1.511176 -1.943952 -0.784457 -0.341404 -0.261505 0.747109 -0.578923 -0.595627 0.312502 -0.348241 0.180270 0.065172 0.674437 1.155140 0.373177 -1.031812 0.998429 -0.372697 -2.446373 0.351172 1.701632 0.759367 -0.780438 0.755511 0.129509 0.714975 -1.477056 0.447935 -1.483614 1.325089 -0.768370 -1.412048 0.158430 0.881513 -0.541040 0.577607 0.030811 -0.688759 0.744474 -0.014372 -0.157679 -0.201506 -1.369186 1.353629 -0.721622 -1.368868 1.999764 1.267417 1.590460 0.597262 0.000857 -0.073713 -0.045472 -1.474871 0.426586 -0.151466 -0.792051 0.021245 -0.470090 0.917437 -0.560008 0.159215 1.380111 0.627189 -0.833094 -0.777966 0.123223 0.682496 0.497605 -1.623363 -0.703805 0.268306 0.924150 1.258841 -0.297669 -2.150326 0.233040 -0.285995 0.156732 -0.691472 0.119377 0.903533 0.874557 0.081033 -0.072018 -1.283304 0.787832 -0.622350 0.612638 -0.128466 -0.687857 0.140222 0.809449 -1.265210 0.664204 0.075284 0.008014 -1.323434 -0.448062 0.323097 1.530552 -1.326693 -0.632356 -0.304205 0.463139 0.289803 0.736465 -0.652700 0.757789 -1.125256 1.511195 -0.681328 -0.727590 -1.257078 0.300060 0.337341 0.754005 0.065689 -0.655269 -1.686424 1.146720 -0.969050 0.847156 0.107243 0.805267 0.769693 0.013884 1.956891 -1.724010 -0.221756 -1.539510 0.693346 0.514321 -0.934271 -2.057298 -0.364782 0.637692 1.607490 -0.024148 1.198818 -0.064803 -0.646267 0.680141 1.114971 -1.147009 1.459360 -0.447599 -0.455510 0.293308 0.966053 -1.900566 -0.446813 -0.135867 1.755408 0.215042 1.384113 -0.013081 0.684234 0.675721 -1.541220 0.513765 -0.848616 1.258581 -1.570929 0.664968 -0.599554 -0.493078 0.911581 0.718612 -0.002564 -1.413737 0.315695 0.912820 -1.201518 0.104534 1.479914 0.736806 -2.707858 1.600682 0.912626 -0.687638 1.224987 -1.442479 0.731246 0.047376 1.408761 -0.992711 -1.453403 -0.420531 -0.361237 -0.281981 0.215287 0.326920 1.612465 0.876340 0.061669 -0.002632 0.680775 -2.073125 -1.316333 -1.036608 0.434552 -0.917810 0.508053 -1.337194 0.195808 1.628990 0.633904 -0.270821 1.019605 -1.500452 -0.826535 -0.643661 -0.635394 -0.672345 0.771926 2.095831 0.459907 0.450839 -1.541013 -1.306058 -1.196432 0.139300 -1.319200 0.094531 1.648297 1.530476 -0.626321 0.022997 -0.518941 0.041920 -0.079211 1.065400 0.272133 -0.372000 0.474346 1.064621 -1.714117 -0.393566 1.057544 0.887822 1.935303 -0.876572 1.222531 -0.782428 -0.657417 0.502250 -0.910053 0.476064 0.412922 -0.692994 0.573586 0.043565 -1.299345 1.312023 1.303168 0.970438 1.413976 0.763330 -0.030445 -0.694069 0.068224 -2.060377 0.100941 0.842655 0.753050 0.034109 0.169292 -0.953533 -0.258346 -1.464338 -0.168068 1.171056 -0.219126 2.413183 0.295180 0.335928 0.210404 -0.391893 -0.517594 -0.597505 -1.026591 0.948474 0.398877 0.319290 -0.985197 0.572385 -0.079232 -1.502257 -1.322983 2.091796 0.670395 0.374497 -0.848530 0.697096 0.710813 1.087757 0.164529 1.272241 0.037080 0.625878 -0.687815 -1.354349 1.444093 -1.346680 -0.572117 0.173165 -0.220569 -0.901383 2.468834 -0.920061 1.503996 -0.399739 0.932207 1.411692 1.794403 -0.372332 0.080587 -0.844802 1.017761 1.581081 -0.116186 0.551033 -0.015473 -1.731225 1.614160 -1.087945 -0.502380 0.910790 -0.893314 1.146624 -0.882210 -0.611726 -1.321107 1.641818 -0.530017 0.634917 0.807750 0.707391 1.371368 -0.841853 -0.705337 -0.064619 -0.556434 0.645131 -0.055516 0.703190 -0.621914 0.257020 0.256722 0.137492 0.111571 -0.608970 -1.699973 -0.156738 0.659024 -0.172577 -0.844132 1.348869 0.046964 -1.330202 -0.493670 1.554845 -0.631752 0.592243 0.011437 0.682239 0.647956 -0.116645 0.480559 -1.602792 1.311527 -0.858657 -0.126773 0.531891 -0.738429 -2.546758 -0.942486 0.742218 1.071502 0.255366 -0.401666 -1.456692 2.114711 1.180314 0.008104 -1.416346 -1.053856 -0.093359 0.456768 1.610350 -1.393548 -1.061557 -1.357744 1.520136 0.499890 -1.764240 0.464617 -0.690814 -0.481654 0.044714 -0.575304 0.672146 -0.026037 0.064942 -0.716874 0.763780 1.284354 0.289699 -0.455099 2.180348 1.349539 -2.296756 0.507659 -1.384316 1.301074 -0.974676 0.454445 0.410360 -1.492443 -0.521821 0.028355 -0.510212 0.549296 -0.039057 1.239840 0.429281 2.345523 -0.674472 -0.116319 -0.068806 -0.190945 