2.968448 2.968448 2.968448 2.968448 2.968448 2.968448 2.968448 2.968448 2.968448 2.911919 2.909271 2.906620 2.904088 2.902404 2.899747 2.897185 2.894522 2.891856 2.889187 2.886514 2.883862 2.881218 2.883993 2.882114 2.879447 2.876784 2.877797 2.875133 2.872487 2.869816 2.869513 2.878831 2.876510 2.877156 2.874448 2.875679 2.875163 2.872455 2.874060 2.871732 2.882887 2.880239 2.877553 2.879380 2.876919 2.874235 2.880637 2.878490 2.876238 2.874699 2.872017 2.873271 2.880862 2.878467 2.875860 2.873751 2.880839 2.878353 2.880388 2.879235 2.878576 2.881893 2.882752 2.883643 2.881959 2.879337 2.876740 2.874118 2.875169 2.873596 2.871141 2.869119 2.868122 2.865434 2.863074 2.864374 2.866338 2.863673 2.860968 2.859239 2.856558 2.867222 2.867398 2.864748 2.872332 2.876903 2.876754 2.877767 2.875088 2.873525 2.870856 2.868346 2.866066 2.866474 2.864680 2.865396 2.862737 2.860043 2.859490 2.858152 2.856986 2.854330 2.851630 2.848905 2.853484 2.855305 2.855596 2.856163 2.854889 2.859003 2.856620 2.855152 2.853658 2.851577 2.859960 2.857332 2.855176 2.852756 2.851463 2.853090 2.855418 2.852807 2.852741 2.850868 2.849970 2.847770 2.848703 2.848609 2.846605 2.858287 2.860395 2.860005 2.860109 2.859846 2.865479 2.866733 2.864629 2.864309 2.862384 2.865297 2.864252 2.862345 2.862237 2.860882 2.860467 2.862660 2.863675 2.862491 2.860743 2.859175 2.860141 2.857801 2.858446 2.857357 2.855382 2.853214 2.851520 2.849561 2.848922 2.849104 2.846714 2.845906 2.843470 2.843513 2.841983 2.839468 2.838038 2.835906 2.833662 2.832213 2.830364 2.829215 2.826577 2.824785 2.825994 2.826665 2.824906 2.822296 2.819894 2.820598 2.820134 2.818182 2.822878 2.820734 2.818929 2.817157 2.814471 2.813200 2.811148 2.808773 2.816270 2.816496 2.817914 2.818121 2.817471 2.817068 2.815117 2.815071 2.814766 2.814021 2.811632 2.816991 2.814802 2.818756 2.817159 2.820511 2.823677 2.821569 2.819521 2.816828 2.814571 2.811976 2.815847 2.816865 2.816644 2.819412 2.822104 2.822342 2.821002 2.819321 2.818700 2.817740 2.819612 2.820412 2.820022 2.818305 2.817432 2.817424 2.815692 2.814302 2.814390 2.814802 2.815302 2.813607 2.811573 2.809648 2.808585 2.806720 2.804433 2.806084 2.815341 2.814400 2.813022 2.813970 2.812224 2.817902 2.817192 2.817324 2.815704 2.814269 2.814361 2.814454 2.824303 2.822272 2.820489 2.819753 2.822153 2.823797 2.823320 2.831512 2.832919 2.831215 2.830831 2.829243 2.830379 2.830620 2.829710 2.830797 2.830170 2.831825 2.831424 2.829469 2.827535 2.827427 2.826087 2.824862 2.828083 2.827198 2.826948 2.828750 2.828411 2.827434 2.831157 2.830394 2.832948 2.832776 2.831145 2.832247 2.830592 2.832531 2.830901 2.829384 2.828026 2.825948 2.823580 2.822489 2.823353 2.822242 2.823660 2.822670 2.823306 2.825536 2.823887 2.822112 2.821107 2.823668 2.822481 2.822962 2.823029 2.821449 2.819040 2.823749 2.821419 2.822302 2.820728 2.823282 2.826258 2.830071 2.828577 2.826997 2.825121 2.822818 2.821970 2.827012 2.825765 2.825830 2.824988 2.824447 2.824936 2.822649 2.820277 2.820020 2.822853 2.823532 2.821123 2.818792 2.816991 2.818593 2.819885 2.820259 2.818088 2.817169 2.818692 2.818448 2.817787 2.817425 2.814983 2.818320 2.815962 2.814651 2.815476 2.812933 2.816134 2.817467 2.819553 2.820007 2.820035 2.817933 2.816316 2.819359 2.817468 2.818358 2.816434 2.819033 2.821345 2.819340 2.820181 2.818764 2.818840 2.822201 2.828028 2.828955 2.827336 2.827096 2.824754 2.822882 2.821995 2.820823 2.824532 2.826300 2.825560 2.826843 2.824570 2.825505 2.829249 2.828109 2.831453 2.831388 2.832647 2.837856 2.837958 2.839559 2.837981 2.841261 2.840225 2.841171 2.838792 2.840890 2.846851 2.846394 2.844097 2.848980 2.848084 2.853131 2.851566 2.853521 2.853496 2.852262 2.852133 2.850122 2.850288 2.849854 2.849450 2.850082 2.851399 2.852089 2.850520 2.849922 2.849740 2.849065 2.847423 2.845027 2.844733 2.843731 2.847844 2.846264 2.844432 2.845909 2.845575 2.843103 2.842998 2.845650 2.845309 2.844229 2.844625 2.845385 2.847010 2.845060 2.845756 2.846423 2.847319 2.845962 2.844979 2.843705 2.842535 2.840520 2.840792 2.839374 2.844569 2.842943 2.843239 2.843274 2.841810 2.839564 2.838915 2.838019 2.842111 2.840530 2.839040 2.837893 2.840462 2.838469 2.836191 2.840118 2.837853 2.839543 2.840788 2.840532 2.840370 2.840360 2.840080 2.838686 2.840724 2.838646 2.838472 2.836980 2.840978 2.840036 2.844641 2.843366 2.840767 2.841056 2.840072 2.842935 2.841927 2.840469 2.838710 2.837376 2.835910 2.834966 2.838574 2.837986 2.836226 2.835530 2.834035 2.832608 2.831062 2.830572 2.828733 2.829022 2.830110 2.829623 2.828159 2.830093 2.834020 2.835215 2.835677 2.835398 2.833684 2.831392 2.833078 2.835593 2.835629 2.835761 2.834948 2.833204 2.833554 2.832205 2.837761 2.838038 2.836416 2.834903 2.839644 2.839331 2.837991 2.839813 2.838357 2.839110 2.839921 2.838940 2.839758 2.840408 2.843631 2.843655 2.845313 2.845656 2.848552 2.850331 2.853534 2.854154 2.852394 2.851015 2.853504 2.853356 2.852221 2.850720 2.848537 2.846666 2.846695 2.846133 2.849750 2.849283 2.847695 2.846363 2.845507 2.843409 2.841479 2.841024 2.839540 2.840467 2.841900 2.842904 2.841885 2.841363 2.842321 2.845873 2.846545 2.847868 2.845727 2.844314 2.845038 2.846146 2.844478 2.842908 2.844292 2.844772 2.845445 2.843802 2.842697 2.840579 2.839854 2.838490 2.836594 2.835250 2.833435 2.835208 2.833718 2.834166 2.834489 2.833744 2.832988 2.830904 2.830096 2.830395 2.831069 2.831237 2.829177 2.827844 2.825588 2.823866 2.821899 2.822707 2.822742 2.820879 2.820301 2.820055 2.818406 2.818978 2.820737 2.826762 2.826016 2.825511 2.828968 2.829270 2.828440 2.827780 2.827084 2.825441 2.823469 2.821644 2.819919 2.817856 2.819507 2.818262 2.821007 2.820170 2.821768 2.821602 2.828017 2.827144 2.829746 2.828493 2.827711 2.828421 2.826781 2.825760 2.826967 2.825626 2.829305 2.827699 2.827133 2.827234 2.828706 2.828667 2.828133 2.827951 2.829389 2.828214 2.832700 2.831379 2.829966 2.830884 2.829944 2.827841 2.825885 2.837396 2.835845 2.835428 2.835492 2.834332 2.832612 2.830374 2.833636 2.834027 2.836422 2.834000 2.834519 2.832499 2.832373 2.831029 2.833615 2.833611 2.832779 2.837258 2.836399 2.836706 2.836388 2.835515 2.834036 2.832152 2.832196 2.832112 2.835022 2.836282 2.833985 2.832623 2.832845 2.831527 2.831714 2.830250 2.836311 2.840726 2.839442 2.837095 2.836054 2.834670 2.832482 2.832166 2.833721 2.834386 2.832250 2.832439 2.831544 2.835272 2.835764 2.835838 2.835305 2.836067 2.835977 2.834575 2.833942 2.836065 2.833996 2.837042 2.838402 2.836964 2.834864 2.833090 2.831423 2.830611 2.829750 2.830093 2.828590 2.830249 2.829198 2.829403 2.827819 2.828612 2.827125 2.831911 2.831680 2.831355 2.833193 2.833657 2.832969 2.834316 2.835497 2.833870 2.832209 2.832161 2.830470 2.830415 2.831073 2.831734 2.830593 2.829163 2.828714 2.826795 2.831453 2.832130 2.836808 2.835513 2.833449 2.835254 2.835542 2.834979 2.834592 2.835872 2.834198 2.833473 2.833126 2.831732 2.832580 2.832727 2.838324 2.838550 2.837518 2.836385 2.836314 2.839075 2.836746 2.837671 2.835899 2.834860 2.838961 2.840356 2.839987 2.840702 2.842438 2.843779 2.845468 2.844217 2.843599 2.843788 2.841907 2.840683 2.840271 2.839104 2.839104 2.840363 2.845252 2.844570 2.843727 2.843303 2.843343 2.844526 2.844013 2.844318 2.846335 2.844664 2.843004 2.840772 2.840761 2.840428 2.840790 2.841939 2.841203 2.841610 2.839758 2.838299 2.837725 2.842111 2.840145 2.840170 2.844476 2.844637 2.845736 2.844292 2.843925 2.842802 2.842361 2.842107 2.843305 2.842510 2.840924 2.838559 2.836856 2.835832 2.836964 2.838449 2.839474 2.838466 2.841072 2.841155 2.841576 2.842131 2.841036 2.839665 2.840082 2.840777 2.838571 2.837519 2.837756 2.836866 2.836439 2.835742 2.833092 2.832501 2.836278 2.834681 2.832596 2.831437 2.830289 2.829285 2.835453 2.834941 2.836511 2.835435 2.834003 2.834020 2.832051 2.830742 2.828739 2.828863 2.832063 2.830876 2.829559 2.828709 2.826412 2.828109 2.826954 2.826544 2.826305 2.824962 2.825431 2.824904 2.823130 2.822651 2.821348 2.821853 2.823031 2.822491 2.823230 2.822467 2.827175 2.827372 2.828883 2.828036 2.830456 2.833090 2.831704 2.834726 2.832728 2.833725 2.832553 2.831437 2.830399 2.828540 2.827236 2.825105 2.823444 2.823165 2.826690 2.826117 2.824248 2.823666 2.823863 2.822493 2.826322 2.826818 2.829365 2.828565 2.831100 2.829821 2.829958 2.835845 2.834992 2.834314 2.833458 2.831202 2.830956 2.829673 2.829415 2.830294 2.828401 2.828180 2.825844 2.827561 2.826058 2.829934 2.831266 2.828659 2.829825 2.831096 2.833757 2.833439 2.832606 2.830187 2.831219 2.832889 2.830597 2.829544 2.828898 2.826808 2.827167 2.828284 2.827414 2.828590 2.827165 2.825080 2.823946 2.822704 2.822557 2.821067 2.819807 2.817275 2.816084 2.817024 2.818524 2.816504 2.817272 2.816399 2.817097 2.817265 2.815676 2.819447 2.817156 2.817662 2.818072 2.816303 2.816880 2.815918 2.816596 2.816304 2.814612 2.813650 2.813900 2.815407 2.813954 2.812733 2.810583 2.809388 2.808919 2.811542 2.810197 2.810491 2.813603 2.816041 2.822620 2.821322 2.819627 2.817654 2.821581 2.821747 2.820334 2.822381 2.820824 2.821467 2.820777 2.819446 2.823865 2.825115 2.824659 2.822799 2.822850 2.823770 2.824856 2.823669 2.822607 2.821453 2.819439 2.818995 2.819188 2.817279 2.815749 2.816763 2.820496 2.819310 2.817764 2.816817 2.817399 2.816571 2.815402 2.813510 2.816811 2.816124 2.815898 2.819592 2.818558 2.819231 2.821528 2.822180 2.821166 2.823189 2.825489 2.823942 2.822664 2.823423 2.822452 2.823760 2.829232 2.832080 2.831294 2.833401 2.831124 2.830235 2.830185 2.832139 2.831291 2.829539 2.828472 2.826831 2.834413 2.834427 2.831936 2.832853 2.833260 2.833905 2.835799 2.838628 2.837516 2.836593 2.835467 2.835032 2.833226 2.835158 2.838790 2.842936 2.843406 2.841943 2.840380 2.839006 2.836584 2.835771 2.835652 2.838338 2.836308 2.837955 2.836168 2.835820 2.835800 2.836035 2.834511 2.833597 2.836159 2.836339 2.835298 2.837101 2.835449 2.833680 2.831567 2.830185 2.831665 2.830867 2.836422 2.837019 2.835479 2.837525 2.837516 2.839943 2.842179 2.840368 2.839681 2.839378 2.839252 2.837716 2.842242 2.842371 2.843603 2.841676 2.840450 2.843283 2.844484 2.846400 2.845319 2.843482 2.842437 2.840657 2.839675 2.837561 2.836564 2.837742 2.836165 2.833603 2.832272 2.831932 2.831035 2.830727 2.829717 2.828033 2.826099 2.825366 2.826070 2.826479 2.831516 2.831129 2.829296 2.829575 2.830786 2.830783 2.831487 2.832084 2.834163 2.835512 2.833717 2.832429 2.831939 2.833249 2.834182 2.832789 2.831804 2.833043 2.832840 2.833949 2.835643 2.838078 2.837050 2.835356 2.834068 2.832997 2.836397 2.835819 2.837775 2.837459 2.837256 2.836243 2.836859 2.835227 2.836389 2.834943 2.834877 2.832868 2.831675 2.829897 2.829068 2.829173 2.829575 2.829047 2.831362 2.830989 2.833100 2.832483 2.830133 2.827661 2.827676 2.829280 2.832122 2.832280 2.832207 2.837783 2.837918 2.836909 2.839003 2.837258 2.836688 2.840887 2.839358 2.837788 2.837821 2.838353 2.838935 2.836983 2.836264 2.836993 2.835371 2.837737 2.838711 2.837718 2.837620 2.836977 2.834562 2.835155 2.836766 2.835513 2.834278 2.834079 2.833359 2.831705 2.833686 2.835810 2.839204 2.840988 2.840599 2.840068 2.840558 2.841051 2.840837 2.839619 2.841380 2.843745 2.841886 2.842363 2.844039 2.843538 2.846074 2.847674 2.845542 2.844214 2.843218 2.842007 2.842860 2.841175 2.840693 2.840091 2.838076 2.837790 2.839018 2.838834 2.839976 2.838635 2.837613 2.837483 2.838428 2.838001 2.837074 2.836871 2.835598 2.833319 2.832690 2.834039 2.833622 2.835627 2.833891 2.835850 2.837444 2.835387 2.835193 2.834220 2.833046 2.831869 2.830107 2.827969 2.828294 2.827072 2.828819 2.828512 2.827126 2.826645 2.826927 2.825063 2.824986 2.824830 2.823804 2.824122 2.824481 2.825903 2.827165 2.825333 2.827245 2.827177 2.827498 2.826689 2.829436 2.827425 2.831929 2.831773 2.830771 2.829859 2.830983 2.829796 2.831041 2.831178 2.834227 2.833436 2.832594 2.833834 2.832243 2.839376 2.838516 2.837523 2.836686 2.836082 2.835485 2.837498 2.837050 2.839543 2.837939 2.840905 2.839593 2.839084 2.838307 2.837901 2.840232 2.840342 2.840236 2.838449 2.844968 2.845952 2.843604 2.844496 2.845288 2.844164 2.842438 2.841501 2.840963 2.841165 2.839498 2.839570 2.839124 2.837924 2.837782 2.838316 2.842248 2.847516 2.846512 2.850894 2.848883 2.849566 2.851732 2.853218 2.852712 2.851334 2.850441 2.851286 2.850285 2.852279 2.850721 2.852154 2.851586 2.851018 2.849982 2.852430 2.856301 2.855388 2.854362 2.855366 2.856302 2.855713 2.855810 2.854688 2.852875 2.852169 2.851095 2.852378 2.850902 2.849890 2.850994 2.849374 2.853654 2.852728 2.853353 2.852468 2.851239 2.855036 2.854518 2.853930 2.852720 2.853054 2.854181 2.854137 2.852532 2.851926 2.850680 2.849665 2.848527 2.845917 2.843966 2.843211 2.845306 2.844971 2.842505 2.846647 2.845259 2.847118 2.846356 2.847703 2.848218 2.846650 2.845488 2.843826 2.842835 2.843225 2.842265 2.841664 2.841213 2.842924 2.841526 2.842803 2.842919 2.842313 2.842106 2.839964 2.851566 2.851896 2.850893 2.849736 2.847846 2.850302 2.849194 2.847470 2.846727 2.844815 2.846170 2.844801 2.842657 2.840763 2.839961 2.842246 2.845776 2.849442 2.847959 2.847528 2.846319 2.846150 2.845746 2.845735 2.846949 2.846050 2.846265 2.845208 2.843664 2.843695 2.842955 2.842026 2.841144 2.840812 2.840016 2.838993 2.839359 2.837123 2.836728 2.835055 2.833828 2.832298 2.831158 2.829613 2.830676 2.831315 2.831521 2.831304 2.834188 2.838772 2.837129 2.836120 2.833840 2.831612 2.829743 2.827846 2.830436 2.830261 2.828562 2.828556 2.835071 2.833694 2.832602 2.831056 2.830732 2.831889 2.830572 2.833740 2.832371 2.832978 2.831904 2.832432 2.831538 2.829538 2.828323 2.828414 2.827930 2.832879 2.835647 2.835738 2.835384 2.834626 2.836274 2.834783 2.833199 2.835747 2.834388 2.835243 2.834477 2.835932 2.834410 2.835175 2.833947 2.833612 2.832032 2.830482 2.828665 2.828593 2.826513 2.824737 2.823861 2.822776 2.827485 2.827820 2.825714 2.824452 2.823997 2.828545 2.827867 2.832799 2.832949 2.832589 2.836981 2.837633 2.836414 2.835964 2.834286 2.832527 2.831827 2.830702 2.829498 2.828343 2.827625 2.825751 2.825713 2.825265 2.826616 2.827392 2.827463 2.827227 2.829479 2.835228 2.833625 2.832078 2.830489 2.830672 2.828904 2.828945 2.830573 2.829871 2.829642 2.830239 2.829114 2.828187 2.825980 2.824194 2.824625 2.824158 2.823254 2.825304 2.823908 2.823200 2.823270 2.821684 2.822498 2.821552 2.820874 2.818954 2.816994 2.823006 2.821171 2.819826 2.818059 2.817845 2.817900 2.817923 2.818005 2.816684 2.816916 2.817425 2.817978 2.816283 2.817193 2.817099 2.815493 2.817457 2.818831 2.818930 2.818628 2.818975 2.818935 2.816905 2.816813 2.818923 2.819072 2.817156 2.818394 2.816209 2.818855 2.817571 2.818990 2.817331 2.816859 2.821692 2.821028 2.822865 2.823717 2.822886 2.824427 2.824224 2.826759 2.827808 2.827750 2.827563 2.826335 2.825359 2.822981 2.822695 2.820877 2.826533 2.824397 2.826133 2.825410 2.824880 2.824672 2.827212 2.826856 2.827639 2.828141 2.827079 2.828020 2.829248 2.829263 2.828445 2.827648 2.829328 2.828479 2.830695 2.829589 2.828049 2.826521 2.828288 2.829021 2.829305 2.827970 2.827627 2.827809 2.826341 2.825896 2.825375 2.823978 2.823022 2.822566 2.821666 2.823820 2.822837 2.824126 2.822478 2.823871 2.822420 2.821435 2.821069 2.822292 2.820500 2.818726 2.817212 2.817078 2.814684 2.814894 2.813895 2.812519 2.810780 2.812465 2.812577 2.811378 2.815554 2.814379 2.814450 2.812530 2.812595 2.813315 2.814613 2.817771 2.818319 2.818070 2.817399 2.816502 2.815221 2.813763 2.812178 2.811545 2.810258 2.817581 2.815618 2.814621 2.814905 2.814605 2.815712 2.815512 2.818790 2.819084 2.818812 2.818154 2.816896 2.817394 2.817189 2.816594 2.817208 2.818440 2.817440 2.816701 2.815446 2.819277 2.818205 2.821294 2.822308 2.822650 2.821573 2.821244 2.821144 2.820312 2.819135 2.818054 2.822703 2.821586 2.822335 2.821470 2.819859 2.820328 2.818491 2.817391 2.818580 2.817743 2.817245 2.817164 2.817189 2.818207 2.816944 2.815026 2.815729 2.814588 2.813240 2.812458 2.810824 2.810407 2.814558 2.815277 2.814543 2.812563 2.811078 2.810062 2.810634 2.811253 2.809766 2.809628 2.813067 2.811581 2.815417 2.816084 2.818054 2.817063 2.816035 2.816620 2.818579 2.818487 2.816431 2.817091 2.815294 2.816113 2.814666 2.813066 2.811799 2.809539 2.812085 2.810223 2.807931 2.808633 2.808668 2.808362 2.806700 2.805792 2.803584 2.802215 2.803494 2.805755 2.803880 2.806568 2.807394 2.806336 2.805310 2.804701 2.803932 2.805914 2.804905 2.804668 2.803392 2.801366 2.800122 2.800830 2.799215 2.798059 2.798158 2.798170 2.796240 2.797780 2.797640 2.797245 2.797446 2.798172 2.797694 2.796170 2.795144 2.793836 2.794689 2.794784 2.793604 2.794372 2.794286 2.796951 2.799092 2.799804 2.798602 2.800559 2.800087 2.800038 2.800940 2.803303 2.803423 2.802103 2.801888 2.799851 2.800297 2.799574 2.800290 2.799384 2.799240 2.797553 2.796112 2.795681 2.796487 2.795388 2.795386 2.796966 2.796498 2.795850 2.794425 2.794172 2.792966 2.791956 2.791948 2.790894 2.791744 2.789757 2.792425 2.790443 2.788889 2.788301 2.786283 2.787941 2.786701 2.785887 2.784714 2.784638 2.782635 2.780771 2.778878 2.777345 2.777006 2.775201 2.774068 2.777514 2.775580 2.774758 2.774335 2.772673 2.772585 2.771012 2.769351 2.767661 2.766355 2.766467 2.769117 2.767840 2.769576 2.771271 2.772657 2.775317 2.775817 2.777043 2.777703 2.775513 2.776037 2.774026 2.773194 2.773637 2.772450 2.771615 2.772681 2.771886 2.773020 2.771475 2.770605 2.775675 2.775097 2.775191 2.773596 2.772662 2.772051 2.773654 2.774760 2.776574 2.778038 2.777580 2.777664 2.783433 2.782581 2.784041 2.782906 2.782573 2.780951 2.780390 2.781371 2.779696 2.784202 2.782838 2.784378 2.782694 2.781917 2.779838 2.781224 2.780210 2.779204 2.777194 2.776918 2.775475 2.774281 2.773964 2.771890 2.770827 2.774448 2.778162 2.779466 2.781332 2.779619 2.781306 2.780340 2.784444 2.783357 2.781949 2.784712 2.786207 2.787208 2.787881 2.786982 2.784993 2.783905 2.782835 2.785200 2.785235 2.784922 2.788164 2.790495 2.792538 2.798007 2.796499 2.795066 2.793134 2.793119 2.792291 2.792713 2.791204 2.790783 2.789106 2.788573 2.791049 2.792564 2.792680 2.791850 2.791137 2.793286 2.793923 2.793217 2.792580 2.792341 2.791940 2.789905 2.788500 2.788070 2.787222 2.786151 2.786329 2.788121 2.786857 2.788436 2.787318 2.786721 2.787763 2.786650 2.785987 2.788632 2.788093 2.786282 2.784936 2.794239 2.794836 2.793453 2.793070 2.793846 2.792581 2.793519 2.801612 2.800637 2.803560 2.801789 2.802153 2.801583 2.801270 2.799538 2.798616 2.799289 2.798944 2.799127 2.801382 2.800769 2.807018 2.808230 2.809349 2.808218 2.806478 2.805925 2.806015 2.804110 2.804767 2.802965 2.802428 2.801863 2.800293 2.799181 2.797533 2.796013 2.798204 2.797585 2.796600 2.794935 2.795530 2.794582 2.793523 2.792370 2.791502 2.790253 2.788883 2.794722 2.793527 2.794530 2.792547 2.791095 2.792088 2.792634 2.802656 2.801033 2.801926 2.801094 2.802197 2.802400 2.801510 2.800101 2.799969 2.801394 2.800681 2.801556 2.800310 2.799486 2.801375 2.800029 2.798657 2.796635 2.796560 2.799415 2.798486 2.797901 2.797033 2.794947 2.797983 2.798972 2.800649 2.799965 2.799169 2.799958 2.797989 2.797470 2.795962 2.794937 2.793719 2.794175 2.793000 2.791515 2.790900 2.790046 2.788752 2.786866 2.788106 2.789046 2.788711 2.792027 2.790769 2.789267 2.788668 2.788478 2.787034 2.789055 2.788766 2.787028 2.785616 2.785989 2.785807 2.786311 2.793117 2.791093 2.790702 2.789681 2.788533 2.788720 2.790796 2.789106 2.791968 2.795322 2.795250 2.793104 2.795407 2.794361 2.795944 2.795463 2.795353 2.794448 2.792601 2.792529 2.792671 2.795321 2.794695 2.795479 2.794859 2.793504 2.792880 2.790584 2.790269 2.788822 2.787373 2.788399 2.786417 2.786192 2.784507 2.783405 2.784356 2.785946 2.786117 2.784881 2.786449 2.785830 2.784676 2.784759 2.784208 2.784465 2.783150 2.783313 2.782910 2.783277 2.781397 2.780151 2.782679 2.784402 2.783602 2.784060 2.785503 2.787087 2.788748 2.787932 2.789962 2.789113 2.788395 2.787379 2.787527 2.786449 2.787505 2.787606 2.786069 2.785903 2.783515 2.784124 2.783669 2.782563 2.781978 2.781384 2.783648 2.786060 2.785640 2.785373 2.783242 2.787138 2.787615 2.786209 2.784977 2.787997 2.786596 2.785789 2.787726 2.789203 2.788463 2.787428 2.786623 2.790384 2.790145 2.789937 2.789282 2.791469 2.791343 2.792345 2.791891 2.793505 2.792528 2.792423 2.791403 2.792973 2.794568 2.793900 2.793384 2.793918 2.793291 2.792849 2.795136 2.797269 2.796906 2.795323 2.794939 2.793357 2.793171 2.794533 2.794832 2.793113 2.792017 2.794706 2.794939 2.799861 2.798879 2.798153 2.797691 2.801112 2.801827 2.803606 2.803682 2.802300 2.804603 2.802188 2.801151 2.806363 2.805525 2.807119 2.805829 2.807543 2.806440 2.804329 2.806128 2.804881 2.803616 2.810618 2.810761 2.809523 2.810610 2.809151 2.808457 2.808348 2.809226 2.808807 2.808799 2.810566 2.809963 2.808628 2.807513 2.806025 2.804810 2.803435 2.802004 2.801866 2.803131 2.809013 2.809233 2.808035 2.806775 2.808563 2.806870 2.805377 2.804786 2.804635 2.803690 2.805015 2.804338 2.802485 2.802050 2.801789 2.804544 2.803802 2.802826 2.802302 2.804324 2.803773 2.804199 2.802490 2.800850 2.800760 2.799732 2.801637 2.802827 2.801729 2.803242 2.803844 2.803040 2.806643 2.804738 2.803578 2.804590 2.804997 2.803551 2.803414 2.807429 2.808704 2.806944 2.808936 2.806946 2.808569 2.808052 2.808695 2.807479 2.806973 2.805485 2.804050 2.802205 2.801470 2.800032 2.798656 2.797879 2.795585 2.794649 2.795427 2.792999 2.790690 2.789675 2.798049 2.796550 2.794299 2.793208 2.802455 2.803941 2.805462 2.816213 2.817743 2.818806 2.816619 2.816682 2.815029 2.815568 2.815003 2.813849 2.813015 2.813263 2.813391 2.814886 2.813845 2.817353 2.815995 2.814856 2.813286 2.811904 2.810596 2.809009 2.807466 2.805755 2.805064 2.803317 2.802815 2.802412 2.801878 2.800597 2.799387 2.798334 2.796551 2.796938 2.797468 2.796837 2.796205 2.795197 2.796694 2.800480 2.798115 2.796988 2.796205 2.795765 2.795406 2.794305 2.796311 2.796593 2.795907 2.796733 2.797099 2.796461 2.795542 2.797544 2.795907 2.798559 2.799274 2.797763 2.800961 2.798752 2.798317 2.798012 2.796434 2.797224 2.801290 2.800806 2.801197 2.799836 2.800134 2.798270 2.798116 2.797435 2.796141 2.794467 2.792511 2.791212 2.789885 2.788669 2.787809 2.789313 2.792536 2.794103 2.799700 2.801647 2.801584 2.801916 2.806761 2.806116 2.806501 2.805261 2.807207 2.806066 2.805510 2.804566 2.803183 2.805069 2.804176 2.803370 2.803193 2.801398 2.801860 2.799904 2.799422 2.798097 2.796315 2.797612 2.797317 2.797652 2.796403 2.798438 2.797457 2.795688 2.795718 2.795256 2.795778 2.800457 2.800894 2.800938 2.801038 2.800518 2.803078 2.802112 2.805659 2.806020 2.805582 2.805495 2.805254 2.803850 2.802252 2.804963 2.804457 2.803134 2.802025 2.801362 2.800523 2.800802 2.800434 2.801023 2.799265 2.800930 2.800408 2.799038 2.798025 2.795777 2.795940 2.794812 2.793745 2.793712 2.794480 2.793137 2.792301 2.792323 2.792011 2.790893 2.789378 2.789703 2.788776 2.787968 2.788793 2.790287 2.793424 2.793415 2.794362 2.793076 2.792262 2.791263 2.789165 2.788613 2.786992 2.784568 2.786991 2.786249 2.785807 2.784551 2.783773 2.783570 2.783126 2.782713 2.781792 2.780007 2.779699 2.778112 2.777996 2.777032 2.775382 2.773309 2.773896 2.773980 2.771985 2.769872 2.770350 2.769659 2.771913 2.771607 2.770334 2.769612 2.767577 2.765499 2.764380 2.762864 2.762022 2.761002 2.763095 2.763541 2.762958 2.763405 2.763278 2.761765 2.761969 2.762267 2.761595 2.760458 2.760544 2.768892 2.769286 2.769937 2.769820 2.767622 2.771620 2.773297 2.772993 2.772117 2.771312 2.769395 2.772614 2.771561 2.770204 2.771252 2.771832 2.770195 2.768089 2.769619 2.768270 2.767700 2.768063 2.766554 2.769349 2.768542 2.770635 2.771259 2.770192 2.769421 2.769241 2.768578 2.766989 2.767657 2.773212 2.772925 2.776437 2.775393 2.773614 2.772335 2.771624 2.774775 2.775309 2.773581 2.771957 2.770523 2.769256 2.768185 2.770770 2.769052 2.772162 2.770050 2.769418 2.770104 2.770607 2.769146 2.775506 2.774236 2.772710 2.771412 2.770653 2.771670 2.770176 2.768295 2.769128 2.767404 2.766176 2.765751 2.764770 2.764137 2.764046 2.762527 2.761767 2.763072 2.762820 2.763546 2.764349 2.763912 2.763765 2.764283 2.774006 2.775496 2.774272 2.773133 2.772108 2.772991 2.772024 2.773771 2.772089 2.770909 2.775250 2.777475 2.775558 2.781074 2.781350 2.785210 2.783889 2.783734 2.782849 2.786642 2.784845 2.784458 2.783078 2.783204 2.782608 2.782154 2.784661 2.784473 2.783483 2.782999 2.782172 2.782339 2.782155 2.782692 2.788177 2.788831 2.788578 2.791671 2.790648 2.790339 2.790814 2.789285 2.789334 2.789641 2.788672 2.787970 2.786584 2.785849 2.785275 2.785465 2.789910 2.788857 2.789445 2.788758 2.793262 2.792650 2.792050 2.791099 2.790676 2.789149 2.790432 2.790044 2.788655 2.788551 2.787285 2.785863 2.787187 2.787011 2.788714 2.787304 2.788397 2.788385 2.787100 2.792599 2.793069 2.791563 2.790887 2.790139 2.791737 2.790821 2.794848 2.792979 2.792361 2.793154 2.791934 2.792610 2.792217 2.791615 2.791759 2.790242 2.796141 2.797983 2.797656 2.797464 2.796109 2.796473 2.795788 2.795217 2.794806 2.794653 2.793615 2.792318 2.791836 2.789956 2.788345 2.787045 2.786197 2.784993 2.790553 2.791976 2.790183 2.790904 2.794345 2.793620 2.792251 2.791559 2.790641 2.795175 2.794864 2.793659 2.792542 2.792059 2.790965 2.790782 2.788752 2.787197 2.789122 2.788211 2.787105 2.788125 2.786158 2.787150 2.785674 2.785905 2.788573 2.788110 2.786458 2.786291 2.784866 2.785178 2.782898 2.781287 2.781727 2.781853 2.780897 2.781112 2.784887 2.786033 2.786747 2.785166 2.783263 2.783124 2.783598 2.782506 2.781337 2.780398 2.780402 2.781696 2.781225 2.781577 2.780210 2.778788 2.777779 2.780642 2.779216 2.778632 2.778157 2.781991 2.780805 2.780110 2.778159 2.778714 2.777886 2.779867 2.777675 2.776559 2.774961 2.778101 2.777099 2.776644 2.775067 2.776018 2.774255 2.773147 2.773525 2.773626 2.772897 2.773911 2.772801 2.773454 2.771417 2.770009 2.770175 2.770090 2.772629 2.773918 2.773304 2.771894 2.771567 2.773095 2.771915 2.771800 2.771161 2.774330 2.775551 2.774110 2.775260 2.778035 2.782165 2.783643 2.785650 2.783892 2.783002 2.781900 2.783603 2.784106 2.782445 2.782200 2.783456 2.785348 2.784477 2.784173 2.785012 2.784434 2.784473 2.785591 2.784641 2.784664 2.785626 2.786064 2.785689 2.791687 2.792120 2.790586 2.789575 2.788472 2.786944 2.785546 2.785204 2.786234 2.786909 2.788553 2.787121 2.788618 2.788301 2.789239 2.787374 2.787475 2.787671 2.787916 2.787766 2.786269 2.785772 2.787123 2.788665 2.787686 2.788032 2.787743 2.789036 2.788741 2.787727 2.786034 2.787453 2.787187 2.786030 2.786606 2.787176 2.786693 2.786192 2.784799 2.784114 2.784571 2.783106 2.782315 2.781973 2.784024 2.785943 2.785587 2.784629 2.784908 2.784381 2.785651 2.784884 2.786916 2.786176 2.784369 2.786707 2.786859 2.786638 2.785410 2.787724 2.786511 2.786870 2.785834 2.784677 2.783187 2.782831 2.781486 2.779845 2.778908 2.778919 2.777067 2.776485 2.776178 2.775664 2.775104 2.774949 2.773448 2.773096 2.771887 2.773029 2.773804 2.772957 2.772265 2.773372 2.771928 2.771812 2.774372 2.774413 2.777781 2.777661 2.777627 2.778452 2.783715 2.782643 2.781300 2.780840 2.780353 2.778789 2.777551 2.776049 2.775471 2.775621 2.774030 2.773686 2.771768 2.770984 2.773177 2.772727 2.773888 2.773803 2.774067 2.773157 2.772005 2.770655 2.771671 2.771221 2.771774 2.772968 2.771601 2.773668 2.772292 2.774096 2.772429 2.770605 2.769040 2.768060 2.767396 2.768948 2.767348 2.767103 2.766646 2.766476 2.764731 2.763913 2.762225 2.761141 2.762840 2.761146 2.759565 2.763023 2.763372 2.763391 2.762231 2.761227 2.759875 2.760533 2.760931 2.760809 2.760239 2.760944 2.759278 2.762457 2.761475 2.763049 2.761866 2.761037 2.759940 2.759428 2.760412 2.761284 2.760304 2.760623 2.759392 2.759131 2.756737 2.759662 2.758102 2.757241 2.756728 2.756416 2.755368 2.754206 2.756526 2.760316 2.758748 2.757308 2.756405 2.756907 2.758069 2.758099 2.756877 2.756064 2.754785 2.754001 2.752811 2.759187 2.757892 2.755569 2.754765 2.757488 2.757016 2.756328 2.757588 2.759737 2.758675 2.759763 2.759227 2.759261 2.758117 2.757359 2.756265 2.755806 2.757723 2.756738 2.755162 2.755216 2.754436 2.753599 2.755771 2.755577 2.755028 2.755713 2.755247 2.758105 2.756739 2.757033 2.756885 2.755927 2.754318 2.754706 2.757000 2.761221 2.760258 2.760563 2.761794 2.763560 2.762561 2.762596 2.762924 2.762053 2.762736 2.762453 2.761610 2.764949 2.765637 2.766238 2.767196 2.767349 2.766000 2.764227 2.763532 2.764694 2.763138 2.763423 2.763355 2.762246 2.762735 2.765540 2.765480 2.765979 2.769031 2.768273 2.773399 2.774280 2.772787 2.773337 2.772873 2.772275 2.772284 2.771198 2.771163 2.770944 2.771180 2.770717 2.769848 2.774532 2.775734 2.774127 2.772491 2.774780 2.776290 2.779373 2.777256 2.776139 2.774920 2.774439 2.775542 2.775428 2.774977 2.774090 2.773592 2.771573 2.770031 2.771026 2.769522 2.769121 2.768798 2.767477 2.766588 2.766749 2.765628 2.765374 2.765886 2.765756 2.764249 2.762753 2.760880 2.761912 2.761500 2.760962 2.760140 2.758544 2.760078 2.759826 2.760243 2.760412 2.761171 2.759359 2.759139 2.767134 2.770352 2.769321 2.768919 2.770626 2.770000 2.768251 2.767767 2.767112 2.765237 2.765200 2.763774 2.766224 2.767657 2.768101 2.770132 2.769602 2.768078 2.770651 2.770191 2.770315 2.768555 2.768205 2.769351 2.769645 2.771040 2.774628 2.775927 2.775761 2.775549 2.775095 2.773456 2.775873 2.774502 2.776241 2.776239 2.776339 2.775161 2.776865 2.781191 2.779210 2.778018 2.777129 2.777007 2.779517 2.778087 2.780299 2.779727 2.777718 2.778693 2.777342 2.777603 2.777681 2.777090 2.778232 2.777496 2.777771 2.777313 2.775321 2.774711 2.776803 2.776895 2.778340 2.778491 2.778018 2.777626 2.777700 2.777192 2.778103 2.776943 2.778031 2.777732 2.778879 2.778446 2.781023 2.780080 2.779805 2.778956 2.779996 2.779839 2.778408 2.778719 2.778262 2.776662 2.774916 2.772879 2.771256 2.772090 2.773796 2.774589 2.774400 2.773367 2.772689 2.773391 2.773255 2.774600 2.777775 2.776737 2.776335 2.774612 2.773798 2.772423 2.773629 2.772398 2.773688 2.772419 2.775247 2.776218 2.776814 2.776733 2.774866 2.774795 2.776946 2.775583 2.773875 2.772772 2.773746 2.774573 2.774340 2.775976 2.774277 2.774203 2.773151 2.771206 2.770463 2.770024 2.770956 2.769950 2.769975 2.769720 2.769216 2.768190 2.768583 2.767010 2.771373 2.770695 2.770276 2.769287 2.767867 2.767811 2.767461 2.766766 2.767080 2.767173 2.765796 2.764662 2.767463 2.766139 2.765221 2.764247 2.763339 2.761693 2.762513 2.764107 2.762679 2.761667 2.762164 2.761296 2.761485 2.760217 2.759417 2.760959 2.760293 2.758470 2.759306 2.758988 2.758519 2.757730 2.756817 2.757077 2.758554 2.761854 2.764378 2.763816 2.766449 2.765922 2.764523 2.764422 2.764596 2.763871 2.763523 2.762262 2.761205 2.759401 2.758184 2.759035 2.759494 2.760208 2.760077 2.760300 2.763016 2.763698 2.762943 2.764593 2.763987 2.765007 2.764166 2.765729 2.764296 2.764103 2.763662 2.761847 2.764408 2.763316 2.761787 2.761511 2.760283 2.759266 2.759851 2.759309 2.759294 2.760391 2.759154 2.760898 2.762020 2.760934 2.759280 2.759232 2.759960 2.760187 2.759474 2.763730 2.764505 2.763982 2.763614 2.761873 2.760757 2.760279 2.759148 2.758255 2.756538 2.754833 2.753050 2.754350 2.753090 2.754255 2.753355 2.753141 2.752413 2.751165 2.752137 2.750426 2.750710 2.750388 2.749651 2.750447 2.752790 2.753344 2.752045 2.750542 2.752060 2.751381 2.750269 2.751745 2.751836 2.750995 2.748833 2.748169 2.746948 2.746506 2.746342 2.747320 2.748088 2.749360 2.747908 2.748084 2.747353 2.748471 2.747277 2.747688 2.746560 2.746501 2.745275 2.743746 2.742398 2.742032 2.742227 2.742894 2.742234 2.743981 2.745810 2.744652 2.744083 2.744888 2.743234 2.743414 2.744680 2.744730 2.749711 2.750153 2.752831 2.752307 2.751952 2.750744 2.751862 2.755326 2.754582 2.754198 2.754649 2.753410 2.756038 2.757182 2.757766 2.757646 2.756148 2.756958 2.760192 2.758893 2.757654 2.756462 2.754510 2.755867 2.754160 2.758070 2.756705 2.755204 2.754541 2.754403 2.755800 2.756269 2.755672 2.755218 2.755623 2.757332 2.756506 2.755837 2.754122 2.753167 2.754373 2.752609 2.752862 2.754657 2.754130 2.754891 2.758401 2.757596 2.758518 2.757319 2.758495 2.757459 2.756135 2.756448 2.755948 2.754669 2.753197 2.752602 2.750908 2.750027 2.748908 2.750532 2.752628 2.751561 2.750970 2.750406 2.748822 2.748813 2.749820 2.749152 2.748411 2.747347 2.745242 2.751311 2.749680 2.750319 2.752557 2.754114 2.753431 2.754177 2.755989 2.755806 2.754202 2.753269 2.752315 2.751707 2.750729 2.750610 2.754794 2.753128 2.752862 2.754309 2.753791 2.757072 2.755066 2.756467 2.755434 2.755962 2.754850 2.756475 2.755786 2.755349 2.754961 2.754060 2.752860 2.751148 2.749690 2.747729 2.748031 2.749228 2.749387 2.748161 2.746315 2.746024 2.743956 2.743075 2.742385 2.742418 2.741500 2.740671 2.740603 2.740857 2.739970 2.738008 2.738465 2.736368 2.736558 2.735025 2.733614 2.735127 2.734468 2.732719 2.731292 2.731062 2.730276 2.730302 2.728946 2.729854 2.729147 2.729752 2.728468 2.729178 2.730710 2.732652 2.731491 2.730182 2.729537 2.728923 2.727623 2.726316 2.725741 2.724202 2.723968 2.722291 2.720970 2.721156 2.720014 2.719323 2.718080 2.716420 2.715350 2.714552 2.713049 2.713056 2.712662 2.711345 2.709881 2.708376 2.707131 2.706206 2.706125 2.704861 2.706965 2.706465 2.706461 2.705697 2.705577 2.708367 2.708181 2.707497 2.706433 2.704884 2.704493 2.709996 2.710509 2.710493 2.709897 2.708549 2.707491 2.705454 2.705376 2.705304 2.704673 2.703737 2.703897 2.705633 2.704390 2.703278 2.702918 2.701508 2.699856 2.698845 2.697834 2.697507 2.697724 2.696109 2.697360 2.696115 2.695385 2.695318 2.693593 2.695536 2.694444 2.692592 2.691346 2.689616 2.687793 2.685751 2.688774 2.688896 2.686830 2.691190 2.691856 2.690569 2.688734 2.688839 2.687700 2.687818 2.686652 2.685204 2.685409 2.684735 2.683704 2.681564 2.680212 2.679636 2.680035 2.678296 2.677332 2.679637 2.679365 2.677950 2.678106 2.676454 2.674321 2.676169 2.674451 2.673095 2.672211 2.674662 2.675191 2.675855 2.674824 2.675387 2.677212 2.678009 2.677721 2.679871 2.678261 2.678309 2.676618 2.675598 2.675505 2.673432 2.674101 2.673085 2.672510 2.671097 2.671069 2.668862 2.666979 2.665364 2.665503 2.666378 2.666130 2.669205 2.668047 2.668802 2.666911 2.666633 2.666474 2.665386 2.665940 2.671575 2.670056 2.669093 2.668164 2.666838 2.668431 2.668011 2.668807 2.672870 2.672371 2.671660 2.675523 2.675153 2.674623 2.673525 2.673697 2.674510 2.675768 2.679771 2.678117 2.679706 2.679759 2.678446 2.681138 2.680766 2.678956 2.678345 2.677851 2.680874 2.679945 2.682586 2.683479 2.684411 2.682868 2.685077 2.683771 2.684187 2.691769 2.693047 2.691273 2.691433 2.689550 2.688489 2.687571 2.687092 2.686570 2.685972 2.685838 2.686858 2.686323 2.687471 2.685653 2.685093 2.686836 2.688988 2.690969 2.689789 2.690856 2.690102 2.688857 2.687631 2.685793 2.686984 2.686296 2.685586 2.686830 2.686703 2.686062 2.688387 2.686932 2.687328 2.685967 2.690592 2.690212 2.688496 2.689298 2.688712 2.687249 2.686238 2.685781 2.684205 2.686607 2.684793 2.683640 2.683793 2.683126 2.681884 2.680892 2.679638 2.680071 2.678932 2.678281 2.678363 2.677325 2.678003 2.677375 2.677032 2.675269 2.673565 2.676476 2.675794 2.675758 2.679719 2.678292 2.678334 2.676692 2.676759 2.676445 2.675549 2.674364 2.674463 2.673631 2.672529 2.670806 2.669584 2.669095 2.669008 2.674575 2.674500 2.672172 2.671174 2.671017 2.670049 2.668071 2.666639 2.667033 2.665231 2.663800 2.665991 2.665179 2.667879 2.666832 2.666081 2.668598 2.666574 2.667227 2.667308 2.666340 2.666553 2.665070 2.664596 2.665391 2.664149 2.661963 2.660454 2.661328 2.659525 2.658827 2.658642 2.656939 2.655815 2.654302 2.652713 2.654496 2.653366 2.651755 2.652519 2.653170 2.652313 2.653294 2.652776 2.651070 2.651338 2.650939 2.650111 2.652116 2.650962 2.650546 2.649397 2.650387 2.650924 2.652956 2.652405 2.652584 2.650891 2.649400 2.648205 2.647847 2.646741 2.645865 2.645115 2.643547 2.641682 2.641815 2.640910 2.640639 2.641722 2.639771 2.643676 2.643521 2.645114 2.644488 2.644879 2.643476 2.643212 2.643154 2.642740 2.647458 2.645267 2.643665 2.642878 2.642237 2.643772 2.643996 2.644736 2.643683 2.643065 2.643755 2.644322 2.646267 2.646011 2.648871 2.649471 2.648295 2.649723 2.648898 2.647902 2.647126 2.652909 2.653539 2.652812 2.652246 2.651882 2.652891 2.652451 2.652192 2.656320 2.655569 2.654652 2.653334 2.651838 2.652432 2.652845 2.650862 2.652479 2.651918 2.650657 2.650282 2.648795 2.647442 2.646240 2.644188 2.648027 2.649030 2.651730 2.657519 2.657144 2.656058 2.656147 2.656132 2.654393 2.652993 2.657890 2.657308 2.656823 2.656984 2.655567 2.655176 2.653174 2.652262 2.650718 2.648830 2.648130 2.647906 2.647427 2.645725 2.645546 2.647763 2.647395 2.646339 2.645425 2.646749 2.647521 2.645663 2.645260 2.645431 2.646619 2.644353 2.643380 2.644391 2.644001 2.649593 2.648991 2.648334 2.648238 2.649027 2.649729 2.649196 2.648051 2.648897 2.647298 2.645893 2.645203 2.644252 2.643333 2.642213 2.641501 2.641666 2.642700 2.641051 2.644191 2.643754 2.643507 2.642230 2.642246 2.640916 2.642565 2.644559 2.643779 2.641940 2.646895 2.646002 2.645862 2.645907 2.648049 2.647546 2.646699 2.646555 2.644627 2.643795 2.641863 2.642978 2.641506 2.639775 2.639361 2.637958 2.636856 2.640452 2.638835 2.638081 2.637453 2.636018 2.639345 2.637899 2.638362 2.641331 2.642900 2.647270 2.646603 2.645519 2.650647 2.650524 2.648938 2.654044 2.653358 2.653119 2.652760 2.651237 2.650853 2.650367 2.651604 2.650394 2.650187 2.648889 2.647551 2.646962 2.645781 2.645259 2.643958 2.644590 2.643453 2.645648 2.646934 2.648296 2.647010 2.645801 2.648477 2.646864 2.646179 2.644809 2.645749 2.646107 2.645265 2.645493 2.647431 2.646252 2.651844 2.652850 2.654890 2.655270 2.655557 2.656113 2.654752 2.653370 2.654728 2.655837 2.655164 2.653929 2.652763 2.652862 2.651014 2.650790 2.649695 2.649060 2.650362 2.649235 2.647337 2.648707 2.647760 2.646639 2.644752 2.645044 2.647914 2.646607 2.645083 2.644355 2.645562 2.644442 2.643958 2.642647 2.641924 2.641432 2.639166 2.640193 2.638202 2.638640 2.641718 2.641394 2.641234 2.641933 2.640542 2.645022 2.645045 2.644731 2.645946 2.644153 2.643124 2.641694 2.640207 2.640290 2.639335 2.638062 2.642096 2.640602 2.639639 2.639114 2.638210 2.639040 2.640039 2.641130 2.640407 2.638562 2.638935 2.638073 2.646691 2.647890 2.647503 2.648544 2.646942 2.645665 2.646394 2.645355 2.643757 2.643228 2.648381 2.647888 2.646820 2.645707 2.645226 2.643731 2.643232 2.642255 2.640820 2.643072 2.643910 2.642964 2.642482 2.641479 2.642600 2.641297 2.639702 2.639979 2.639617 2.637320 2.635230 2.633301 2.634372 2.633213 2.632127 2.633100 2.632992 2.632808 2.631226 2.630701 2.631409 2.630786 2.628860 2.629006 2.627508 2.625504 2.624501 2.624500 2.627515 2.625346 2.624212 2.623039 2.623830 2.623451 2.621396 2.622944 2.621833 2.627902 2.629472 2.628765 2.631620 2.629332 2.628064 2.628020 2.626627 2.629721 2.630790 2.629060 2.629486 2.629248 2.628175 2.628399 2.627421 2.625747 2.624478 2.626308 2.626032 2.626052 2.626112 2.624597 2.624400 2.622763 2.622410 2.622610 2.620999 2.619008 2.618046 2.617262 2.616035 2.613758 2.613380 2.615344 2.614297 2.613140 2.614943 2.613614 2.611376 2.611732 2.611326 2.611141 2.613212 2.611964 2.619501 2.618163 2.616416 2.616415 2.615235 2.624905 2.623943 2.622864 2.623162 2.622852 2.624155 2.622188 2.621815 2.620780 2.618676 2.617983 2.616981 2.615049 2.614311 2.614797 2.617298 2.616660 2.615407 2.617790 2.617088 2.616631 2.615445 2.615105 2.613995 2.613779 2.614689 2.612862 2.615671 2.614141 2.613119 2.611997 2.609752 2.609187 2.608164 2.610712 2.610484 2.613361 2.613729 2.612034 2.611669 2.610397 2.610180 2.610608 2.608528 2.607013 2.607182 2.606291 2.607924 2.609276 2.608181 2.607759 2.608180 2.606109 2.605596 2.605428 2.604436 2.604175 2.603980 2.605539 2.604599 2.612975 2.613405 2.618140 2.619048 2.617704 2.618939 2.617637 2.619039 2.617611 2.618103 2.619154 2.617473 2.617472 2.615910 2.617706 2.616710 2.616011 2.620185 2.619510 2.619149 2.617517 2.617081 2.615877 2.613866 2.612539 2.611024 2.609802 2.609087 2.608286 2.606709 2.607407 2.606209 2.606594 2.604501 2.602711 2.603704 2.603442 2.601684 2.599575 2.598912 2.599358 2.598190 2.598653 2.597565 2.597957 2.596393 2.596574 2.596886 2.598276 2.598960 2.600517 2.600292 2.600982 2.599934 2.597676 2.597852 2.597654 2.597231 2.597092 2.594683 2.594392 2.594137 2.596891 2.598043 2.598274 2.598461 2.597294 2.595799 2.596494 2.594470 2.592572 2.591780 2.592379 2.591704 2.595145 2.593374 2.591736 2.591741 2.595245 2.599604 2.599981 2.600227 2.600818 2.601871 2.602767 2.602855 2.603876 2.605196 2.604209 2.605169 2.604060 2.607787 2.614854 2.614481 2.612976 2.611657 2.613723 2.613287 2.613714 2.612300 2.614666 2.613047 2.613966 2.615091 2.614042 2.613247 2.611145 2.612144 2.610324 2.612256 2.611046 2.610392 2.610374 
