0.000000 0.000000 0.000000 0.000000 0.000000 0.000000 0.000000 0.000000 0.306370 0.237348 -0.345109 -0.844641 -0.375499 0.171964 0.818983 0.808262 0.097154 -0.107365 -0.733127 -0.021557 -0.956594 -0.418791 0.350502 0.071136 0.135576 0.909342 1.397191 1.126980 1.894466 3.238331 2.315783 3.336578 4.010227 3.836404 3.478014 4.589776 5.062411 4.595310 5.524877 5.551856 6.389640 5.409264 5.769283 5.140089 5.788210 5.270243 5.062433 4.509413 4.406180 3.777383 5.123904 3.536887 3.621811 3.324217 2.388864 2.668936 2.591545 1.965182 0.333035 -0.177317 -0.299168 -1.972178 -0.367954 -1.677855 -0.772846 -1.223935 -0.795862 1.212302 0.668072 0.738992 0.270787 0.505825 1.194007 1.672251 1.452952 -0.432206 -0.484546 0.302609 -0.174717 -0.996234 -0.489438 -1.229528 -1.731413 -0.924327 -1.277991 -2.016380 -1.625597 -0.578565 -0.610688 -1.482095 -1.903439 -1.129625 -2.059784 -2.229856 -1.616004 -2.220183 -2.919205 -2.431530 -2.188723 -2.741858 -1.570844 -2.140993 -2.549403 -3.210413 -1.970943 -1.743774 -1.303923 -2.293871 -2.946286 -2.958713 -2.532929 -1.941572 -2.438448 -2.690854 -3.801697 -3.321875 -3.113774 -3.704104 -4.040117 -3.522354 -4.193624 -2.631426 -3.583753 -2.321793 -2.396541 -2.674383 -1.603015 -2.298992 -0.987702 -1.377120 -0.784006 -1.627221 -2.303209 -2.356554 -1.542366 -1.647062 -0.923934 -0.926251 -1.860773 -0.749963 -1.193166 -1.247039 -1.161490 -0.593337 -0.128120 -1.080466 -0.654891 -1.281868 -0.848122 -0.774345 -0.168746 -0.849283 -0.518240 -0.684583 -1.660077 -0.444339 -1.534926 -1.794370 -1.149319 -0.627566 -1.635152 -0.751066 1.012424 0.358205 1.801375 1.622849 1.363652 1.999487 1.900270 2.117073 1.877218 1.693244 0.501342 1.188108 1.025927 1.486150 1.462893 1.313828 0.953347 0.518545 1.121319 1.885555 1.519939 1.363827 1.167149 1.861275 1.402409 1.534071 1.307930 1.135821 1.446685 0.753462 0.238409 -0.325455 -0.517336 0.477970 0.608288 1.521456 0.364491 0.756294 0.624617 0.151541 1.741153 1.369215 2.292510 1.541982 0.659795 0.849222 1.028898 2.334737 1.076091 1.502251 0.319257 -0.128796 -0.478700 0.142475 -0.892106 -0.963336 -0.928100 -0.959166 -1.570637 -1.551381 -1.263002 -1.315141 -0.527602 -1.583211 -0.900313 -1.028287 -0.764851 0.121378 -0.861039 -0.442298 -1.690802 -1.366561 -1.327420 -0.790577 -0.997464 -1.212101 -1.506872 -1.445766 -1.141837 -0.559263 -0.491994 -1.132529 -0.733229 0.017969 -0.201412 -0.322922 -0.195661 -0.417837 -0.173354 -0.113078 0.467548 -0.123603 -0.210521 0.306451 0.387024 0.151068 0.574247 0.375209 0.227724 0.082422 0.113838 0.332442 -0.532933 -0.623722 -0.210380 0.055270 -0.439795 -0.388607 -0.276842 0.071971 1.295476 2.175726 2.680586 2.517452 2.822494 2.965349 3.310768 3.521467 3.074950 2.641110 1.534394 1.015411 0.898945 0.542986 0.421090 0.637123 -0.090344 0.582335 0.389546 0.367376 0.324292 0.211163 0.754420 0.189257 0.901120 0.601730 0.587902 0.420191 0.124116 -0.119904 0.291334 0.451869 0.026177 0.296929 -0.247155 0.119548 -0.778670 1.046754 0.203585 0.623904 0.563523 0.033883 0.787442 1.078347 2.377994 1.937751 2.482242 2.352194 2.184510 2.815286 2.916234 2.845075 3.019803 3.417444 3.186508 3.311156 3.472009 3.421227 3.310427 3.218851 2.704719 2.107899 2.170800 1.340311 0.855722 1.924992 1.033572 1.792592 1.294640 1.996529 1.537077 1.598790 1.028670 0.669389 0.322550 0.062812 0.862361 0.390977 -0.779505 -1.941202 -1.099121 -0.710195 -1.175924 -0.970657 -2.371997 -3.442332 -3.479722 -2.492392 -3.227595 -3.429834 -2.818984 -3.408439 -3.334996 -2.745344 -2.553476 -3.296616 -2.137784 -2.756373 -3.068557 -3.396365 -2.340507 -2.636471 -2.892934 -2.586309 -2.844870 -2.635965 -2.902991 -2.168691 -3.299133 -2.484027 -2.113295 -1.726951 -1.142549 -1.156051 -1.617198 -1.944601 -1.948978 -1.822457 -1.996029 -2.018123 -2.112664 -3.251203 -3.614777 -4.204082 -3.228320 -2.529132 -1.586994 -3.005204 -3.777754 -4.102052 -2.544612 -2.129204 -1.789634 -1.658764 -1.494406 -1.354639 -0.976440 -0.535379 -0.489848 0.641953 1.444350 -0.316441 0.488781 -0.121584 0.618495 0.350769 0.157794 0.426843 0.232040 0.609163 0.290309 0.287441 -0.013122 -0.039808 0.652750 1.221997 0.792929 0.691322 0.184805 -0.003352 1.320912 1.469029 2.342299 1.080940 2.414025 1.473674 2.422406 2.507839 3.397401 2.595251 3.663780 3.225286 2.557316 2.445713 1.752959 2.532765 1.614932 2.447695 1.953089 0.898650 0.840684 0.437307 0.284673 0.450969 0.128991 -0.325859 -1.419271 -1.878931 -1.909752 -2.124426 -1.978114 -2.872609 -3.104272 -3.595968 -3.948975 -3.709591 -3.994064 -3.284451 -2.756872 -2.428453 -2.466161 -1.990343 -1.057620 -1.304866 -0.001501 -0.248851 -0.621900 -1.688162 -1.708456 -2.383632 -2.179863 -2.604533 -2.830034 -3.128106 -3.247222 -2.379050 -2.525899 -2.122589 -1.880005 -1.655382 -1.547081 -2.093347 -1.945844 -1.871265 -1.361836 -2.436241 -2.773722 -2.850835 -2.951760 -2.372295 -2.286158 -2.369144 -3.134696 -2.510837 -2.290097 -3.268187 -2.465454 -3.044277 -3.042130 -3.171297 -3.729018 -3.954303 -4.418068 -3.411295 -4.231649 -3.824220 -3.834108 -3.751169 -4.169956 -4.079912 -2.884450 -4.008540 -3.192845 -3.689571 -3.777625 -3.922415 -2.949352 -3.489610 -3.808926 -3.438457 -2.778452 -3.152286 -2.165726 -1.865418 -1.938845 -1.307634 -1.259973 -1.752122 -2.077652 -1.669260 -1.919967 -2.032224 -1.344007 -2.629954 -2.304654 -2.066835 -1.884599 -2.100611 -2.329851 -1.721139 -1.762160 -0.976472 -0.639844 -0.197487 -0.699690 0.249019 0.261462 0.728038 0.555483 0.890703 -0.463918 -0.252273 0.823395 1.399187 1.195328 0.470657 0.695178 0.747452 1.591663 1.745058 0.346151 0.644793 1.030918 1.381046 2.002820 1.983217 1.900963 1.804655 2.023524 2.266544 1.598356 2.097476 1.674831 2.231524 1.762139 1.856716 2.486420 2.299533 2.677563 2.265268 2.339233 1.857491 3.130821 2.952914 2.418234 2.639872 3.418767 3.467834 3.908832 3.575398 2.981390 3.932163 3.833705 4.410800 3.904877 4.241764 4.473185 5.399273 4.972635 5.904029 5.985276 5.465383 5.542485 5.036025 4.873344 5.268739 4.030350 4.539492 3.123366 4.125101 3.229121 2.751511 3.201991 2.521025 2.318514 2.309049 1.343269 2.038123 2.106619 3.519289 2.897944 2.025801 2.298681 3.384718 3.851148 3.613185 3.409304 2.317326 2.312723 2.672082 3.013824 3.155691 2.418366 3.429700 2.550212 2.612859 3.175958 2.465008 3.121528 2.179782 2.665843 2.247173 1.347852 2.035770 1.851536 2.331294 2.361583 1.930215 1.592115 2.266439 2.804363 3.175159 2.399898 1.887241 1.600670 1.857960 2.128885 2.111984 1.493018 1.486085 1.532948 1.657300 1.885416 1.210167 1.351982 1.241114 1.342960 1.226233 0.012425 -0.080729 -0.536844 0.012079 -0.250284 -0.337281 -0.944250 -0.588015 0.089452 0.338675 1.876129 1.120759 2.195502 2.162266 1.951017 2.566798 2.086558 2.665888 2.078512 2.128983 2.079414 2.063651 2.617451 1.636031 2.244904 2.062947 2.987759 2.619438 2.500698 1.695812 1.881480 2.726731 3.295462 2.558544 2.795540 1.399404 1.445895 1.678158 1.957591 2.186894 1.247010 0.846228 1.074993 1.878248 3.081885 2.734579 2.045248 2.008628 1.940350 2.196247 2.257902 1.114869 0.878344 0.565776 0.452703 0.431588 -0.045340 1.537004 0.895689 1.990754 1.216583 0.917920 1.801228 1.996491 2.220834 1.420611 1.879789 1.796188 2.156987 2.258239 2.263570 1.828020 2.352214 1.685576 1.863764 1.519273 1.666880 1.931291 0.529460 0.854581 0.793401 0.753754 1.966953 0.735866 1.021114 -0.490045 -0.156827 0.074791 -0.721588 0.667690 -0.200494 -0.121593 -0.838892 -1.179899 -0.700671 -1.282241 -1.130662 -1.490921 -2.168021 -2.109762 -2.239622 -2.033719 -0.568054 -1.074396 -1.348636 -0.967459 -1.569266 -0.448841 -0.342970 -1.334715 -1.481853 -1.978881 -1.283558 -0.848577 -0.916024 -1.281777 -1.681991 -2.566062 -2.363060 -2.928872 -2.083845 -2.894819 -2.712902 -2.580730 -2.436273 -2.330569 -2.362658 -1.133755 -0.561796 -0.058966 -0.520256 -1.515318 -1.402496 -1.197075 -0.387798 -0.097323 -1.820520 -2.300057 -2.523743 -2.606997 -1.488372 -1.240390 -2.050252 -3.190025 -2.667092 -2.885097 -2.335272 -1.688376 -2.015577 -1.743210 -1.716806 -1.396812 -1.022245 -0.789271 -0.330424 0.053142 -0.415305 -0.746620 -0.582993 -0.851356 -1.111180 -0.770889 -2.063508 -1.731834 -2.313155 -2.684257 -1.450471 -1.884633 -0.701345 -1.712235 -0.722983 -0.698037 0.487225 1.111051 0.641724 1.054643 0.084186 1.011468 1.547478 2.012100 2.134547 2.071436 0.983869 1.070302 1.229301 1.953141 1.932616 1.258708 0.344296 0.028181 0.245077 0.687656 0.680202 0.471195 1.155897 -0.005666 0.143922 0.017895 0.094799 0.721607 0.982778 0.476929 0.216724 0.110433 0.805700 1.041481 1.597894 0.948744 0.606180 0.132747 0.276871 -0.158380 0.569469 -0.960170 -0.778991 -1.123666 -1.124475 -0.430812 -0.776585 -0.048791 -0.968375 -0.343248 -0.339876 -0.910977 0.001284 -0.822392 -1.113694 0.066245 -0.973610 -1.012934 -1.174664 -1.646275 -0.784679 -0.408165 -0.667586 -1.337393 -1.627864 -1.311594 -0.939856 -1.468652 -0.896653 -2.218493 -1.440158 -1.059629 -1.753036 -0.216348 -2.038770 -0.986942 -1.850897 -2.648386 -1.971426 -2.979405 -2.637260 -3.672424 -4.035993 -4.128277 -3.382139 -3.475786 -3.392082 -3.108488 -3.670021 -2.486567 -3.059463 -3.373691 -2.981389 -2.738236 -1.328023 -2.045564 -2.478384 -1.830816 -2.591503 -0.967453 -1.114626 -1.447438 -1.635067 -2.250556 -1.907697 -1.944576 -1.198726 -1.738437 -1.689720 -1.472603 -2.153234 -1.256923 -1.052882 -1.497262 -1.936702 -1.991539 -2.355705 -2.870476 -3.409660 -2.547094 -3.162239 -2.197485 -2.344969 -1.148555 -1.650739 -1.004305 -0.192458 -0.704460 0.861568 -0.069147 -0.160318 0.158772 0.009978 1.509966 0.844483 0.461688 0.898347 1.226851 2.081060 1.125624 0.059708 -0.037445 0.783937 1.161087 1.210081 0.382202 0.455672 0.383529 1.974241 1.359966 1.902396 2.243817 2.052762 1.731927 0.964831 1.467515 1.288051 2.002795 1.523337 1.138881 0.809627 1.217442 1.210724 2.070724 0.898997 1.350392 1.022128 0.566167 1.217891 0.660615 0.933240 0.233983 0.266370 -0.022192 -0.409405 -0.099933 -0.259778 -0.712007 -1.236848 -1.030770 -0.978758 -0.792946 -0.146577 -0.780402 -1.377611 -1.258503 -0.742645 -1.360130 -0.702425 -2.076856 -2.120108 -1.532969 -1.298604 -0.611478 -1.026595 -0.126862 -0.072423 -0.233398 0.055656 0.179162 0.379725 0.890704 -0.069051 -0.992453 -0.639785 -0.855191 0.227270 -0.190193 -1.070160 -1.831576 -1.114267 -1.099488 -0.836919 -0.633046 -1.550516 -1.558157 -0.864006 -0.266260 0.091309 0.687175 0.249057 0.457002 -0.103940 0.046207 0.188665 -0.582704 -0.659431 -1.241109 -2.256112 -1.740415 -2.843847 -1.894738 -2.015498 -1.643196 -2.083952 -2.096895 -2.939803 -2.271496 -2.132074 -1.174480 -1.725370 -2.374623 -2.327494 -2.118788 -0.811588 -1.532135 -0.883222 -1.998814 -1.378548 -1.456050 -1.724675 -1.925633 -2.787534 -1.825181 -2.297798 -1.507896 -2.427306 -1.518204 -1.534149 -1.636758 -0.892872 -1.601587 -1.395515 -1.511395 -1.037813 -1.387021 -2.094144 -1.237159 -1.673354 -0.987361 -1.044750 -0.765996 -1.182049 -0.066126 -0.713438 0.315187 -0.520899 -0.300954 0.393520 -0.854313 -0.146802 -0.418698 -0.363712 -0.129945 -0.292396 -0.629431 -0.077550 0.210747 0.388469 0.483073 0.284327 -0.061754 0.106301 -0.277151 0.453782 0.698022 0.497446 -0.007936 0.005066 0.159672 1.308630 0.734150 1.018812 0.068250 0.190050 0.414637 -0.240941 -0.651782 -1.173687 -1.226450 -1.297987 -1.393416 -2.140941 -2.567611 -1.839645 -2.195460 -1.321053 -1.470882 -1.766743 -0.723671 -1.204099 -1.086291 -0.813136 -0.716512 -0.290616 -0.529778 -2.013879 -1.813687 -1.555819 -1.289659 -0.264704 -1.610318 -0.930650 -1.457713 -1.498720 0.329029 -0.461736 0.367132 -0.818373 -1.296191 -1.080428 -1.149568 -1.330597 -1.771555 -1.789969 -1.529210 -1.714724 -2.012925 -2.072392 -1.543637 -1.536707 -1.117856 -1.860500 -2.266250 -2.129308 -2.435548 -1.830061 -2.303354 -1.592114 -1.610282 -1.741843 -1.492713 -1.786848 -1.756267 -1.404553 -2.070458 -2.046427 -1.842484 -2.313881 -1.047578 -1.837815 -1.128469 -1.367685 0.006869 0.333609 1.086780 0.871304 0.259556 0.318760 0.282855 0.540855 -0.193723 -0.090146 -0.151137 -0.807939 -0.298459 0.158480 0.907906 1.935088 1.213453 1.676723 0.713866 1.616794 1.988762 1.479063 1.125515 0.962045 2.197107 2.560332 3.367417 3.153693 4.044701 3.763478 4.305103 3.662204 3.384149 4.609797 3.673604 4.390552 4.127671 4.459516 5.781311 5.638179 5.826973 5.554967 5.823312 6.049387 5.582582 6.011389 5.933353 5.581355 5.680316 5.308061 6.128431 6.034459 6.341341 6.054904 4.370780 4.532779 3.994734 4.383520 4.581377 2.992324 3.214090 2.552473 2.562261 2.660339 2.487145 1.805705 1.870123 0.910354 0.784041 0.514073 0.568009 0.062296 -0.140961 -0.124883 -0.182543 0.086823 -0.595570 0.010942 -0.541353 -0.531929 -0.875540 -2.779989 -2.553083 -2.138821 -2.594661 -2.599257 -4.724349 -3.716359 -4.184112 -3.971899 -3.992208 -5.081677 -5.317554 -5.033095 -5.225848 -4.585538 -5.289080 -5.166110 -5.498180 -5.036884 -5.205421 -4.529965 -4.393972 -5.102469 -5.354662 -6.019854 -5.354528 -5.167321 -5.342243 -5.445496 -6.359134 -6.122862 -6.067724 -6.442928 -5.757373 -6.260629 -5.519841 -5.618188 -5.725823 -6.393665 -5.708383 -5.403423 -4.332586 -5.159183 -4.889781 -5.902680 -5.061150 -3.763435 -3.734580 -3.918402 -4.365329 -3.308607 -2.398540 -2.159448 -2.647331 -2.497361 -2.547960 -1.808404 -1.847696 -1.727583 -3.149202 -2.046276 -2.208874 -1.942352 -1.579777 -2.505115 -1.825901 -1.380276 -0.321785 -0.513833 -0.808204 -1.095787 -0.416443 -0.100493 0.244313 0.894036 -0.275639 0.804532 0.010472 0.331513 1.330624 1.475408 1.955685 1.628067 1.387617 1.206426 1.991202 2.499935 3.402749 3.506995 2.956605 2.859887 3.388641 3.870561 4.008036 4.987877 4.800630 5.016073 4.382022 4.509087 4.115458 4.791966 5.965911 4.708824 4.571354 4.084070 3.543544 4.276796 3.661687 4.143413 3.237338 2.767004 1.593481 1.793786 1.481641 2.125183 1.535620 1.859414 2.170558 1.499828 1.966674 1.473212 1.941259 1.141720 1.451791 0.646700 0.105788 0.288332 0.273815 0.285492 -0.772865 -0.157903 -0.056546 0.582496 1.324417 0.666152 0.027085 -1.029085 0.019861 -0.675017 0.012827 -0.828591 -0.917856 -0.750307 -1.058865 0.335343 -0.288252 -0.061601 -0.262086 -0.380118 0.064963 -0.697141 -0.601271 -0.639283 -0.955043 -1.037271 -0.482882 -0.075900 -0.040288 -0.228153 -0.962769 -1.663930 -1.250948 -1.052390 -0.746680 -1.563176 -1.685816 -1.550805 -1.553890 -0.928078 -1.179737 -0.534693 -1.520905 -0.977167 -1.039826 -0.970211 -1.459337 -1.539235 -2.019316 -1.546122 -1.173625 -1.180788 -1.186941 -1.745140 -1.749044 -1.869473 -1.904640 -1.049512 -0.882467 -0.811885 -0.404982 -1.416341 0.091569 0.204578 1.164662 1.298257 0.543318 1.373374 0.938533 1.215288 0.932253 1.116573 0.428752 0.863163 0.065850 0.104105 -0.039144 0.183713 0.567286 -0.161493 -0.013391 -0.196009 0.053066 0.022490 0.708884 -0.717355 0.371165 0.384031 1.021166 0.998922 0.925477 1.410248 1.466360 2.412252 1.711400 2.798249 1.571579 2.208606 1.479786 1.358395 1.835986 1.536734 2.128520 1.441635 2.248320 1.912888 2.468861 2.428923 3.072026 3.042382 1.353321 1.949460 0.999186 2.266488 1.558890 0.588860 0.999990 1.023066 2.375329 1.467370 0.853307 0.400999 0.565378 0.555586 0.341046 -0.137827 -0.009165 -0.107625 -0.114752 -0.188190 0.873378 1.561993 1.451262 1.068828 1.036607 0.856478 1.324098 1.069173 1.040023 1.260511 0.617916 0.643945 -0.192471 0.552686 0.549359 0.892453 0.875255 0.448547 0.981298 1.164683 1.658594 1.852238 1.803011 1.645444 1.924566 2.470280 2.160028 1.933583 1.793900 1.601923 1.845894 1.448193 1.482427 0.270129 0.821222 1.100712 1.138289 2.327922 0.936356 2.064298 2.054962 2.675081 3.157084 3.137278 3.383573 2.673596 2.747312 2.715763 2.311547 2.616034 2.483952 2.764947 1.823901 1.458366 1.593586 1.979720 2.336240 2.679895 2.219714 1.584620 2.541458 2.704228 3.104248 3.373423 2.662917 3.294065 3.223030 2.779089 3.221810 2.775758 3.453026 2.703823 2.835174 2.379116 2.616076 2.542199 2.402942 1.346900 1.955409 0.967752 1.632761 1.484228 0.514110 0.675561 0.512504 1.532589 1.278813 1.601437 1.924877 1.860769 3.121307 2.855279 3.396235 2.558018 3.520494 2.632336 2.840227 2.874751 1.892262 2.564318 1.600807 2.179562 2.371952 2.274559 2.029079 1.496388 1.394216 2.223263 2.009928 2.504517 1.087742 0.893747 0.640457 0.758011 1.608596 0.797418 -0.278620 0.065441 -0.193642 0.452253 0.395592 0.682017 0.895145 1.027037 1.459718 0.664849 1.025437 1.209421 1.737138 0.440083 0.832188 1.038379 0.958439 0.773530 0.544133 0.581158 1.595881 1.718370 1.270567 0.207220 0.099342 0.613403 1.215771 1.253184 0.658943 1.164088 0.385716 0.559453 0.732464 1.285612 1.178597 -0.196230 -0.205961 -1.376378 -0.407756 0.412547 0.143101 -0.254154 -1.016108 -0.301295 0.087075 0.577184 0.247671 -0.648467 -1.224656 -0.638723 -0.587632 -0.217838 -0.481311 -0.519779 0.004101 -0.423391 -0.370022 0.385861 0.916046 0.666389 0.635710 1.388513 1.188097 1.283705 0.953968 0.074187 0.417997 0.325416 0.595683 -0.782935 -1.068533 -0.969991 -0.456783 0.016573 -0.228106 0.340217 0.189236 0.648933 0.438202 0.928831 0.934309 1.405632 1.127801 0.675335 0.842195 1.118862 1.003467 0.381204 0.659323 0.798215 1.289030 1.145036 0.401114 0.657519 0.500944 0.340751 1.011132 0.586060 0.456618 1.016903 0.367367 1.250901 0.907389 1.395447 1.521646 -0.053399 0.833161 0.035845 1.226988 1.307499 0.650620 0.215844 0.601980 1.289378 1.120169 1.464147 0.213874 0.301391 -0.208039 0.135681 0.032424 -0.942515 -1.524153 -2.043694 -1.428088 -1.090584 -1.409002 -2.176352 -2.830071 -2.465101 -1.777531 -1.862342 -1.849245 -1.755699 -1.822374 -1.270843 -0.499211 -0.879427 -0.338718 -0.547578 -0.366315 -0.856266 -0.746747 -1.153380 -1.958331 -0.662698 -0.614170 -0.365369 -0.622013 -0.493704 0.070046 0.482722 0.283753 0.686071 0.159875 0.490042 0.469049 -0.244816 0.048380 -0.108275 0.577410 -0.194660 -0.285298 -0.819221 -0.283528 -0.216165 0.427810 0.099762 -0.442361 0.102659 -0.355664 0.646135 0.397182 0.890268 1.084716 -0.051491 0.711074 -0.327587 0.257283 0.532089 0.073224 -0.112892 -0.995392 -0.258038 0.128796 0.169349 0.572806 0.262396 0.077106 0.474429 0.729546 0.539483 0.679855 0.216824 0.590094 0.994404 1.136972 1.229086 0.789406 1.106698 1.050992 0.863258 0.443909 0.565892 0.995897 0.906185 -0.103153 -0.472236 -0.348223 -0.065276 -0.280445 0.085367 -0.508924 -0.290623 -0.644222 -0.011382 1.077344 1.269814 1.974607 1.066580 0.759042 0.773960 0.416083 1.231673 0.672864 -0.027104 -0.629891 -0.421384 0.421804 0.512965 1.275478 0.576367 0.485234 -0.074519 -0.232835 -0.300901 -0.316114 -1.124944 -1.296444 -1.050235 0.433665 -0.484304 -0.549052 -0.366153 0.456538 0.497404 0.605752 0.323454 0.501483 1.462129 0.956593 1.225008 0.375037 1.075011 0.350597 0.140557 -0.708279 -0.631970 -0.800181 -1.114407 -1.067190 -0.981310 -0.094041 -0.139392 -0.114114 -0.030635 -0.214666 0.141556 -0.040060 -0.237206 -0.380876 -0.596841 -0.820596 -1.087693 -0.600533 -0.734671 -0.450296 -0.920681 -0.625726 -1.212888 -1.494170 -0.689533 -0.364869 -0.006225 -0.486803 -0.338916 -0.862538 -0.623274 -0.227563 -0.838407 -1.905354 -2.323889 -3.243521 -2.342608 -3.020733 -1.981393 -2.906367 -2.013127 -2.288474 -2.158196 -1.917748 -2.831870 -2.427193 -3.426206 -2.608662 -3.061128 -2.996436 -2.948583 -2.616897 -1.748253 -2.262816 -2.746250 -3.231597 -2.211061 -1.803560 -2.240429 -2.993291 -4.033858 -3.529533 -3.422789 -2.734590 -3.575226 -3.011317 -3.832668 -3.545937 -2.946279 -2.263039 -1.212438 -2.295282 -1.660460 -2.556642 -1.602708 -1.931265 -2.699638 -3.226932 -3.666362 -2.801288 -3.419639 -3.547261 -3.925157 -3.445710 -2.871151 -2.249087 -2.326226 -2.483657 -2.111132 -1.675142 -1.306969 -0.659535 -1.594827 -1.198412 -1.220519 -1.446631 -1.016364 -0.107586 0.209204 -0.827011 -1.408680 -0.652216 -0.075087 0.285781 -0.474429 -1.739729 -1.620147 -1.627149 -1.517179 -1.112453 -1.466941 -1.134433 -1.013103 -0.431778 -0.167802 0.145899 -0.267089 -0.329106 -0.054103 -0.443262 0.324194 0.740459 0.404874 -0.625252 -0.570598 0.439865 0.734761 1.399229 0.231061 -0.639975 -0.243561 -0.080864 0.583745 -0.051032 0.164097 -0.418060 -0.307662 -0.260669 -0.286844 -0.680813 -0.331121 -0.209858 -0.810718 -0.566757 -1.051098 -0.631024 -1.315798 -0.440203 -0.243571 -0.354136 -0.324908 -1.728879 -0.974017 -0.826238 0.144550 0.035971 -0.593657 -0.990942 -0.824658 0.251760 0.320456 0.514294 0.321503 -0.551121 -0.086420 -0.052533 -0.322643 -0.475681 0.049775 -0.157494 -0.320990 0.770119 0.071770 0.386693 0.580458 1.072232 0.708384 1.221843 1.329347 1.245842 0.528492 0.950860 1.175491 1.024306 0.877554 1.439154 0.342651 0.894059 0.847802 1.010738 1.588208 1.998444 2.001799 1.339803 1.333146 1.784788 2.350358 2.691080 2.926590 1.676129 2.238725 2.763931 3.896052 3.055058 3.453248 1.991671 1.903309 1.948768 1.693260 2.345676 1.597941 2.047718 0.769865 1.667964 1.763671 1.345900 1.971711 1.227895 2.308726 1.843911 2.503181 1.683743 1.865866 2.298848 2.786579 3.978318 2.708732 3.784308 3.376841 4.169243 4.621754 4.220710 4.670587 4.281719 5.230174 4.677946 3.679081 3.893721 3.848917 4.464833 3.586258 3.764526 2.746825 2.513696 3.485466 2.961997 2.721328 1.356428 2.484192 2.088998 2.770775 3.040811 2.804019 2.638668 2.565104 2.946825 1.821502 2.862827 3.060651 3.332786 2.589161 2.141245 1.885515 2.345392 2.604171 2.759098 1.903238 2.385608 1.542527 1.768726 1.161670 1.470214 2.134227 2.650052 1.647735 1.455842 1.447136 1.414347 1.905109 1.418148 2.469479 2.329947 2.545599 1.857501 1.552687 2.250712 2.044502 2.828479 2.076221 2.756948 2.087751 2.243096 2.370748 2.731418 3.214529 3.848591 2.944754 2.169507 1.661152 2.160896 2.450252 2.689517 1.890774 1.312773 1.741822 2.354966 2.695386 1.921561 1.902959 1.234905 1.417706 1.441495 0.870999 1.204854 1.384188 1.656647 1.790820 1.624967 1.925519 2.092036 3.112123 2.456462 2.246225 1.625898 2.185300 2.532363 2.446485 2.829198 2.024001 1.701869 1.520640 1.929258 2.314110 2.018372 1.894562 1.475356 2.131570 2.285971 2.854716 2.581893 2.926843 2.684262 2.481280 2.726357 1.779019 2.631618 1.898263 2.632194 2.080643 2.247353 2.179912 1.964729 2.494993 2.963058 2.704263 2.921576 2.838855 2.451980 2.364773 2.248930 2.564000 2.917024 3.076340 2.437707 2.270428 3.461694 4.466390 4.638300 3.850708 2.952923 2.999744 2.991553 2.690182 2.527553 1.738270 1.825949 2.316538 2.555485 2.535112 2.526051 2.147001 2.003325 1.263597 0.378344 -0.856034 -1.009617 -1.218342 -1.702915 -2.403918 -2.932275 -1.837796 -1.514045 -1.132655 -1.817648 -2.160318 -1.365817 -1.259534 -1.346119 -2.260050 -2.256779 -1.943885 -1.648342 -2.054137 -1.797732 -1.997183 -1.560789 -1.352016 -1.116102 -1.312656 -1.758305 -1.920695 -2.568844 -1.941948 -2.322522 -2.287273 -1.876417 -1.742094 -1.346685 -0.707421 -0.932512 -0.806476 -1.418075 -1.303042 -1.894610 -1.811585 -2.106688 -3.075915 -3.387320 -3.426067 -2.791860 -2.769486 -3.158375 -3.662948 -3.892257 -3.444445 -2.956484 -3.072945 -3.853512 -4.298323 -3.856229 -3.963301 -3.503377 -3.734451 -3.760789 -4.324658 -3.805470 -3.504280 -2.900516 -3.076005 -3.321518 -3.309564 -3.318296 -3.103715 -3.641066 -3.703751 -3.928840 -4.641322 -5.273016 -5.718484 -5.217529 -5.580567 -5.598734 -6.015969 -5.642850 -4.786932 -4.653181 -4.353068 -4.658246 -4.896947 -5.258408 -4.461495 -4.919237 -4.996233 -5.714223 -5.883288 -7.066086 -6.104649 -6.169577 -6.732425 -6.340394 -6.761494 -5.962505 -5.934548 -5.498468 -6.015734 -5.203925 -4.508951 -4.809747 -4.868022 -4.556013 -5.055867 -5.176313 -4.709778 -5.246237 -4.939024 -5.076190 -4.456030 -4.577118 -4.074336 -3.579488 -3.770818 -3.153809 -3.043134 -2.509138 -3.016902 -2.938266 -3.371060 -3.749183 -3.989058 -3.427621 -3.709463 -2.765084 -3.189945 -2.772849 -2.631338 -2.193847 -1.950381 -2.305136 -1.280910 -2.472989 -2.772692 -2.256014 -2.045255 -1.909978 -1.979957 -2.160743 -1.113570 -0.239569 -0.080572 -0.982770 -0.881146 -1.106595 -1.177814 -0.748476 -0.598761 -0.943584 -0.549771 -0.268557 0.085280 0.863805 1.682713 1.513104 1.416383 1.661175 2.698112 2.562485 2.935374 2.133250 2.340477 2.564965 3.189329 3.186882 2.988055 3.311475 3.012123 3.730496 3.451402 3.539782 3.255912 3.774643 3.693574 3.378498 2.181625 1.659626 1.997353 2.078296 2.389268 1.182450 1.543427 1.780610 1.526094 1.318574 0.315613 0.855030 1.073880 1.430984 1.024230 0.876096 2.476463 2.874853 3.329241 3.057240 1.999322 1.454746 1.358563 1.430885 2.046152 1.447940 0.629269 0.631564 1.215616 1.690143 2.425162 2.279960 1.739658 1.436492 1.741702 2.527052 2.366869 3.401035 2.478670 3.660100 3.637279 4.140750 4.000825 3.443961 2.397673 2.489584 2.098537 2.524348 2.595116 2.770644 2.587274 2.912077 3.557034 3.707101 4.238768 3.903739 3.621465 3.828236 4.086911 3.193651 2.475217 2.515551 2.523617 2.538650 1.752555 0.713407 0.634024 1.519282 1.541289 1.554516 0.887772 1.153102 0.840333 1.453417 0.755267 -0.265109 -0.920152 -1.708586 -2.051175 -1.823256 -2.266008 -2.926260 -3.184616 -3.283571 -3.205932 -2.393974 -2.806546 -3.470309 -3.793879 -3.141066 -2.916614 -2.747058 -2.426940 -2.519085 -2.584336 -2.081390 -2.390834 -2.460375 -2.447319 -2.469523 -2.396298 -2.635372 -2.338883 -2.021850 -1.674200 -1.968909 -1.744664 -1.841715 -1.713535 -1.030543 -0.692099 -0.092583 -0.259566 0.040145 0.479316 0.911190 0.627278 0.245017 0.153550 -0.128466 -0.039844 -0.230350 -0.289815 0.345093 1.562424 2.182654 2.062766 1.807173 2.921769 2.213890 2.186691 1.143164 1.525485 1.094136 1.211342 0.031724 0.185906 0.945319 1.776791 1.726156 1.724613 2.272821 2.936770 3.078186 2.876023 2.632307 3.265238 2.829057 3.253342 1.644351 1.891522 1.418507 2.160457 1.319272 1.012535 0.686559 1.453301 1.701708 1.732137 1.799246 1.736258 1.306209 2.223783 2.101471 2.753775 3.077892 3.260301 3.141014 3.019740 2.196031 2.724061 2.387746 1.916636 1.591188 0.574843 -0.281065 -0.762609 -0.747472 -0.458890 -0.958707 -0.828148 -0.367382 0.054964 0.646737 0.252871 0.647654 1.426893 1.685244 1.219998 0.062896 0.431000 0.470983 0.459939 -0.377260 -0.783112 -0.480473 0.194738 0.522422 -0.678728 -0.772825 -0.775080 0.313394 -0.491465 -1.225823 -1.918287 -2.191894 -1.563330 -1.122524 -1.672236 -1.551594 -1.308374 -1.150936 -0.568628 -0.539820 -0.742736 -0.651408 -0.432272 -1.106776 -1.961268 -1.479206 -1.127331 -1.447186 -1.283907 -1.516801 -1.264726 -1.247280 -0.195237 -1.125591 -1.015857 -1.425055 -0.949432 -1.290589 -1.464575 -1.956443 -2.258507 -2.319026 -2.238329 -1.565463 -1.974148 -2.002930 -2.930266 -2.319562 -1.928310 -1.691951 -2.124191 -2.366796 -2.354111 -1.874953 -1.916134 -1.511691 -1.581037 -1.070743 -0.917851 -0.391818 0.050894 -0.357047 0.216447 -0.412746 -0.370822 -0.901206 -0.159361 0.185686 -0.239093 -0.104765 -1.192157 0.018437 -0.018848 0.686387 0.589276 0.230222 -0.352132 -0.021795 0.586260 1.301722 0.957647 1.071893 0.316750 0.140383 1.187184 0.638095 0.992746 0.474528 0.923891 0.904835 1.486593 2.330292 2.311189 2.136062 1.683013 2.060867 2.161844 2.438996 2.063986 2.386227 1.226655 1.618172 1.153427 2.181510 2.475032 2.050155 1.461578 0.634204 1.892964 1.600346 2.401058 2.338160 1.989165 1.828125 2.540684 3.695585 3.639533 3.193835 3.021537 1.959753 2.695968 2.197908 2.242594 1.999337 2.190306 2.088784 0.790688 1.005395 1.059427 1.521212 1.436372 0.213580 0.561531 0.241036 1.073631 0.908239 1.023776 1.243822 1.157061 1.218632 1.232988 1.582206 2.888167 2.944059 2.666188 2.927918 3.330413 2.866571 2.856080 2.767937 1.820216 1.330323 1.197367 1.006779 0.730534 1.232281 1.907125 1.680011 1.700446 0.573621 0.720164 2.099338 2.858688 1.775209 1.072827 0.608021 1.050054 1.750699 1.587857 1.540897 0.665302 0.774813 0.309623 0.496443 0.357114 0.902227 0.388861 -0.218586 0.257775 0.360232 0.506986 -0.145015 0.259742 -0.310668 -0.043851 -0.683037 -1.370531 -1.065969 -0.751909 -0.954730 -1.305687 -1.570737 -0.434565 -0.162930 0.527994 0.096003 0.021702 0.631034 0.576849 0.620864 0.014753 -0.642141 -0.465088 -0.401427 -0.372229 -0.572241 -1.007934 -0.570672 -0.595913 -0.004027 -0.905533 -1.133732 -1.191343 -1.248757 -0.326623 -1.275393 -0.873129 -1.017889 -0.696157 -1.165408 -1.648857 -1.889554 -1.551639 -1.639640 -1.450637 -2.089664 -1.944781 -2.418291 -1.529747 -1.047938 -1.983296 -2.267977 -2.641960 -1.873599 -1.926319 -1.166385 -2.263294 -2.180727 -1.585845 -1.321198 -0.898765 -1.407524 -1.483948 -1.852035 -1.788590 -1.804178 -1.269902 -0.918889 -0.809246 -1.004262 -0.604853 -0.156650 -0.879401 -0.789319 -1.113704 -0.549121 -0.624451 -0.614458 -0.677374 -0.645700 0.272333 1.165648 1.231409 0.804050 1.325030 1.345044 1.589937 2.050487 2.208390 1.327405 0.660372 0.610012 0.167010 0.442415 0.358085 0.504546 -0.055097 0.172865 0.244825 1.389917 1.983012 1.754094 1.457033 1.452625 1.423815 1.677771 1.659866 1.830006 1.375887 0.949749 1.493247 2.211798 3.007481 2.036850 1.375886 1.171349 1.044638 1.966344 1.255909 0.855755 0.443120 0.690576 1.643982 1.524113 1.319016 0.490153 0.724136 0.858420 0.776734 0.789335 0.128475 0.462092 0.269810 0.559496 0.456531 0.586547 0.503308 0.678157 0.187531 0.453488 0.213300 0.757016 0.798617 1.105479 0.352232 0.584021 -0.001466 -0.222061 -0.184234 -0.529285 -0.806562 -0.931848 -0.793489 -0.226641 0.068661 -0.155592 -0.745102 -0.223193 -0.067955 0.594310 0.421759 0.201296 0.050440 0.484273 0.785951 0.813884 0.848412 0.095962 -0.080337 -0.493583 -0.189140 -0.656744 -1.263974 -1.722120 -1.823002 -1.967242 -1.867834 -1.975184 -1.112512 -1.347067 -1.576437 -1.884997 -1.572362 -1.287188 -1.508890 -1.955773 -1.871676 -1.334426 -0.738681 -1.116503 -1.260106 -0.996152 -0.572993 -0.580405 -1.559451 -1.847021 -1.921710 -1.704763 -2.388507 -2.516857 -2.271879 -2.257493 -1.629330 -1.277118 -0.689835 -0.949483 -0.625581 -0.693943 -1.153298 -0.882818 -0.613914 -0.798552 -0.821075 -0.841560 -0.604762 -0.471929 0.427955 0.886929 0.931826 0.972948 0.472645 0.300168 0.358886 0.982624 1.172366 0.921952 0.199780 0.602292 1.341925 1.515529 0.583720 0.721348 0.906278 0.727680 -0.112350 -0.631876 -1.019450 -0.913853 -0.749459 -1.392005 -1.913351 -2.151408 -1.551817 -0.891530 -0.343873 0.067743 -0.267041 0.018607 0.303114 0.255865 -0.260317 -0.578829 -1.511951 -1.433559 -1.218859 -0.667910 -0.777082 -1.067864 -1.298236 -0.977734 -0.218444 -0.093165 0.038201 -0.416550 -1.047944 -0.909619 -0.566151 -0.628908 -0.889311 -1.623622 -1.663605 -1.487398 -1.097222 -0.181285 -0.231272 -0.494496 -1.193710 -0.926040 -0.822444 -1.148327 -1.597696 -2.407021 -2.617361 -2.770789 -2.040555 -1.468564 -1.483136 -1.207010 -0.776442 -0.503672 -0.533088 -0.651606 -0.554057 -0.227109 -1.149735 -0.637245 -0.428669 -0.146967 -0.443434 -0.885645 -0.579244 -0.904752 0.249709 -0.392396 -0.903286 -1.097939 -0.981036 -0.684167 -0.254896 0.306916 -0.204995 -0.372442 -0.040314 0.516987 1.065311 0.514026 -0.703205 -0.498979 -0.415441 -0.298703 -0.983050 -1.710719 -2.101833 -1.963794 -1.635871 -1.205167 -1.164047 -0.952900 -1.311551 -0.985820 -0.826279 -0.953964 -0.882861 -0.802585 -0.219400 0.071564 0.436671 0.746102 1.169856 2.324368 2.241105 2.600537 1.771225 1.853945 1.264160 1.411128 1.512024 2.014044 1.404438 1.014630 1.565187 1.386998 0.885378 0.167911 -0.445813 -0.233425 0.106502 -0.387163 -0.541188 0.503999 0.989087 1.596851 1.407038 1.615904 1.442447 2.295930 2.007847 1.842796 2.236726 2.147971 2.140242 1.847909 2.467292 2.164045 1.412034 1.058148 1.412688 1.433489 1.760375 1.602856 1.572580 1.703317 1.919832 1.713182 1.310966 1.391456 0.329693 -0.351869 -1.009004 -1.690696 -2.254634 -3.025134 -3.314848 -3.900778 -3.372570 -3.491903 -3.233989 -2.881572 -2.965521 -1.952654 -1.777353 -1.149223 -1.097070 -0.440471 -0.746649 -0.943343 -0.514499 -0.251531 -0.336376 -0.664157 -0.749491 -0.980390 -0.757167 -0.677369 -0.750333 -0.778915 -1.411784 -1.037517 -0.601149 -0.338100 -0.631107 -0.710160 -0.352377 -0.383768 -0.184010 -0.540543 -0.925110 -1.308570 -1.631692 -1.131799 -1.134682 -1.261499 -1.455501 -0.811602 -0.805846 0.345023 0.908307 1.031612 0.583242 0.385399 0.855962 0.532659 0.987073 0.323224 0.312821 0.236490 0.121300 0.452568 0.415845 0.156693 -0.188354 0.140007 0.369962 0.171427 0.007691 -0.477242 -0.287225 -0.000326 0.176292 0.648909 0.821195 0.741565 0.265434 0.787143 1.274107 1.848592 1.416462 0.852139 0.400106 0.400283 1.030507 0.999720 0.499380 0.411303 0.573074 0.541577 0.386745 0.729943 0.272273 0.431268 1.035342 1.117220 0.864712 0.104304 0.053828 0.037663 0.417696 -0.108394 -0.696729 -1.457912 -1.187132 -1.441559 -0.775553 -0.792264 -0.513108 -1.340061 -1.339564 -1.046456 0.267092 0.003479 -0.559067 -1.638847 -1.206738 -1.040720 -0.667948 -1.253637 -1.636813 -1.881069 -2.321229 -2.317795 -2.062359 -1.656609 -2.072089 -2.393635 -2.032730 -1.063240 -0.893194 -1.580166 -1.746659 -2.219645 -1.797139 -1.565806 -1.148934 -1.329618 -1.672612 -1.235252 -0.937012 -0.547746 -1.008076 -1.127036 -1.310324 -1.553161 -2.047557 -2.011725 -2.036436 -1.243457 -1.499840 -1.695792 -1.747839 -1.968542 -1.332998 -1.300695 -1.247574 -1.707238 -2.265635 -2.163318 -1.710941 -1.072910 -1.528927 -1.774313 -1.309816 -0.475147 -0.196920 -0.385050 -1.114766 -0.385260 -0.359427 -0.308749 -0.398917 -0.933179 -0.494476 0.131904 0.984939 0.397179 0.111302 0.797992 1.400773 1.640981 0.759914 0.947586 0.856259 0.600881 0.559749 0.794883 0.650554 0.347017 0.962769 0.799570 0.872436 0.681042 1.304438 1.544607 1.479910 1.517499 1.241661 1.665453 1.932175 1.875791 1.717153 1.402269 1.662256 1.627800 2.029510 2.157517 1.765478 1.043548 1.353092 1.576922 1.602233 1.692705 1.621336 1.632993 1.811704 2.198837 2.448138 2.719336 2.733516 2.638368 2.817111 2.586307 1.880920 2.051364 1.936259 2.219153 1.663467 2.034454 1.681520 1.485140 1.475672 1.919733 2.246116 1.482350 0.813361 0.834724 1.424415 2.217914 2.182096 2.155941 1.796956 2.360994 2.440209 2.589138 3.076380 1.956289 1.404315 0.889750 1.425529 1.391963 1.363577 2.207577 1.753634 1.821964 1.344797 1.478046 2.095891 2.104507 2.206471 1.512222 1.623450 1.282878 1.534524 2.313314 3.117085 2.607098 1.999396 1.617229 1.657416 2.190994 2.182346 1.683067 0.817594 0.951284 0.777444 0.544072 0.205405 0.355769 0.611269 0.541762 -0.022696 -0.416151 -1.009831 -1.163197 -1.606883 -0.672060 -0.696224 -0.527413 -0.941702 -0.796459 0.102539 0.770398 0.858223 0.218928 -0.123643 -0.465598 -0.437014 -0.235831 -0.461166 -0.743053 -0.888485 -0.929472 -1.194425 -1.562354 -1.441857 -1.358106 -0.858832 -1.243529 -1.612318 -1.261107 -0.842861 -0.551426 -0.793091 -1.025014 -0.999325 -0.582656 -0.627793 -1.147631 -1.329301 -1.506954 -1.167644 -1.031912 -1.362201 -2.391365 -2.017852 -2.032832 -1.741918 -2.408925 -2.599319 -2.936824 -2.987482 -2.780068 -2.446330 -2.256633 -2.360432 -2.298475 -2.069040 -1.796832 -1.461362 -1.716966 -2.356815 -2.475366 -2.787784 -2.944522 -3.402750 -3.934967 -4.195129 -4.742471 -4.037717 -3.796347 -3.590599 -3.601969 -3.408395 -2.733791 -2.641870 -2.360173 -2.659700 -2.177020 -1.654286 -2.361365 -2.814454 -2.223445 -0.774386 -0.484964 -0.859178 -1.707632 -1.830312 -1.447070 -1.774430 -2.147923 -2.710033 -3.088420 -3.357761 -2.974584 -2.780561 -2.532475 -2.591459 -2.727608 -3.049907 -2.769006 -2.603182 -2.940558 -3.591874 -4.208086 -3.996232 -3.927182 -4.095167 -4.589762 -4.851181 -4.305868 -3.788601 -3.282784 -3.108991 -2.539411 -2.712539 -2.581709 -2.019292 -1.863348 -1.594657 -1.960606 -2.567003 -3.001359 -3.023561 -2.726062 -3.046141 -2.720130 -2.742173 -2.744555 -2.268501 -1.343229 -0.049195 0.098499 0.128287 0.241878 0.229356 0.476539 0.631041 1.007536 1.060972 1.428881 1.794540 1.649151 2.778247 3.314118 4.125768 4.215277 4.090476 4.673703 4.968058 5.178335 4.742739 4.963706 5.743180 5.938708 5.780921 5.159857 5.032555 5.604468 5.209955 5.287094 4.401607 4.784783 5.269528 4.889762 4.185835 3.477932 3.874956 3.792204 2.900826 1.869242 2.029377 2.979622 3.055777 3.213880 3.239452 4.025039 3.800495 4.411296 4.202318 4.005706 3.311703 2.510566 2.795055 1.908068 2.158377 1.380859 1.562257 1.756455 2.195324 1.431095 0.646872 0.919669 1.308060 1.479893 0.380047 0.334739 -0.270644 0.279949 0.757788 0.974135 0.873891 0.952612 1.445566 -0.012552 -0.425947 -1.035076 -0.467675 -0.991201 -2.276657 -3.376941 -3.582131 -2.914497 -2.813779 -2.780633 -3.446047 -3.407113 -3.134977 -2.858870 -2.785835 -2.395058 -2.057873 -1.770301 -2.029593 -1.827742 -1.476938 -2.042500 -2.205383 -1.478972 -0.866954 -1.484718 -1.537496 -1.399258 -0.778937 -0.759317 -0.785078 -1.341237 -0.971129 -0.988804 -1.675755 -1.870365 -1.564780 -1.143000 -1.397979 -1.231316 -1.577148 -1.313724 -0.972003 -0.873612 -1.196888 -1.523226 -1.212964 -1.223955 -1.542722 -1.344322 -0.559577 0.273751 0.137896 0.311594 0.234228 0.555346 0.647264 0.467801 0.440115 0.029305 -0.362641 -0.590414 -0.160065 -0.340510 -0.160932 0.085353 0.471371 0.329670 -0.293624 -0.082911 0.360066 0.774233 0.106534 -0.687639 -0.710874 0.050241 0.666834 0.412954 -0.640480 -0.970504 -0.471263 -0.000895 -0.396800 -0.726853 -0.664832 -0.327910 0.036153 -0.190665 -0.488287 -0.233762 -0.077450 0.132221 -0.101191 -0.536972 -0.585249 -0.312326 -0.247867 -0.412590 -0.257957 -0.206950 -0.753623 -1.046638 -0.812636 -0.236730 -0.342984 -1.145802 -1.428402 -1.018831 -0.525261 -0.335827 -0.597196 -0.793000 -0.855875 -0.302989 -0.199420 -0.510156 -1.125339 -1.225361 -0.663041 -0.584867 -0.426069 -1.097580 -1.653050 -1.274172 -0.945492 -0.741331 -0.863028 -0.784660 -0.542191 -0.520925 0.494571 0.002610 0.026528 -0.653512 -0.228643 0.113485 -0.333098 -1.287311 -2.145497 -1.344911 -0.555908 -0.371341 -0.472635 -0.649272 -0.714869 -0.196637 0.547969 0.535561 0.417785 0.433180 0.187767 0.125238 0.777985 0.394737 -0.367679 -0.230042 0.353983 0.668418 0.904266 0.785249 0.804181 1.454717 1.195173 1.351132 0.954804 1.531671 0.819127 0.738914 0.478064 0.216605 0.688475 0.863103 1.136583 0.086817 0.215072 0.618598 0.600162 0.409795 0.639411 1.131718 0.113477 0.210595 0.945695 1.033049 1.201705 0.652074 0.734280 0.585250 1.683326 1.223240 0.286536 0.139936 -0.055353 0.314347 0.040261 0.071994 0.280190 0.678438 0.831948 0.745512 1.121835 0.856658 0.169319 -0.254927 -0.128012 -0.445574 -0.698787 -1.278535 -1.616789 -0.777728 -0.159663 -0.153144 -0.337355 -0.408158 -0.864169 -0.892846 -0.809704 -1.185447 -1.268942 -0.439099 -0.425579 -0.310039 -0.891287 -1.168717 -1.282979 -0.882328 -1.190059 -1.843509 -1.565379 -1.027705 -1.046211 -1.307081 -1.106814 -0.816280 -0.465587 -0.107391 -0.115716 -0.614739 -0.485418 -0.001346 -0.081257 -0.484133 -0.072121 0.520477 1.088234 0.682453 0.850560 0.541107 0.860307 1.156930 0.920753 1.073133 0.620629 0.674839 0.392812 0.522824 0.445697 0.468429 1.283725 1.778199 1.790055 2.154790 2.200136 1.912480 2.389538 1.832246 1.592978 1.813971 1.997364 1.665390 1.257643 1.133539 0.929945 0.912494 0.788203 1.037766 0.904194 1.358013 1.258047 1.565493 1.459604 1.766281 1.961127 1.426824 1.335009 1.096518 1.288486 1.319472 0.661801 0.674774 0.999749 0.557133 0.083460 0.403806 1.127766 0.957695 0.328832 0.291286 0.948582 1.624474 2.069354 1.930273 2.066673 2.118016 2.165939 1.635589 2.143602 1.826286 1.577532 0.959111 1.045672 0.672300 1.094854 1.465227 1.396710 1.286898 1.690169 2.334278 2.916432 3.387843 2.496586 2.674453 2.880870 3.879572 3.828200 3.638454 3.098549 2.817630 3.110355 3.262661 2.970344 2.645405 2.401472 2.624509 1.966842 2.125976 1.207253 1.782790 2.099035 1.678339 1.930649 1.893408 2.569469 2.240282 2.260581 1.884686 2.118759 2.253635 1.987730 2.065392 1.504497 1.510460 1.805870 1.873501 2.053997 1.558880 0.955887 0.545477 0.999671 1.061891 0.445492 0.465445 0.670789 0.204959 -0.066331 0.539952 0.706409 0.542113 0.476740 0.556552 0.841941 0.956633 1.299947 0.493961 1.045310 0.830389 0.794937 0.723957 0.390148 -0.380932 -1.343872 -0.575190 -0.176704 -0.170627 -0.776714 -1.586853 -0.905905 0.357797 0.650398 -0.251198 -1.026499 -0.801834 -0.463776 0.506970 -0.323730 -1.206744 -1.904215 -1.023434 -0.280216 -0.982706 -1.358640 -1.892948 -1.616731 -1.715101 -1.618736 -1.526998 -1.778379 -1.488091 -1.960355 -1.679310 -0.872399 -0.674523 -0.803510 -0.397729 0.536095 -0.008493 -0.189501 -0.442249 0.307125 -0.054321 0.003642 -0.153292 -0.993293 -0.809285 -1.139296 -0.623114 -0.837950 -0.871677 -0.550486 -0.568689 0.395425 0.517089 0.299278 0.490660 