1.47269795640389822289 1.47269795640389822289 3.05640710427328432530 -3.27842948720425786391 -0.11101119146548717176 -1.69472033933487264967 1.47269795640389822289 4.64011625214267020567 1.47269795640389822289 -0.11101119146548717176 -0.11101119146548717176 1.47269795640389822289 3.05640710427328432530 3.05640710427328432530 3.05640710427328432530 1.47269795640389822289 1.47269795640389822289 -1.69472033933487264967 3.05640710427328432530 -1.69472033933487264967 3.05640710427328432530 9.39124369575082695860 4.64011625214267020567 4.64011625214267020567 7.80753454788144107823 7.80753454788144107823 4.64011625214267020567 4.64011625214267020567 12.55866199148959694298 7.80753454788144107823 10.97495284362021195079 12.55866199148959694298 10.97495284362021195079 9.39124369575082695860 12.55866199148959694298 12.55866199148959694298 10.97495284362021195079 14.14237113935898371153 14.14237113935898371153 18.89349858296714046446 10.97495284362021195079 12.55866199148959694298 10.97495284362021195079 15.72608028722837048008 10.97495284362021195079 10.97495284362021195079 10.97495284362021195079 15.72608028722837048008 10.97495284362021195079 17.30978943509775191956 7.80753454788144107823 12.55866199148959694298 10.97495284362021195079 6.22382540001205430968 9.39124369575082695860 10.97495284362021195079 9.39124369575082695860 4.64011625214267020567 3.05640710427328432530 7.80753454788144107823 1.47269795640389822289 9.39124369575082695860 3.05640710427328432530 10.97495284362021195079 9.39124369575082695860 7.80753454788144107823 15.72608028722837048008 9.39124369575082695860 6.22382540001205430968 4.64011625214267020567 4.64011625214267020567 10.97495284362021195079 10.97495284362021195079 7.80753454788144107823 3.05640710427328432530 6.22382540001205430968 10.97495284362021195079 4.64011625214267020567 -1.69472033933487264967 6.22382540001205430968 7.80753454788144107823 4.64011625214267020567 4.64011625214267020567 4.64011625214267020567 6.22382540001205430968 6.22382540001205430968 6.22382540001205430968 6.22382540001205430968 3.05640710427328432530 1.47269795640389822289 6.22382540001205430968 1.47269795640389822289 1.47269795640389822289 6.22382540001205430968 4.64011625214267020567 1.47269795640389822289 3.05640710427328432530 4.64011625214267020567 3.05640710427328432530 6.22382540001205430968 1.47269795640389822289 1.47269795640389822289 -0.11101119146548717176 6.22382540001205430968 6.22382540001205430968 6.22382540001205430968 -0.11101119146548717176 -0.11101119146548717176 1.47269795640389822289 3.05640710427328432530 3.05640710427328432530 1.47269795640389822289 3.05640710427328432530 -0.11101119146548717176 1.47269795640389822289 1.47269795640389822289 -1.69472033933487264967 -1.69472033933487264967 3.05640710427328432530 -0.11101119146548717176 7.80753454788144107823 -0.11101119146548717176 6.22382540001205430968 4.64011625214267020567 -0.11101119146548717176 3.05640710427328432530 -0.11101119146548717176 6.22382540001205430968 4.64011625214267020567 4.64011625214267020567 1.47269795640389822289 -0.11101119146548717176 -0.11101119146548717176 4.64011625214267020567 1.47269795640389822289 6.22382540001205430968 6.22382540001205430968 1.47269795640389822289 6.22382540001205430968 1.47269795640389822289 -0.11101119146548717176 1.47269795640389822289 4.64011625214267020567 7.80753454788144107823 1.47269795640389822289 3.05640710427328432530 3.05640710427328432530 4.64011625214267020567 1.47269795640389822289 3.05640710427328432530 1.47269795640389822289 6.22382540001205430968 3.05640710427328432530 -3.27842948720425786391 6.22382540001205430968 1.47269795640389822289 -1.69472033933487264967 3.05640710427328432530 6.22382540001205430968 1.47269795640389822289 4.64011625214267020567 10.97495284362021195079 6.22382540001205430968 9.39124369575082695860 3.05640710427328432530 1.47269795640389822289 7.80753454788144107823 3.05640710427328432530 3.05640710427328432530 6.22382540001205430968 6.22382540001205430968 1.47269795640389822289 4.64011625214267020567 3.05640710427328432530 7.80753454788144107823 4.64011625214267020567 1.47269795640389822289 3.05640710427328432530 3.05640710427328432530 4.64011625214267020567 7.80753454788144107823 3.05640710427328432530 4.64011625214267020567 4.64011625214267020567 6.22382540001205430968 1.47269795640389822289 1.47269795640389822289 3.05640710427328432530 4.64011625214267020567 4.64011625214267020567 -0.11101119146548717176 -0.11101119146548717176 1.47269795640389822289 -0.11101119146548717176 4.64011625214267020567 4.64011625214267020567 9.39124369575082695860 1.47269795640389822289 1.47269795640389822289 1.47269795640389822289 -1.69472033933487264967 6.22382540001205430968 3.05640710427328432530 7.80753454788144107823 6.22382540001205430968 -1.69472033933487264967 1.47269795640389822289 3.05640710427328432530 6.22382540001205430968 -1.69472033933487264967 1.47269795640389822289 1.47269795640389822289 1.47269795640389822289 -3.27842948720425786391 1.47269795640389822289 -1.69472033933487264967 1.47269795640389822289 -0.11101119146548717176 -0.11101119146548717176 -1.69472033933487264967 -0.11101119146548717176 -0.11101119146548717176 -0.11101119146548717176 3.05640710427328432530 -3.27842948720425786391 1.47269795640389822289 1.47269795640389822289 -0.11101119146548717176 4.64011625214267020567 -3.27842948720425786391 -0.11101119146548717176 -3.27842948720425786391 -3.27842948720425786391 -0.11101119146548717176 3.05640710427328432530 -0.11101119146548717176 1.47269795640389822289 -1.69472033933487264967 -0.11101119146548717176 -0.11101119146548717176 -0.11101119146548717176 -0.11101119146548717176 -1.69472033933487264967 1.47269795640389822289 6.22382540001205430968 -0.11101119146548717176 -1.69472033933487264967 1.47269795640389822289 -0.11101119146548717176 -0.11101119146548717176 -1.69472033933487264967 3.05640710427328432530 3.05640710427328432530 -0.11101119146548717176 1.47269795640389822289 3.05640710427328432530 -0.11101119146548717176 1.47269795640389822289 -1.69472033933487264967 -0.11101119146548717176 1.47269795640389822289 -0.11101119146548717176 1.47269795640389822289 -1.69472033933487264967 -1.69472033933487264967 3.05640710427328432530 1.47269795640389822289 -3.27842948720425786391 -0.11101119146548717176 1.47269795640389822289 3.05640710427328432530 6.22382540001205430968 6.22382540001205430968 7.80753454788144107823 4.64011625214267020567 1.47269795640389822289 1.47269795640389822289 3.05640710427328432530 3.05640710427328432530 1.47269795640389822289 1.47269795640389822289 -0.11101119146548717176 -0.11101119146548717176 -0.11101119146548717176 -1.69472033933487264967 -0.11101119146548717176 3.05640710427328432530 -1.69472033933487264967 3.05640710427328432530 1.47269795640389822289 -0.11101119146548717176 -0.11101119146548717176 -1.69472033933487264967 1.47269795640389822289 -0.11101119146548717176 1.47269795640389822289 1.47269795640389822289 1.47269795640389822289 -0.11101119146548717176 -1.69472033933487264967 -3.27842948720425786391 1.47269795640389822289 1.47269795640389822289 -1.69472033933487264967 1.47269795640389822289 -0.11101119146548717176 1.47269795640389822289 -4.86213863507364330019 4.64011625214267020567 -0.11101119146548717176 1.47269795640389822289 -0.11101119146548717176 -1.69472033933487264967 3.05640710427328432530 4.64011625214267020567 4.64011625214267020567 3.05640710427328432530 4.64011625214267020567 3.05640710427328432530 -0.11101119146548717176 1.47269795640389822289 3.05640710427328432530 3.05640710427328432530 4.64011625214267020567 6.22382540001205430968 4.64011625214267020567 4.64011625214267020567 3.05640710427328432530 1.47269795640389822289 1.47269795640389822289 1.47269795640389822289 -0.11101119146548717176 -0.11101119146548717176 3.05640710427328432530 -0.11101119146548717176 -1.69472033933487264967 6.22382540001205430968 -0.11101119146548717176 3.05640710427328432530 -0.11101119146548717176 3.05640710427328432530 1.47269795640389822289 -0.11101119146548717176 -4.86213863507364330019 -0.11101119146548717176 -1.69472033933487264967 -1.69472033933487264967 3.05640710427328432530 1.47269795640389822289 -4.86213863507364330019 -8.02955693081241683728 -1.69472033933487264967 1.47269795640389822289 -4.86213863507364330019 -3.27842948720425786391 -4.86213863507364330019 -6.44584778294302918056 -6.44584778294302918056 -3.27842948720425786391 -6.44584778294302918056 -3.27842948720425786391 -0.11101119146548717176 -4.86213863507364330019 -4.86213863507364330019 -1.69472033933487264967 -3.27842948720425786391 -8.02955693081241683728 -1.69472033933487264967 -4.86213863507364330019 -4.86213863507364330019 -6.44584778294302918056 -0.11101119146548717176 -1.69472033933487264967 -4.86213863507364330019 -4.86213863507364330019 -3.27842948720425786391 -3.27842948720425786391 -6.44584778294302918056 -3.27842948720425786391 -6.44584778294302918056 -0.11101119146548717176 -0.11101119146548717176 -1.69472033933487264967 1.47269795640389822289 -0.11101119146548717176 -6.44584778294302918056 -6.44584778294302918056 -6.44584778294302918056 -3.27842948720425786391 -3.27842948720425786391 -3.27842948720425786391 -0.11101119146548717176 -4.86213863507364330019 -8.02955693081241683728 -9.61326607868180182948 -3.27842948720425786391 -0.11101119146548717176 1.47269795640389822289 -8.02955693081241683728 -6.44584778294302918056 -4.86213863507364330019 -0.11101119146548717176 -4.86213863507364330019 -3.27842948720425786391 1.47269795640389822289 3.05640710427328432530 -3.27842948720425786391 -3.27842948720425786391 -0.11101119146548717176 -0.11101119146548717176 1.47269795640389822289 3.05640710427328432530 -6.44584778294302918056 3.05640710427328432530 -1.69472033933487264967 -1.69472033933487264967 -1.69472033933487264967 -1.69472033933487264967 1.47269795640389822289 1.47269795640389822289 -1.69472033933487264967 -0.11101119146548717176 -0.11101119146548717176 -3.27842948720425786391 -3.27842948720425786391 1.47269795640389822289 4.64011625214267020567 -0.11101119146548717176 -1.69472033933487264967 -1.69472033933487264967 -1.69472033933487264967 3.05640710427328432530 -0.11101119146548717176 4.64011625214267020567 -0.11101119146548717176 6.22382540001205430968 -1.69472033933487264967 1.47269795640389822289 1.47269795640389822289 6.22382540001205430968 -1.69472033933487264967 6.22382540001205430968 3.05640710427328432530 -0.11101119146548717176 -1.69472033933487264967 -3.27842948720425786391 3.05640710427328432530 -0.11101119146548717176 1.47269795640389822289 3.05640710427328432530 -1.69472033933487264967 -1.69472033933487264967 -3.27842948720425786391 -4.86213863507364330019 -0.11101119146548717176 -1.69472033933487264967 -3.27842948720425786391 -4.86213863507364330019 -4.86213863507364330019 -3.27842948720425786391 -4.86213863507364330019 -4.86213863507364330019 -6.44584778294302918056 -4.86213863507364330019 -6.44584778294302918056 -8.02955693081241683728 -4.86213863507364330019 -4.86213863507364330019 -1.69472033933487264967 -0.11101119146548717176 -1.69472033933487264967 -3.27842948720425786391 -1.69472033933487264967 -0.11101119146548717176 -4.86213863507364330019 1.47269795640389822289 -0.11101119146548717176 -3.27842948720425786391 -8.02955693081241683728 -4.86213863507364330019 -6.44584778294302918056 -3.27842948720425786391 -6.44584778294302918056 -3.27842948720425786391 -1.69472033933487264967 -3.27842948720425786391 -1.69472033933487264967 -3.27842948720425786391 -3.27842948720425786391 -1.69472033933487264967 -3.27842948720425786391 -3.27842948720425786391 -4.86213863507364330019 -3.27842948720425786391 -1.69472033933487264967 -0.11101119146548717176 -8.02955693081241683728 -6.44584778294302918056 -3.27842948720425786391 -4.86213863507364330019 -3.27842948720425786391 -1.69472033933487264967 -1.69472033933487264967 -4.86213863507364330019 -3.27842948720425786391 -3.27842948720425786391 -9.61326607868180182948 -3.27842948720425786391 -4.86213863507364330019 -4.86213863507364330019 -3.27842948720425786391 -6.44584778294302918056 -6.44584778294302918056 -6.44584778294302918056 -3.27842948720425786391 -8.02955693081241683728 -4.86213863507364330019 -3.27842948720425786391 -3.27842948720425786391 -8.02955693081241683728 -6.44584778294302918056 1.47269795640389822289 -8.02955693081241683728 -6.44584778294302918056 -4.86213863507364330019 -4.86213863507364330019 -6.44584778294302918056 -1.69472033933487264967 -6.44584778294302918056 -4.86213863507364330019 -3.27842948720425786391 -1.69472033933487264967 -6.44584778294302918056 -0.11101119146548717176 -0.11101119146548717176 -3.27842948720425786391 -1.69472033933487264967 -1.69472033933487264967 -6.44584778294302918056 -6.44584778294302918056 -3.27842948720425786391 -3.27842948720425786391 -3.27842948720425786391 1.47269795640389822289 -6.44584778294302918056 -3.27842948720425786391 -1.69472033933487264967 -4.86213863507364330019 -6.44584778294302918056 -4.86213863507364330019 -0.11101119146548717176 -0.11101119146548717176 -0.11101119146548717176 1.47269795640389822289 3.05640710427328432530 -4.86213863507364330019 -1.69472033933487264967 -1.69472033933487264967 -0.11101119146548717176 -1.69472033933487264967 1.47269795640389822289 -4.86213863507364330019 -0.11101119146548717176 4.64011625214267020567 3.05640710427328432530 -1.69472033933487264967 -3.27842948720425786391 -0.11101119146548717176 -0.11101119146548717176 -0.11101119146548717176 1.47269795640389822289 -3.27842948720425786391 1.47269795640389822289 3.05640710427328432530 -0.11101119146548717176 3.05640710427328432530 3.05640710427328432530 -0.11101119146548717176 -0.11101119146548717176 -0.11101119146548717176 1.47269795640389822289 -1.69472033933487264967 1.47269795640389822289 1.47269795640389822289 4.64011625214267020567 -0.11101119146548717176 -0.11101119146548717176 4.64011625214267020567 1.47269795640389822289 -0.11101119146548717176 -0.11101119146548717176 1.47269795640389822289 -0.11101119146548717176 6.22382540001205430968 3.05640710427328432530 -0.11101119146548717176 3.05640710427328432530 6.22382540001205430968 1.47269795640389822289 3.05640710427328432530 1.47269795640389822289 -0.11101119146548717176 6.22382540001205430968 3.05640710427328432530 4.64011625214267020567 4.64011625214267020567 4.64011625214267020567 4.64011625214267020567 7.80753454788144107823 1.47269795640389822289 7.80753454788144107823 7.80753454788144107823 1.47269795640389822289 3.05640710427328432530 3.05640710427328432530 1.47269795640389822289 6.22382540001205430968 -1.69472033933487264967 4.64011625214267020567 1.47269795640389822289 4.64011625214267020567 -0.11101119146548717176 -1.69472033933487264967 3.05640710427328432530 1.47269795640389822289 -3.27842948720425786391 1.47269795640389822289 -1.69472033933487264967 3.05640710427328432530 3.05640710427328432530 7.80753454788144107823 3.05640710427328432530 -3.27842948720425786391 -1.69472033933487264967 6.22382540001205430968 3.05640710427328432530 -0.11101119146548717176 3.05640710427328432530 1.47269795640389822289 -0.11101119146548717176 -0.11101119146548717176 1.47269795640389822289 4.64011625214267020567 -0.11101119146548717176 4.64011625214267020567 1.47269795640389822289 -0.11101119146548717176 3.05640710427328432530 -1.69472033933487264967 1.47269795640389822289 -0.11101119146548717176 1.47269795640389822289 1.47269795640389822289 -3.27842948720425786391 1.47269795640389822289 3.05640710427328432530 1.47269795640389822289 1.47269795640389822289 -0.11101119146548717176 -1.69472033933487264967 3.05640710427328432530 3.05640710427328432530 3.05640710427328432530 -0.11101119146548717176 -1.69472033933487264967 -1.69472033933487264967 -0.11101119146548717176 -0.11101119146548717176 1.47269795640389822289 -0.11101119146548717176 1.47269795640389822289 1.47269795640389822289 -0.11101119146548717176 -0.11101119146548717176 -3.27842948720425786391 -1.69472033933487264967 -0.11101119146548717176 -0.11101119146548717176 -0.11101119146548717176 -4.86213863507364330019 -3.27842948720425786391 -3.27842948720425786391 -1.69472033933487264967 -3.27842948720425786391 -1.69472033933487264967 -3.27842948720425786391 -0.11101119146548717176 1.47269795640389822289 -0.11101119146548717176 6.22382540001205430968 -0.11101119146548717176 1.47269795640389822289 1.47269795640389822289 -3.27842948720425786391 -0.11101119146548717176 -0.11101119146548717176 1.47269795640389822289 1.47269795640389822289 1.47269795640389822289 1.47269795640389822289 1.47269795640389822289 1.47269795640389822289 -4.86213863507364330019 -0.11101119146548717176 1.47269795640389822289 4.64011625214267020567 1.47269795640389822289 1.47269795640389822289 -1.69472033933487264967 -0.11101119146548717176 1.47269795640389822289 3.05640710427328432530 -1.69472033933487264967 3.05640710427328432530 -3.27842948720425786391 -3.27842948720425786391 -0.11101119146548717176 1.47269795640389822289 1.47269795640389822289 -1.69472033933487264967 -3.27842948720425786391 1.47269795640389822289 3.05640710427328432530 4.64011625214267020567 1.47269795640389822289 -1.69472033933487264967 -0.11101119146548717176 -1.69472033933487264967 -3.27842948720425786391 -0.11101119146548717176 -3.27842948720425786391 -1.69472033933487264967 -0.11101119146548717176 -1.69472033933487264967 -1.69472033933487264967 -3.27842948720425786391 4.64011625214267020567 -0.11101119146548717176 1.47269795640389822289 -1.69472033933487264967 -3.27842948720425786391 1.47269795640389822289 1.47269795640389822289 -1.69472033933487264967 -1.69472033933487264967 3.05640710427328432530 1.47269795640389822289 -0.11101119146548717176 -0.11101119146548717176 1.47269795640389822289 -1.69472033933487264967 -0.11101119146548717176 -3.27842948720425786391 -0.11101119146548717176 -0.11101119146548717176 -0.11101119146548717176 1.47269795640389822289 -4.86213863507364330019 -3.27842948720425786391 -0.11101119146548717176 -3.27842948720425786391 3.05640710427328432530 -1.69472033933487264967 -1.69472033933487264967 -6.44584778294302918056 -4.86213863507364330019 -3.27842948720425786391 -6.44584778294302918056 1.47269795640389822289 1.47269795640389822289 -1.69472033933487264967 -4.86213863507364330019 -6.44584778294302918056 -4.86213863507364330019 -8.02955693081241683728 -8.02955693081241683728 -3.27842948720425786391 -3.27842948720425786391 -3.27842948720425786391 -3.27842948720425786391 -3.27842948720425786391 3.05640710427328432530 -4.86213863507364330019 -11.19697522655118682167 -3.27842948720425786391 -4.86213863507364330019 -3.27842948720425786391 -0.11101119146548717176 -4.86213863507364330019 -3.27842948720425786391 -4.86213863507364330019 -6.44584778294302918056 -3.27842948720425786391 -3.27842948720425786391 -6.44584778294302918056 -4.86213863507364330019 -8.02955693081241683728 -6.44584778294302918056 -8.02955693081241683728 -3.27842948720425786391 -6.44584778294302918056 -4.86213863507364330019 -3.27842948720425786391 -3.27842948720425786391 -6.44584778294302918056 -6.44584778294302918056 -0.11101119146548717176 1.47269795640389822289 -1.69472033933487264967 -4.86213863507364330019 -8.02955693081241683728 -6.44584778294302918056 -6.44584778294302918056 -3.27842948720425786391 1.47269795640389822289 -6.44584778294302918056 -8.02955693081241683728 -4.86213863507364330019 -8.02955693081241683728 -4.86213863507364330019 -1.69472033933487264967 -6.44584778294302918056 -9.61326607868180182948 -3.27842948720425786391 -6.44584778294302918056 -6.44584778294302918056 -1.69472033933487264967 -3.27842948720425786391 -3.27842948720425786391 -3.27842948720425786391 -4.86213863507364330019 -3.27842948720425786391 -3.27842948720425786391 -3.27842948720425786391 -0.11101119146548717176 -3.27842948720425786391 -6.44584778294302918056 -3.27842948720425786391 -4.86213863507364330019 -8.02955693081241683728 -3.27842948720425786391 -8.02955693081241683728 -4.86213863507364330019 -4.86213863507364330019 -8.02955693081241683728 -0.11101119146548717176 -1.69472033933487264967 -1.69472033933487264967 -6.44584778294302918056 -1.69472033933487264967 -3.27842948720425786391 -0.11101119146548717176 -0.11101119146548717176 -1.69472033933487264967 -0.11101119146548717176 -4.86213863507364330019 -3.27842948720425786391 1.47269795640389822289 1.47269795640389822289 -0.11101119146548717176 1.47269795640389822289 -4.86213863507364330019 -4.86213863507364330019 -3.27842948720425786391 -0.11101119146548717176 -0.11101119146548717176 -1.69472033933487264967 -4.86213863507364330019 -3.27842948720425786391 -3.27842948720425786391 -3.27842948720425786391 -3.27842948720425786391 -1.69472033933487264967 3.05640710427328432530 -4.86213863507364330019 -6.44584778294302918056 -3.27842948720425786391 -3.27842948720425786391 -3.27842948720425786391 -0.11101119146548717176 -1.69472033933487264967 -1.69472033933487264967 -3.27842948720425786391 -1.69472033933487264967 -1.69472033933487264967 -0.11101119146548717176 -4.86213863507364330019 -4.86213863507364330019 -4.86213863507364330019 -3.27842948720425786391 -6.44584778294302918056 -0.11101119146548717176 -6.44584778294302918056 -4.86213863507364330019 -4.86213863507364330019 -4.86213863507364330019 -3.27842948720425786391 -3.27842948720425786391 -1.69472033933487264967 -4.86213863507364330019 -3.27842948720425786391 -3.27842948720425786391 -8.02955693081241683728 -3.27842948720425786391 -4.86213863507364330019 -8.02955693081241683728 1.47269795640389822289 -3.27842948720425786391 -8.02955693081241683728 -4.86213863507364330019 -6.44584778294302918056 -4.86213863507364330019 -1.69472033933487264967 -4.86213863507364330019 -6.44584778294302918056 -4.86213863507364330019 -4.86213863507364330019 -4.86213863507364330019 -8.02955693081241683728 -3.27842948720425786391 -8.02955693081241683728 -4.86213863507364330019 -1.69472033933487264967 -6.44584778294302918056 -0.11101119146548717176 -8.02955693081241683728 -6.44584778294302918056 -8.02955693081241683728 -12.78068437442057181386 -8.02955693081241683728 -6.44584778294302918056 -6.44584778294302918056 -8.02955693081241683728 -8.02955693081241683728 -8.02955693081241683728 -4.86213863507364330019 -9.61326607868180182948 -9.61326607868180182948 -4.86213863507364330019 -8.02955693081241683728 -4.86213863507364330019 -6.44584778294302918056 -9.61326607868180182948 -6.44584778294302918056 -4.86213863507364330019 -1.69472033933487264967 -6.44584778294302918056 -9.61326607868180182948 -3.27842948720425786391 -8.02955693081241683728 -4.86213863507364330019 -3.27842948720425786391 -4.86213863507364330019 -6.44584778294302918056 -8.02955693081241683728 -8.02955693081241683728 -6.44584778294302918056 -3.27842948720425786391 -6.44584778294302918056 -4.86213863507364330019 -1.69472033933487264967 -8.02955693081241683728 -6.44584778294302918056 -3.27842948720425786391 -8.02955693081241683728 -11.19697522655118682167 -6.44584778294302918056 -6.44584778294302918056 -9.61326607868180182948 -11.19697522655118682167 -1.69472033933487264967 -4.86213863507364330019 -4.86213863507364330019 -6.44584778294302918056 1.47269795640389822289 -6.44584778294302918056 -8.02955693081241683728 -3.27842948720425786391 -3.27842948720425786391 -0.11101119146548717176 -4.86213863507364330019 -6.44584778294302918056 -0.11101119146548717176 -3.27842948720425786391 -1.69472033933487264967 -3.27842948720425786391 -4.86213863507364330019 -1.69472033933487264967 -0.11101119146548717176 -0.11101119146548717176 -4.86213863507364330019 -9.61326607868180182948 -6.44584778294302918056 -0.11101119146548717176 -1.69472033933487264967 -1.69472033933487264967 -1.69472033933487264967 -0.11101119146548717176 -4.86213863507364330019 -0.11101119146548717176 -4.86213863507364330019 -1.69472033933487264967 1.47269795640389822289 -0.11101119146548717176 -4.86213863507364330019 -4.86213863507364330019 -1.69472033933487264967 -3.27842948720425786391 -1.69472033933487264967 -1.69472033933487264967 -1.69472033933487264967 -3.27842948720425786391 -1.69472033933487264967 -3.27842948720425786391 1.47269795640389822289 -6.44584778294302918056 -3.27842948720425786391 -1.69472033933487264967 -4.86213863507364330019 -3.27842948720425786391 -1.69472033933487264967 -1.69472033933487264967 -4.86213863507364330019 -4.86213863507364330019 -4.86213863507364330019 -6.44584778294302918056 -4.86213863507364330019 -3.27842948720425786391 -4.86213863507364330019 -6.44584778294302918056 -3.27842948720425786391 -3.27842948720425786391 -4.86213863507364330019 -1.69472033933487264967 -4.86213863507364330019 -9.61326607868180182948 -6.44584778294302918056 -1.69472033933487264967 -8.02955693081241683728 -3.27842948720425786391 -6.44584778294302918056 -6.44584778294302918056 -3.27842948720425786391 -3.27842948720425786391 -3.27842948720425786391 -3.27842948720425786391 -0.11101119146548717176 -1.69472033933487264967 -6.44584778294302918056 -4.86213863507364330019 -1.69472033933487264967 -3.27842948720425786391 -1.69472033933487264967 -4.86213863507364330019 -8.02955693081241683728 -3.27842948720425786391 -4.86213863507364330019 -1.69472033933487264967 -1.69472033933487264967 -6.44584778294302918056 -9.61326607868180182948 -1.69472033933487264967 -4.86213863507364330019 -6.44584778294302918056 -1.69472033933487264967 -3.27842948720425786391 -6.44584778294302918056 -1.69472033933487264967 -0.11101119146548717176 -1.69472033933487264967 -0.11101119146548717176 -3.27842948720425786391 -3.27842948720425786391 -6.44584778294302918056 -6.44584778294302918056 -3.27842948720425786391 -4.86213863507364330019 -4.86213863507364330019 -3.27842948720425786391 -8.02955693081241683728 -4.86213863507364330019 -9.61326607868180182948 -4.86213863507364330019 -3.27842948720425786391 -1.69472033933487264967 -6.44584778294302918056 -3.27842948720425786391 -9.61326607868180182948 -6.44584778294302918056 -6.44584778294302918056 -0.11101119146548717176 -4.86213863507364330019 -6.44584778294302918056 -4.86213863507364330019 -1.69472033933487264967 -1.69472033933487264967 -8.02955693081241683728 -3.27842948720425786391 -4.86213863507364330019 -4.86213863507364330019 -6.44584778294302918056 -4.86213863507364330019 -4.86213863507364330019 -8.02955693081241683728 -3.27842948720425786391 -3.27842948720425786391 -1.69472033933487264967 -8.02955693081241683728 -1.69472033933487264967 -1.69472033933487264967 -6.44584778294302918056 -4.86213863507364330019 -3.27842948720425786391 -4.86213863507364330019 -4.86213863507364330019 -1.69472033933487264967 -3.27842948720425786391 -8.02955693081241683728 -1.69472033933487264967 -3.27842948720425786391 -3.27842948720425786391 -3.27842948720425786391 -0.11101119146548717176 -4.86213863507364330019 1.47269795640389822289 -4.86213863507364330019 -0.11101119146548717176 -4.86213863507364330019 -3.27842948720425786391 -0.11101119146548717176 -4.86213863507364330019 -4.86213863507364330019 1.47269795640389822289 -1.69472033933487264967 -3.27842948720425786391 -1.69472033933487264967 -3.27842948720425786391 -1.69472033933487264967 -0.11101119146548717176 -1.69472033933487264967 -0.11101119146548717176 -0.11101119146548717176 -4.86213863507364330019 -3.27842948720425786391 -3.27842948720425786391 -0.11101119146548717176 1.47269795640389822289 -0.11101119146548717176 -3.27842948720425786391 -0.11101119146548717176 -1.69472033933487264967 1.47269795640389822289 -3.27842948720425786391 -0.11101119146548717176 -3.27842948720425786391 -1.69472033933487264967 -1.69472033933487264967 -3.27842948720425786391 -6.44584778294302918056 -3.27842948720425786391 -3.27842948720425786391 -3.27842948720425786391 -3.27842948720425786391 -4.86213863507364330019 -6.44584778294302918056 -0.11101119146548717176 -4.86213863507364330019 -1.69472033933487264967 -0.11101119146548717176 -3.27842948720425786391 -0.11101119146548717176 -1.69472033933487264967 -6.44584778294302918056 -1.69472033933487264967 -0.11101119146548717176 -1.69472033933487264967 -1.69472033933487264967 -8.02955693081241683728 -4.86213863507364330019 -0.11101119146548717176 -3.27842948720425786391 1.47269795640389822289 -1.69472033933487264967 -0.11101119146548717176 -3.27842948720425786391 -6.44584778294302918056 3.05640710427328432530 -0.11101119146548717176 -1.69472033933487264967 -3.27842948720425786391 -3.27842948720425786391 -3.27842948720425786391 -3.27842948720425786391 -6.44584778294302918056 -3.27842948720425786391 -0.11101119146548717176 -0.11101119146548717176 -3.27842948720425786391 -3.27842948720425786391 -3.27842948720425786391 -1.69472033933487264967 -4.86213863507364330019 -1.69472033933487264967 -3.27842948720425786391 -4.86213863507364330019 -3.27842948720425786391 -3.27842948720425786391 -1.69472033933487264967 -3.27842948720425786391 -0.11101119146548717176 -0.11101119146548717176 -3.27842948720425786391 -3.27842948720425786391 -3.27842948720425786391 -4.86213863507364330019 -1.69472033933487264967 -4.86213863507364330019 -3.27842948720425786391 1.47269795640389822289 -3.27842948720425786391 1.47269795640389822289 -1.69472033933487264967 -1.69472033933487264967 -3.27842948720425786391 4.64011625214267020567 1.47269795640389822289 4.64011625214267020567 1.47269795640389822289 -1.69472033933487264967 -3.27842948720425786391 -1.69472033933487264967 -3.27842948720425786391 -3.27842948720425786391 1.47269795640389822289 4.64011625214267020567 -1.69472033933487264967 1.47269795640389822289 4.64011625214267020567 3.05640710427328432530 3.05640710427328432530 -1.69472033933487264967 1.47269795640389822289 -1.69472033933487264967 1.47269795640389822289 4.64011625214267020567 3.05640710427328432530 -0.11101119146548717176 3.05640710427328432530 7.80753454788144107823 4.64011625214267020567 4.64011625214267020567 4.64011625214267020567 9.39124369575082695860 3.05640710427328432530 3.05640710427328432530 1.47269795640389822289 3.05640710427328432530 9.39124369575082695860 3.05640710427328432530 6.22382540001205430968 10.97495284362021195079 7.80753454788144107823 9.39124369575082695860 7.80753454788144107823 4.64011625214267020567 4.64011625214267020567 6.22382540001205430968 6.22382540001205430968 6.22382540001205430968 10.97495284362021195079 10.97495284362021195079 6.22382540001205430968 6.22382540001205430968 4.64011625214267020567 7.80753454788144107823 6.22382540001205430968 7.80753454788144107823 9.39124369575082695860 1.47269795640389822289 3.05640710427328432530 4.64011625214267020567 4.64011625214267020567 6.22382540001205430968 -0.11101119146548717176 4.64011625214267020567 6.22382540001205430968 1.47269795640389822289 1.47269795640389822289 6.22382540001205430968 -0.11101119146548717176 1.47269795640389822289 -1.69472033933487264967 -0.11101119146548717176 1.47269795640389822289 3.05640710427328432530 -1.69472033933487264967 3.05640710427328432530 3.05640710427328432530 -0.11101119146548717176 -0.11101119146548717176 -1.69472033933487264967 1.47269795640389822289 -0.11101119146548717176 -1.69472033933487264967 -0.11101119146548717176 -8.02955693081241683728 -4.86213863507364330019 3.05640710427328432530 -3.27842948720425786391 -3.27842948720425786391 -8.02955693081241683728 -0.11101119146548717176 -3.27842948720425786391 -6.44584778294302918056 -4.86213863507364330019 -3.27842948720425786391 -8.02955693081241683728 -3.27842948720425786391 -4.86213863507364330019 -0.11101119146548717176 -4.86213863507364330019 -4.86213863507364330019 -6.44584778294302918056 -1.69472033933487264967 -8.02955693081241683728 -1.69472033933487264967 -0.11101119146548717176 -4.86213863507364330019 -8.02955693081241683728 -6.44584778294302918056 -4.86213863507364330019 -3.27842948720425786391 -6.44584778294302918056 -3.27842948720425786391 -4.86213863507364330019 -4.86213863507364330019 -6.44584778294302918056 -8.02955693081241683728 -3.27842948720425786391 -4.86213863507364330019 -3.27842948720425786391 -1.69472033933487264967 -3.27842948720425786391 -9.61326607868180182948 -3.27842948720425786391 -3.27842948720425786391 -0.11101119146548717176 -6.44584778294302918056 -1.69472033933487264967 -6.44584778294302918056 -1.69472033933487264967 1.47269795640389822289 -0.11101119146548717176 -4.86213863507364330019 -1.69472033933487264967 1.47269795640389822289 3.05640710427328432530 -1.69472033933487264967 -3.27842948720425786391 1.47269795640389822289 -0.11101119146548717176 -1.69472033933487264967 -0.11101119146548717176 3.05640710427328432530 -6.44584778294302918056 1.47269795640389822289 1.47269795640389822289 -0.11101119146548717176 1.47269795640389822289 -1.69472033933487264967 -0.11101119146548717176 6.22382540001205430968 4.64011625214267020567 -0.11101119146548717176 1.47269795640389822289 -0.11101119146548717176 1.47269795640389822289 1.47269795640389822289 3.05640710427328432530 9.39124369575082695860 1.47269795640389822289 4.64011625214267020567 1.47269795640389822289 -0.11101119146548717176 4.64011625214267020567 6.22382540001205430968 4.64011625214267020567 7.80753454788144107823 4.64011625214267020567 1.47269795640389822289 6.22382540001205430968 6.22382540001205430968 7.80753454788144107823 9.39124369575082695860 4.64011625214267020567 4.64011625214267020567 9.39124369575082695860 6.22382540001205430968 4.64011625214267020567 14.14237113935898371153 10.97495284362021195079 7.80753454788144107823 4.64011625214267020567 6.22382540001205430968 3.05640710427328432530 7.80753454788144107823 14.14237113935898371153 7.80753454788144107823 7.80753454788144107823 9.39124369575082695860 1.47269795640389822289 4.64011625214267020567 3.05640710427328432530 6.22382540001205430968 6.22382540001205430968 6.22382540001205430968 -0.11101119146548717176 7.80753454788144107823 3.05640710427328432530 4.64011625214267020567 1.47269795640389822289 7.80753454788144107823 7.80753454788144107823 3.05640710427328432530 3.05640710427328432530 6.22382540001205430968 4.64011625214267020567 -1.69472033933487264967 3.05640710427328432530 3.05640710427328432530 -0.11101119146548717176 3.05640710427328432530 6.22382540001205430968 4.64011625214267020567 -1.69472033933487264967 3.05640710427328432530 4.64011625214267020567 4.64011625214267020567 6.22382540001205430968 3.05640710427328432530 -0.11101119146548717176 -3.27842948720425786391 3.05640710427328432530 -1.69472033933487264967 4.64011625214267020567 3.05640710427328432530 4.64011625214267020567 4.64011625214267020567 1.47269795640389822289 4.64011625214267020567 1.47269795640389822289 -1.69472033933487264967 1.47269795640389822289 3.05640710427328432530 4.64011625214267020567 1.47269795640389822289 3.05640710427328432530 4.64011625214267020567 -0.11101119146548717176 -3.27842948720425786391 4.64011625214267020567 6.22382540001205430968 3.05640710427328432530 3.05640710427328432530 1.47269795640389822289 -3.27842948720425786391 -0.11101119146548717176 -0.11101119146548717176 3.05640710427328432530 1.47269795640389822289 3.05640710427328432530 4.64011625214267020567 3.05640710427328432530 1.47269795640389822289 -0.11101119146548717176 3.05640710427328432530 -3.27842948720425786391 1.47269795640389822289 4.64011625214267020567 4.64011625214267020567 -0.11101119146548717176 3.05640710427328432530 -1.69472033933487264967 1.47269795640389822289 1.47269795640389822289 1.47269795640389822289 3.05640710427328432530 3.05640710427328432530 -0.11101119146548717176 1.47269795640389822289 -0.11101119146548717176 4.64011625214267020567 4.64011625214267020567 3.05640710427328432530 6.22382540001205430968 -0.11101119146548717176 6.22382540001205430968 6.22382540001205430968 6.22382540001205430968 6.22382540001205430968 3.05640710427328432530 6.22382540001205430968 4.64011625214267020567 1.47269795640389822289 3.05640710427328432530 7.80753454788144107823 1.47269795640389822289 6.22382540001205430968 3.05640710427328432530 3.05640710427328432530 3.05640710427328432530 4.64011625214267020567 4.64011625214267020567 3.05640710427328432530 3.05640710427328432530 4.64011625214267020567 4.64011625214267020567 3.05640710427328432530 7.80753454788144107823 -1.69472033933487264967 6.22382540001205430968 7.80753454788144107823 6.22382540001205430968 4.64011625214267020567 7.80753454788144107823 6.22382540001205430968 6.22382540001205430968 7.80753454788144107823 3.05640710427328432530 10.97495284362021195079 3.05640710427328432530 4.64011625214267020567 4.64011625214267020567 4.64011625214267020567 6.22382540001205430968 7.80753454788144107823 7.80753454788144107823 6.22382540001205430968 9.39124369575082695860 4.64011625214267020567 6.22382540001205430968 6.22382540001205430968 9.39124369575082695860 7.80753454788144107823 -1.69472033933487264967 6.22382540001205430968 4.64011625214267020567 7.80753454788144107823 4.64011625214267020567 1.47269795640389822289 7.80753454788144107823 9.39124369575082695860 7.80753454788144107823 3.05640710427328432530 1.47269795640389822289 1.47269795640389822289 3.05640710427328432530 1.47269795640389822289 4.64011625214267020567 6.22382540001205430968 7.80753454788144107823 4.64011625214267020567 3.05640710427328432530 1.47269795640389822289 7.80753454788144107823 7.80753454788144107823 4.64011625214267020567 4.64011625214267020567 7.80753454788144107823 3.05640710427328432530 4.64011625214267020567 3.05640710427328432530 4.64011625214267020567 7.80753454788144107823 3.05640710427328432530 3.05640710427328432530 3.05640710427328432530 6.22382540001205430968 4.64011625214267020567 6.22382540001205430968 6.22382540001205430968 4.64011625214267020567 6.22382540001205430968 6.22382540001205430968 6.22382540001205430968 7.80753454788144107823 6.22382540001205430968 4.64011625214267020567 7.80753454788144107823 9.39124369575082695860 4.64011625214267020567 4.64011625214267020567 6.22382540001205430968 4.64011625214267020567 6.22382540001205430968 4.64011625214267020567 6.22382540001205430968 1.47269795640389822289 6.22382540001205430968 7.80753454788144107823 6.22382540001205430968 12.55866199148959694298 3.05640710427328432530 7.80753454788144107823 9.39124369575082695860 6.22382540001205430968 7.80753454788144107823 10.97495284362021195079 7.80753454788144107823 6.22382540001205430968 6.22382540001205430968 6.22382540001205430968 4.64011625214267020567 7.80753454788144107823 7.80753454788144107823 10.97495284362021195079 4.64011625214267020567 3.05640710427328432530 6.22382540001205430968 7.80753454788144107823 6.22382540001205430968 10.97495284362021195079 7.80753454788144107823 4.64011625214267020567 10.97495284362021195079 7.80753454788144107823 6.22382540001205430968 10.97495284362021195079 4.64011625214267020567 9.39124369575082695860 10.97495284362021195079 3.05640710427328432530 9.39124369575082695860 9.39124369575082695860 7.80753454788144107823 6.22382540001205430968 7.80753454788144107823 4.64011625214267020567 9.39124369575082695860 6.22382540001205430968 6.22382540001205430968 3.05640710427328432530 9.39124369575082695860 1.47269795640389822289 7.80753454788144107823 7.80753454788144107823 1.47269795640389822289 4.64011625214267020567 7.80753454788144107823 7.80753454788144107823 7.80753454788144107823 7.80753454788144107823 9.39124369575082695860 7.80753454788144107823 10.97495284362021195079 6.22382540001205430968 9.39124369575082695860 4.64011625214267020567 10.97495284362021195079 4.64011625214267020567 7.80753454788144107823 9.39124369575082695860 4.64011625214267020567 7.80753454788144107823 6.22382540001205430968 6.22382540001205430968 10.97495284362021195079 7.80753454788144107823 4.64011625214267020567 6.22382540001205430968 4.64011625214267020567 9.39124369575082695860 7.80753454788144107823 9.39124369575082695860 3.05640710427328432530 4.64011625214267020567 3.05640710427328432530 4.64011625214267020567 9.39124369575082695860 6.22382540001205430968 -0.11101119146548717176 9.39124369575082695860 4.64011625214267020567 4.64011625214267020567 6.22382540001205430968 7.80753454788144107823 7.80753454788144107823 9.39124369575082695860 6.22382540001205430968 3.05640710427328432530 6.22382540001205430968 6.22382540001205430968 7.80753454788144107823 1.47269795640389822289 7.80753454788144107823 10.97495284362021195079 6.22382540001205430968 3.05640710427328432530 6.22382540001205430968 4.64011625214267020567 10.97495284362021195079 7.80753454788144107823 4.64011625214267020567 3.05640710427328432530 4.64011625214267020567 4.64011625214267020567 9.39124369575082695860 7.80753454788144107823 6.22382540001205430968 10.97495284362021195079 3.05640710427328432530 1.47269795640389822289 6.22382540001205430968 7.80753454788144107823 6.22382540001205430968 1.47269795640389822289 4.64011625214267020567 1.47269795640389822289 6.22382540001205430968 9.39124369575082695860 6.22382540001205430968 4.64011625214267020567 3.05640710427328432530 4.64011625214267020567 6.22382540001205430968 6.22382540001205430968 4.64011625214267020567 3.05640710427328432530 1.47269795640389822289 6.22382540001205430968 4.64011625214267020567 6.22382540001205430968 6.22382540001205430968 6.22382540001205430968 7.80753454788144107823 3.05640710427328432530 1.47269795640389822289 9.39124369575082695860 9.39124369575082695860 4.64011625214267020567 7.80753454788144107823 12.55866199148959694298 6.22382540001205430968 4.64011625214267020567 3.05640710427328432530 -0.11101119146548717176 6.22382540001205430968 6.22382540001205430968 7.80753454788144107823 4.64011625214267020567 4.64011625214267020567 4.64011625214267020567 6.22382540001205430968 4.64011625214267020567 4.64011625214267020567 9.39124369575082695860 7.80753454788144107823 7.80753454788144107823 6.22382540001205430968 7.80753454788144107823 6.22382540001205430968 7.80753454788144107823 4.64011625214267020567 4.64011625214267020567 7.80753454788144107823 9.39124369575082695860 6.22382540001205430968 4.64011625214267020567 7.80753454788144107823 7.80753454788144107823 7.80753454788144107823 6.22382540001205430968 3.05640710427328432530 7.80753454788144107823 6.22382540001205430968 3.05640710427328432530 10.97495284362021195079 7.80753454788144107823 4.64011625214267020567 10.97495284362021195079 3.05640710427328432530 7.80753454788144107823 7.80753454788144107823 6.22382540001205430968 9.39124369575082695860 1.47269795640389822289 6.22382540001205430968 6.22382540001205430968 9.39124369575082695860 9.39124369575082695860 6.22382540001205430968 3.05640710427328432530 9.39124369575082695860 7.80753454788144107823 4.64011625214267020567 9.39124369575082695860 3.05640710427328432530 4.64011625214267020567 4.64011625214267020567 4.64011625214267020567 6.22382540001205430968 3.05640710427328432530 -0.11101119146548717176 3.05640710427328432530 6.22382540001205430968 6.22382540001205430968 4.64011625214267020567 1.47269795640389822289 -0.11101119146548717176 3.05640710427328432530 4.64011625214267020567 3.05640710427328432530 6.22382540001205430968 7.80753454788144107823 4.64011625214267020567 6.22382540001205430968 7.80753454788144107823 1.47269795640389822289 6.22382540001205430968 4.64011625214267020567 4.64011625214267020567 4.64011625214267020567 6.22382540001205430968 3.05640710427328432530 1.47269795640389822289 9.39124369575082695860 7.80753454788144107823 6.22382540001205430968 6.22382540001205430968 6.22382540001205430968 7.80753454788144107823 7.80753454788144107823 3.05640710427328432530 9.39124369575082695860 6.22382540001205430968 6.22382540001205430968 7.80753454788144107823 3.05640710427328432530 6.22382540001205430968 7.80753454788144107823 7.80753454788144107823 4.64011625214267020567 6.22382540001205430968 3.05640710427328432530 7.80753454788144107823 6.22382540001205430968 9.39124369575082695860 7.80753454788144107823 4.64011625214267020567 7.80753454788144107823 4.64011625214267020567 7.80753454788144107823 7.80753454788144107823 9.39124369575082695860 10.97495284362021195079 3.05640710427328432530 7.80753454788144107823 3.05640710427328432530 4.64011625214267020567 9.39124369575082695860 6.22382540001205430968 6.22382540001205430968 6.22382540001205430968 7.80753454788144107823 9.39124369575082695860 6.22382540001205430968 7.80753454788144107823 7.80753454788144107823 4.64011625214267020567 7.80753454788144107823 9.39124369575082695860 6.22382540001205430968 9.39124369575082695860 6.22382540001205430968 7.80753454788144107823 10.97495284362021195079 7.80753454788144107823 7.80753454788144107823 7.80753454788144107823 7.80753454788144107823 7.80753454788144107823 6.22382540001205430968 4.64011625214267020567 9.39124369575082695860 10.97495284362021195079 7.80753454788144107823 3.05640710427328432530 4.64011625214267020567 6.22382540001205430968 6.22382540001205430968 4.64011625214267020567 10.97495284362021195079 7.80753454788144107823 7.80753454788144107823 4.64011625214267020567 7.80753454788144107823 12.55866199148959694298 9.39124369575082695860 10.97495284362021195079 7.80753454788144107823 4.64011625214267020567 6.22382540001205430968 3.05640710427328432530 9.39124369575082695860 9.39124369575082695860 4.64011625214267020567 6.22382540001205430968 9.39124369575082695860 9.39124369575082695860 7.80753454788144107823 10.97495284362021195079 6.22382540001205430968 6.22382540001205430968 3.05640710427328432530 3.05640710427328432530 6.22382540001205430968 7.80753454788144107823 3.05640710427328432530 7.80753454788144107823 9.39124369575082695860 14.14237113935898371153 3.05640710427328432530 3.05640710427328432530 7.80753454788144107823 9.39124369575082695860 4.64011625214267020567 9.39124369575082695860 9.39124369575082695860 10.97495284362021195079 12.55866199148959694298 4.64011625214267020567 7.80753454788144107823 4.64011625214267020567 6.22382540001205430968 4.64011625214267020567 6.22382540001205430968 4.64011625214267020567 9.39124369575082695860 6.22382540001205430968 4.64011625214267020567 6.22382540001205430968 6.22382540001205430968 9.39124369575082695860 7.80753454788144107823 6.22382540001205430968 9.39124369575082695860 6.22382540001205430968 6.22382540001205430968 6.22382540001205430968 4.64011625214267020567 6.22382540001205430968 6.22382540001205430968 4.64011625214267020567 6.22382540001205430968 9.39124369575082695860 6.22382540001205430968 7.80753454788144107823 4.64011625214267020567 6.22382540001205430968 3.05640710427328432530 1.47269795640389822289 9.39124369575082695860 10.97495284362021195079 9.39124369575082695860 7.80753454788144107823 7.80753454788144107823 3.05640710427328432530 3.05640710427328432530 4.64011625214267020567 3.05640710427328432530 1.47269795640389822289 4.64011625214267020567 1.47269795640389822289 9.39124369575082695860 3.05640710427328432530 7.80753454788144107823 3.05640710427328432530 6.22382540001205430968 3.05640710427328432530 3.05640710427328432530 4.64011625214267020567 1.47269795640389822289 4.64011625214267020567 1.47269795640389822289 6.22382540001205430968 4.64011625214267020567 3.05640710427328432530 4.64011625214267020567 6.22382540001205430968 7.80753454788144107823 3.05640710427328432530 -0.11101119146548717176 1.47269795640389822289 7.80753454788144107823 6.22382540001205430968 3.05640710427328432530 3.05640710427328432530 -0.11101119146548717176 3.05640710427328432530 1.47269795640389822289 4.64011625214267020567 3.05640710427328432530 7.80753454788144107823 1.47269795640389822289 3.05640710427328432530 6.22382540001205430968 6.22382540001205430968 9.39124369575082695860 1.47269795640389822289 6.22382540001205430968 3.05640710427328432530 4.64011625214267020567 3.05640710427328432530 -0.11101119146548717176 1.47269795640389822289 3.05640710427328432530 6.22382540001205430968 3.05640710427328432530 3.05640710427328432530 3.05640710427328432530 4.64011625214267020567 4.64011625214267020567 6.22382540001205430968 4.64011625214267020567 4.64011625214267020567 6.22382540001205430968 6.22382540001205430968 6.22382540001205430968 9.39124369575082695860 1.47269795640389822289 6.22382540001205430968 6.22382540001205430968 1.47269795640389822289 7.80753454788144107823 12.55866199148959694298 9.39124369575082695860 4.64011625214267020567 1.47269795640389822289 7.80753454788144107823 7.80753454788144107823 4.64011625214267020567 4.64011625214267020567 3.05640710427328432530 6.22382540001205430968 4.64011625214267020567 3.05640710427328432530 9.39124369575082695860 6.22382540001205430968 6.22382540001205430968 7.80753454788144107823 7.80753454788144107823 7.80753454788144107823 7.80753454788144107823 3.05640710427328432530 6.22382540001205430968 7.80753454788144107823 3.05640710427328432530 10.97495284362021195079 12.55866199148959694298 6.22382540001205430968 3.05640710427328432530 4.64011625214267020567 9.39124369575082695860 7.80753454788144107823 9.39124369575082695860 6.22382540001205430968 4.64011625214267020567 7.80753454788144107823 4.64011625214267020567 7.80753454788144107823 6.22382540001205430968 7.80753454788144107823 6.22382540001205430968 6.22382540001205430968 6.22382540001205430968 6.22382540001205430968 3.05640710427328432530 7.80753454788144107823 7.80753454788144107823 3.05640710427328432530 7.80753454788144107823 4.64011625214267020567 6.22382540001205430968 3.05640710427328432530 7.80753454788144107823 9.39124369575082695860 6.22382540001205430968 6.22382540001205430968 -0.11101119146548717176 6.22382540001205430968 6.22382540001205430968 7.80753454788144107823 9.39124369575082695860 6.22382540001205430968 4.64011625214267020567 6.22382540001205430968 7.80753454788144107823 6.22382540001205430968 7.80753454788144107823 7.80753454788144107823 3.05640710427328432530 7.80753454788144107823 6.22382540001205430968 3.05640710427328432530 6.22382540001205430968 9.39124369575082695860 6.22382540001205430968 6.22382540001205430968 12.55866199148959694298 4.64011625214267020567 6.22382540001205430968 7.80753454788144107823 7.80753454788144107823 6.22382540001205430968 9.39124369575082695860 9.39124369575082695860 9.39124369575082695860 3.05640710427328432530 7.80753454788144107823 9.39124369575082695860 4.64011625214267020567 6.22382540001205430968 12.55866199148959694298 3.05640710427328432530 9.39124369575082695860 7.80753454788144107823 6.22382540001205430968 12.55866199148959694298 9.39124369575082695860 7.80753454788144107823 7.80753454788144107823 4.64011625214267020567 9.39124369575082695860 10.97495284362021195079 9.39124369575082695860 14.14237113935898371153 4.64011625214267020567 9.39124369575082695860 12.55866199148959694298 10.97495284362021195079 6.22382540001205430968 12.55866199148959694298 3.05640710427328432530 6.22382540001205430968 7.80753454788144107823 4.64011625214267020567 14.14237113935898371153 7.80753454788144107823 9.39124369575082695860 6.22382540001205430968 7.80753454788144107823 7.80753454788144107823 3.05640710427328432530 9.39124369575082695860 7.80753454788144107823 12.55866199148959694298 9.39124369575082695860 10.97495284362021195079 6.22382540001205430968 6.22382540001205430968 7.80753454788144107823 9.39124369575082695860 15.72608028722837048008 6.22382540001205430968 15.72608028722837048008 12.55866199148959694298 9.39124369575082695860 12.55866199148959694298 6.22382540001205430968 10.97495284362021195079 10.97495284362021195079 12.55866199148959694298 12.55866199148959694298 6.22382540001205430968 10.97495284362021195079 10.97495284362021195079 9.39124369575082695860 6.22382540001205430968 10.97495284362021195079 6.22382540001205430968 6.22382540001205430968 14.14237113935898371153 7.80753454788144107823 7.80753454788144107823 3.05640710427328432530 10.97495284362021195079 7.80753454788144107823 7.80753454788144107823 12.55866199148959694298 10.97495284362021195079 7.80753454788144107823 7.80753454788144107823 7.80753454788144107823 1.47269795640389822289 10.97495284362021195079 10.97495284362021195079 10.97495284362021195079 9.39124369575082695860 6.22382540001205430968 6.22382540001205430968 7.80753454788144107823 4.64011625214267020567 9.39124369575082695860 6.22382540001205430968 10.97495284362021195079 6.22382540001205430968 6.22382540001205430968 4.64011625214267020567 6.22382540001205430968 9.39124369575082695860 10.97495284362021195079 3.05640710427328432530 7.80753454788144107823 7.80753454788144107823 3.05640710427328432530 7.80753454788144107823 4.64011625214267020567 12.55866199148959694298 10.97495284362021195079 6.22382540001205430968 6.22382540001205430968 4.64011625214267020567 6.22382540001205430968 4.64011625214267020567 9.39124369575082695860 7.80753454788144107823 12.55866199148959694298 6.22382540001205430968 6.22382540001205430968 7.80753454788144107823 6.22382540001205430968 7.80753454788144107823 12.55866199148959694298 4.64011625214267020567 4.64011625214267020567 4.64011625214267020567 6.22382540001205430968 7.80753454788144107823 7.80753454788144107823 4.64011625214267020567 6.22382540001205430968 7.80753454788144107823 7.80753454788144107823 7.80753454788144107823 3.05640710427328432530 6.22382540001205430968 3.05640710427328432530 3.05640710427328432530 6.22382540001205430968 3.05640710427328432530 7.80753454788144107823 9.39124369575082695860 6.22382540001205430968 7.80753454788144107823 4.64011625214267020567 4.64011625214267020567 6.22382540001205430968 9.39124369575082695860 4.64011625214267020567 6.22382540001205430968 4.64011625214267020567 7.80753454788144107823 7.80753454788144107823 4.64011625214267020567 9.39124369575082695860 4.64011625214267020567 1.47269795640389822289 4.64011625214267020567 6.22382540001205430968 7.80753454788144107823 6.22382540001205430968 6.22382540001205430968 6.22382540001205430968 7.80753454788144107823 4.64011625214267020567 7.80753454788144107823 6.22382540001205430968 7.80753454788144107823 6.22382540001205430968 4.64011625214267020567 7.80753454788144107823 1.47269795640389822289 7.80753454788144107823 4.64011625214267020567 7.80753454788144107823 6.22382540001205430968 6.22382540001205430968 6.22382540001205430968 4.64011625214267020567 6.22382540001205430968 9.39124369575082695860 4.64011625214267020567 7.80753454788144107823 7.80753454788144107823 3.05640710427328432530 4.64011625214267020567 4.64011625214267020567 6.22382540001205430968 9.39124369575082695860 7.80753454788144107823 4.64011625214267020567 6.22382540001205430968 10.97495284362021195079 10.97495284362021195079 7.80753454788144107823 4.64011625214267020567 3.05640710427328432530 4.64011625214267020567 3.05640710427328432530 3.05640710427328432530 7.80753454788144107823 4.64011625214267020567 6.22382540001205430968 9.39124369575082695860 6.22382540001205430968 4.64011625214267020567 4.64011625214267020567 1.47269795640389822289 3.05640710427328432530 -0.11101119146548717176 -1.69472033933487264967 -1.69472033933487264967 1.47269795640389822289 1.47269795640389822289 -0.11101119146548717176 -1.69472033933487264967 -1.69472033933487264967 4.64011625214267020567 1.47269795640389822289 1.47269795640389822289 -0.11101119146548717176 -1.69472033933487264967 3.05640710427328432530 -0.11101119146548717176 -1.69472033933487264967 -1.69472033933487264967 -0.11101119146548717176 1.47269795640389822289 1.47269795640389822289 -1.69472033933487264967 3.05640710427328432530 -0.11101119146548717176 -0.11101119146548717176 1.47269795640389822289 1.47269795640389822289 -0.11101119146548717176 -1.69472033933487264967 -1.69472033933487264967 -3.27842948720425786391 1.47269795640389822289 -1.69472033933487264967 -0.11101119146548717176 4.64011625214267020567 1.47269795640389822289 1.47269795640389822289 4.64011625214267020567 -1.69472033933487264967 -0.11101119146548717176 -3.27842948720425786391 -1.69472033933487264967 -1.69472033933487264967 -0.11101119146548717176 -0.11101119146548717176 -3.27842948720425786391 -3.27842948720425786391 -1.69472033933487264967 -0.11101119146548717176 -1.69472033933487264967 -3.27842948720425786391 -3.27842948720425786391 -3.27842948720425786391 -1.69472033933487264967 -0.11101119146548717176 -1.69472033933487264967 -4.86213863507364330019 -4.86213863507364330019 -1.69472033933487264967 -4.86213863507364330019 -1.69472033933487264967 -1.69472033933487264967 -1.69472033933487264967 -4.86213863507364330019 -1.69472033933487264967 -1.69472033933487264967 -0.11101119146548717176 -3.27842948720425786391 -3.27842948720425786391 -1.69472033933487264967 -3.27842948720425786391 -3.27842948720425786391 -4.86213863507364330019 -3.27842948720425786391 -3.27842948720425786391 -8.02955693081241683728 -8.02955693081241683728 -6.44584778294302918056 -3.27842948720425786391 -6.44584778294302918056 -4.86213863507364330019 -4.86213863507364330019 -3.27842948720425786391 -1.69472033933487264967 -4.86213863507364330019 -3.27842948720425786391 -4.86213863507364330019 -8.02955693081241683728 -8.02955693081241683728 -1.69472033933487264967 -6.44584778294302918056 -4.86213863507364330019 -6.44584778294302918056 -6.44584778294302918056 -12.78068437442057181386 -4.86213863507364330019 -6.44584778294302918056 -9.61326607868180182948 -3.27842948720425786391 -6.44584778294302918056 -3.27842948720425786391 -4.86213863507364330019 -6.44584778294302918056 -8.02955693081241683728 -3.27842948720425786391 -3.27842948720425786391 -6.44584778294302918056 -4.86213863507364330019 -1.69472033933487264967 -8.02955693081241683728 -8.02955693081241683728 -3.27842948720425786391 -8.02955693081241683728 -4.86213863507364330019 -4.86213863507364330019 -1.69472033933487264967 -3.27842948720425786391 -3.27842948720425786391 -1.69472033933487264967 -4.86213863507364330019 -3.27842948720425786391 -3.27842948720425786391 -1.69472033933487264967 -4.86213863507364330019 -3.27842948720425786391 -4.86213863507364330019 -6.44584778294302918056 -6.44584778294302918056 -1.69472033933487264967 -4.86213863507364330019 1.47269795640389822289 -3.27842948720425786391 -1.69472033933487264967 -1.69472033933487264967 -3.27842948720425786391 -3.27842948720425786391 -4.86213863507364330019 1.47269795640389822289 -6.44584778294302918056 -6.44584778294302918056 1.47269795640389822289 -1.69472033933487264967 -3.27842948720425786391 -1.69472033933487264967 -3.27842948720425786391 3.05640710427328432530 1.47269795640389822289 -1.69472033933487264967 -3.27842948720425786391 -1.69472033933487264967 -4.86213863507364330019 -4.86213863507364330019 -0.11101119146548717176 1.47269795640389822289 -1.69472033933487264967 1.47269795640389822289 1.47269795640389822289 -0.11101119146548717176 1.47269795640389822289 3.05640710427328432530 -0.11101119146548717176 -0.11101119146548717176 1.47269795640389822289 6.22382540001205430968 1.47269795640389822289 3.05640710427328432530 -0.11101119146548717176 1.47269795640389822289 1.47269795640389822289 3.05640710427328432530 3.05640710427328432530 3.05640710427328432530 4.64011625214267020567 1.47269795640389822289 4.64011625214267020567 1.47269795640389822289 1.47269795640389822289 1.47269795640389822289 4.64011625214267020567 3.05640710427328432530 1.47269795640389822289 -3.27842948720425786391 -1.69472033933487264967 1.47269795640389822289 -0.11101119146548717176 3.05640710427328432530 -1.69472033933487264967 3.05640710427328432530 3.05640710427328432530 -3.27842948720425786391 -1.69472033933487264967 -4.86213863507364330019 -0.11101119146548717176 1.47269795640389822289 1.47269795640389822289 1.47269795640389822289 1.47269795640389822289 7.80753454788144107823 3.05640710427328432530 1.47269795640389822289 1.47269795640389822289 -4.86213863507364330019 -4.86213863507364330019 -1.69472033933487264967 -0.11101119146548717176 6.22382540001205430968 1.47269795640389822289 -1.69472033933487264967 1.47269795640389822289 -0.11101119146548717176 -1.69472033933487264967 3.05640710427328432530 1.47269795640389822289 -0.11101119146548717176 -0.11101119146548717176 1.47269795640389822289 4.64011625214267020567 -0.11101119146548717176 6.22382540001205430968 -0.11101119146548717176 6.22382540001205430968 3.05640710427328432530 3.05640710427328432530 3.05640710427328432530 -0.11101119146548717176 -4.86213863507364330019 1.47269795640389822289 -1.69472033933487264967 3.05640710427328432530 4.64011625214267020567 4.64011625214267020567 3.05640710427328432530 3.05640710427328432530 3.05640710427328432530 1.47269795640389822289 3.05640710427328432530 1.47269795640389822289 1.47269795640389822289 4.64011625214267020567 4.64011625214267020567 -1.69472033933487264967 -1.69472033933487264967 1.47269795640389822289 -0.11101119146548717176 -0.11101119146548717176 -1.69472033933487264967 -3.27842948720425786391 -0.11101119146548717176 3.05640710427328432530 -0.11101119146548717176 1.47269795640389822289 -1.69472033933487264967 -0.11101119146548717176 -3.27842948720425786391 -0.11101119146548717176 -3.27842948720425786391 -6.44584778294302918056 -4.86213863507364330019 -6.44584778294302918056 -6.44584778294302918056 -1.69472033933487264967 -4.86213863507364330019 -6.44584778294302918056 -4.86213863507364330019 -6.44584778294302918056 -6.44584778294302918056 -1.69472033933487264967 -6.44584778294302918056 -8.02955693081241683728 -6.44584778294302918056 -3.27842948720425786391 -4.86213863507364330019 -4.86213863507364330019 -1.69472033933487264967 -3.27842948720425786391 -6.44584778294302918056 -3.27842948720425786391 -6.44584778294302918056 -6.44584778294302918056 -4.86213863507364330019 -4.86213863507364330019 -3.27842948720425786391 -4.86213863507364330019 -3.27842948720425786391 -1.69472033933487264967 -3.27842948720425786391 -6.44584778294302918056 -3.27842948720425786391 -4.86213863507364330019 -4.86213863507364330019 -0.11101119146548717176 -0.11101119146548717176 1.47269795640389822289 -1.69472033933487264967 -1.69472033933487264967 -0.11101119146548717176 -1.69472033933487264967 -4.86213863507364330019 -3.27842948720425786391 -1.69472033933487264967 -3.27842948720425786391 -1.69472033933487264967 -1.69472033933487264967 -1.69472033933487264967 1.47269795640389822289 4.64011625214267020567 3.05640710427328432530 -0.11101119146548717176 -1.69472033933487264967 4.64011625214267020567 -4.86213863507364330019 -3.27842948720425786391 -3.27842948720425786391 1.47269795640389822289 -1.69472033933487264967 -0.11101119146548717176 -4.86213863507364330019 -0.11101119146548717176 1.47269795640389822289 1.47269795640389822289 -0.11101119146548717176 1.47269795640389822289 3.05640710427328432530 3.05640710427328432530 -0.11101119146548717176 -0.11101119146548717176 -0.11101119146548717176 3.05640710427328432530 -1.69472033933487264967 3.05640710427328432530 -4.86213863507364330019 -0.11101119146548717176 -1.69472033933487264967 1.47269795640389822289 -3.27842948720425786391 -1.69472033933487264967 -1.69472033933487264967 3.05640710427328432530 -0.11101119146548717176 -0.11101119146548717176 1.47269795640389822289 -0.11101119146548717176 -4.86213863507364330019 3.05640710427328432530 -0.11101119146548717176 3.05640710427328432530 4.64011625214267020567 3.05640710427328432530 1.47269795640389822289 -0.11101119146548717176 -6.44584778294302918056 1.47269795640389822289 -1.69472033933487264967 -3.27842948720425786391 1.47269795640389822289 -3.27842948720425786391 -6.44584778294302918056 -4.86213863507364330019 -4.86213863507364330019 -1.69472033933487264967 -4.86213863507364330019 -1.69472033933487264967 3.05640710427328432530 -0.11101119146548717176 -0.11101119146548717176 -3.27842948720425786391 -1.69472033933487264967 1.47269795640389822289 -1.69472033933487264967 -3.27842948720425786391 -4.86213863507364330019 -0.11101119146548717176 -1.69472033933487264967 -3.27842948720425786391 -4.86213863507364330019 -3.27842948720425786391 -1.69472033933487264967 -0.11101119146548717176 -0.11101119146548717176 -6.44584778294302918056 -3.27842948720425786391 -3.27842948720425786391 -0.11101119146548717176 -6.44584778294302918056 -6.44584778294302918056 -4.86213863507364330019 -6.44584778294302918056 -3.27842948720425786391 -0.11101119146548717176 -4.86213863507364330019 -1.69472033933487264967 -1.69472033933487264967 -4.86213863507364330019 -1.69472033933487264967 -3.27842948720425786391 -4.86213863507364330019 -1.69472033933487264967 -1.69472033933487264967 -6.44584778294302918056 -8.02955693081241683728 -1.69472033933487264967 -1.69472033933487264967 -6.44584778294302918056 -1.69472033933487264967 -1.69472033933487264967 -3.27842948720425786391 -4.86213863507364330019 1.47269795640389822289 -6.44584778294302918056 -4.86213863507364330019 -4.86213863507364330019 -1.69472033933487264967 -4.86213863507364330019 -4.86213863507364330019 -4.86213863507364330019 -4.86213863507364330019 -6.44584778294302918056 -4.86213863507364330019 -0.11101119146548717176 -4.86213863507364330019 -4.86213863507364330019 -8.02955693081241683728 -3.27842948720425786391 -3.27842948720425786391 -4.86213863507364330019 -4.86213863507364330019 -3.27842948720425786391 -4.86213863507364330019 -3.27842948720425786391 -4.86213863507364330019 -1.69472033933487264967 -3.27842948720425786391 -1.69472033933487264967 -1.69472033933487264967 -0.11101119146548717176 -0.11101119146548717176 -4.86213863507364330019 -0.11101119146548717176 -4.86213863507364330019 -4.86213863507364330019 -4.86213863507364330019 1.47269795640389822289 1.47269795640389822289 -3.27842948720425786391 -0.11101119146548717176 -6.44584778294302918056 -0.11101119146548717176 -3.27842948720425786391 -0.11101119146548717176 1.47269795640389822289 -1.69472033933487264967 -4.86213863507364330019 -0.11101119146548717176 -0.11101119146548717176 1.47269795640389822289 -1.69472033933487264967 1.47269795640389822289 -3.27842948720425786391 -4.86213863507364330019 3.05640710427328432530 -3.27842948720425786391 -0.11101119146548717176 -0.11101119146548717176 1.47269795640389822289 -0.11101119146548717176 1.47269795640389822289 4.64011625214267020567 1.47269795640389822289 -1.69472033933487264967 -1.69472033933487264967 1.47269795640389822289 -0.11101119146548717176 1.47269795640389822289 1.47269795640389822289 4.64011625214267020567 -4.86213863507364330019 -0.11101119146548717176 -1.69472033933487264967 3.05640710427328432530 3.05640710427328432530 -0.11101119146548717176 -0.11101119146548717176 -3.27842948720425786391 3.05640710427328432530 -1.69472033933487264967 3.05640710427328432530 4.64011625214267020567 -0.11101119146548717176 -0.11101119146548717176 4.64011625214267020567 6.22382540001205430968 1.47269795640389822289 -0.11101119146548717176 3.05640710427328432530 -4.86213863507364330019 1.47269795640389822289 -0.11101119146548717176 1.47269795640389822289 3.05640710427328432530 3.05640710427328432530 1.47269795640389822289 -6.44584778294302918056 -1.69472033933487264967 -0.11101119146548717176 -0.11101119146548717176 1.47269795640389822289 -3.27842948720425786391 3.05640710427328432530 -1.69472033933487264967 -0.11101119146548717176 -0.11101119146548717176 -0.11101119146548717176 1.47269795640389822289 -0.11101119146548717176 -0.11101119146548717176 1.47269795640389822289 1.47269795640389822289 7.80753454788144107823 3.05640710427328432530 -0.11101119146548717176 4.64011625214267020567 3.05640710427328432530 -3.27842948720425786391 1.47269795640389822289 3.05640710427328432530 -3.27842948720425786391 -1.69472033933487264967 1.47269795640389822289 -0.11101119146548717176 -1.69472033933487264967 3.05640710427328432530 6.22382540001205430968 -0.11101119146548717176 -0.11101119146548717176 -4.86213863507364330019 -1.69472033933487264967 6.22382540001205430968 4.64011625214267020567 -1.69472033933487264967 1.47269795640389822289 -1.69472033933487264967 -1.69472033933487264967 1.47269795640389822289 -0.11101119146548717176 3.05640710427328432530 -1.69472033933487264967 -0.11101119146548717176 -1.69472033933487264967 -1.69472033933487264967 -1.69472033933487264967 3.05640710427328432530 -1.69472033933487264967 -3.27842948720425786391 3.05640710427328432530 -0.11101119146548717176 -1.69472033933487264967 -3.27842948720425786391 1.47269795640389822289 -3.27842948720425786391 -1.69472033933487264967 -3.27842948720425786391 -4.86213863507364330019 -0.11101119146548717176 -0.11101119146548717176 -3.27842948720425786391 -1.69472033933487264967 -3.27842948720425786391 3.05640710427328432530 -0.11101119146548717176 1.47269795640389822289 -0.11101119146548717176 -1.69472033933487264967 1.47269795640389822289 -1.69472033933487264967 -1.69472033933487264967 -1.69472033933487264967 -4.86213863507364330019 -0.11101119146548717176 -0.11101119146548717176 -1.69472033933487264967 -0.11101119146548717176 -3.27842948720425786391 -0.11101119146548717176 -1.69472033933487264967 -0.11101119146548717176 -4.86213863507364330019 -3.27842948720425786391 -1.69472033933487264967 -3.27842948720425786391 3.05640710427328432530 -4.86213863507364330019 -0.11101119146548717176 -0.11101119146548717176 -3.27842948720425786391 -4.86213863507364330019 -4.86213863507364330019 -4.86213863507364330019 -0.11101119146548717176 -3.27842948720425786391 -0.11101119146548717176 -3.27842948720425786391 -3.27842948720425786391 -6.44584778294302918056 -0.11101119146548717176 -0.11101119146548717176 -8.02955693081241683728 -3.27842948720425786391 -3.27842948720425786391 -1.69472033933487264967 -3.27842948720425786391 1.47269795640389822289 -6.44584778294302918056 -3.27842948720425786391 -0.11101119146548717176 -3.27842948720425786391 -0.11101119146548717176 -3.27842948720425786391 -3.27842948720425786391 -3.27842948720425786391 -4.86213863507364330019 -3.27842948720425786391 1.47269795640389822289 -0.11101119146548717176 -0.11101119146548717176 -1.69472033933487264967 -0.11101119146548717176 -0.11101119146548717176 -8.02955693081241683728 -1.69472033933487264967 -1.69472033933487264967 -0.11101119146548717176 -0.11101119146548717176 -0.11101119146548717176 -0.11101119146548717176 -1.69472033933487264967 1.47269795640389822289 4.64011625214267020567 -0.11101119146548717176 -1.69472033933487264967 4.64011625214267020567 -0.11101119146548717176 -0.11101119146548717176 4.64011625214267020567 3.05640710427328432530 -3.27842948720425786391 -3.27842948720425786391 -0.11101119146548717176 -3.27842948720425786391 -0.11101119146548717176 1.47269795640389822289 3.05640710427328432530 -1.69472033933487264967 -0.11101119146548717176 -0.11101119146548717176 4.64011625214267020567 3.05640710427328432530 -0.11101119146548717176 1.47269795640389822289 1.47269795640389822289 -1.69472033933487264967 1.47269795640389822289 1.47269795640389822289 3.05640710427328432530 -0.11101119146548717176 -1.69472033933487264967 4.64011625214267020567 4.64011625214267020567 4.64011625214267020567 -1.69472033933487264967 -1.69472033933487264967 -0.11101119146548717176 -3.27842948720425786391 4.64011625214267020567 -0.11101119146548717176 -0.11101119146548717176 1.47269795640389822289 -0.11101119146548717176 4.64011625214267020567 -0.11101119146548717176 -1.69472033933487264967 -1.69472033933487264967 -0.11101119146548717176 -0.11101119146548717176 -0.11101119146548717176 1.47269795640389822289 -1.69472033933487264967 1.47269795640389822289 -1.69472033933487264967 -0.11101119146548717176 -0.11101119146548717176 -0.11101119146548717176 -0.11101119146548717176 1.47269795640389822289 -3.27842948720425786391 1.47269795640389822289 -1.69472033933487264967 1.47269795640389822289 1.47269795640389822289 1.47269795640389822289 -3.27842948720425786391 1.47269795640389822289 -4.86213863507364330019 -3.27842948720425786391 -0.11101119146548717176 -3.27842948720425786391 -1.69472033933487264967 -0.11101119146548717176 -1.69472033933487264967 3.05640710427328432530 -0.11101119146548717176 -3.27842948720425786391 -3.27842948720425786391 -0.11101119146548717176 -1.69472033933487264967 3.05640710427328432530 -0.11101119146548717176 -0.11101119146548717176 -0.11101119146548717176 -0.11101119146548717176 -0.11101119146548717176 -0.11101119146548717176 -0.11101119146548717176 -3.27842948720425786391 -1.69472033933487264967 -3.27842948720425786391 -0.11101119146548717176 -3.27842948720425786391 -4.86213863507364330019 -3.27842948720425786391 -3.27842948720425786391 -4.86213863507364330019 -1.69472033933487264967 -3.27842948720425786391 3.05640710427328432530 -3.27842948720425786391 -4.86213863507364330019 -3.27842948720425786391 -3.27842948720425786391 -3.27842948720425786391 -3.27842948720425786391 -4.86213863507364330019 -0.11101119146548717176 -0.11101119146548717176 -0.11101119146548717176 -3.27842948720425786391 -3.27842948720425786391 -1.69472033933487264967 -1.69472033933487264967 -3.27842948720425786391 -6.44584778294302918056 -3.27842948720425786391 -3.27842948720425786391 -3.27842948720425786391 -6.44584778294302918056 -3.27842948720425786391 -1.69472033933487264967 -4.86213863507364330019 -0.11101119146548717176 -0.11101119146548717176 -0.11101119146548717176 -3.27842948720425786391 -1.69472033933487264967 -3.27842948720425786391 -6.44584778294302918056 -1.69472033933487264967 -0.11101119146548717176 -3.27842948720425786391 -0.11101119146548717176 -1.69472033933487264967 -1.69472033933487264967 -1.69472033933487264967 1.47269795640389822289 1.47269795640389822289 -0.11101119146548717176 -0.11101119146548717176 -3.27842948720425786391 -3.27842948720425786391 -1.69472033933487264967 1.47269795640389822289 1.47269795640389822289 -0.11101119146548717176 -3.27842948720425786391 1.47269795640389822289 1.47269795640389822289 -1.69472033933487264967 -4.86213863507364330019 1.47269795640389822289 -0.11101119146548717176 -3.27842948720425786391 -4.86213863507364330019 -3.27842948720425786391 -4.86213863507364330019 -3.27842948720425786391 -1.69472033933487264967 -4.86213863507364330019 -4.86213863507364330019 -4.86213863507364330019 -1.69472033933487264967 -0.11101119146548717176 -0.11101119146548717176 1.47269795640389822289 -3.27842948720425786391 -1.69472033933487264967 -1.69472033933487264967 -4.86213863507364330019 -4.86213863507364330019 -3.27842948720425786391 -8.02955693081241683728 -1.69472033933487264967 -1.69472033933487264967 -0.11101119146548717176 -1.69472033933487264967 -4.86213863507364330019 -4.86213863507364330019 -3.27842948720425786391 -1.69472033933487264967 -1.69472033933487264967 -0.11101119146548717176 -3.27842948720425786391 -6.44584778294302918056 -3.27842948720425786391 -3.27842948720425786391 -4.86213863507364330019 -3.27842948720425786391 -6.44584778294302918056 -3.27842948720425786391 -3.27842948720425786391 -3.27842948720425786391 3.05640710427328432530 -3.27842948720425786391 -4.86213863507364330019 -6.44584778294302918056 -4.86213863507364330019 -4.86213863507364330019 -6.44584778294302918056 -4.86213863507364330019 -6.44584778294302918056 -6.44584778294302918056 -6.44584778294302918056 -1.69472033933487264967 -1.69472033933487264967 -4.86213863507364330019 -1.69472033933487264967 -1.69472033933487264967 -4.86213863507364330019 -4.86213863507364330019 -4.86213863507364330019 -3.27842948720425786391 -1.69472033933487264967 -9.61326607868180182948 1.47269795640389822289 -1.69472033933487264967 -4.86213863507364330019 -3.27842948720425786391 -6.44584778294302918056 -3.27842948720425786391 -6.44584778294302918056 1.47269795640389822289 -4.86213863507364330019 -6.44584778294302918056 -3.27842948720425786391 -4.86213863507364330019 -4.86213863507364330019 -0.11101119146548717176 -0.11101119146548717176 -4.86213863507364330019 -3.27842948720425786391 -1.69472033933487264967 -1.69472033933487264967 -0.11101119146548717176 -4.86213863507364330019 -8.02955693081241683728 -0.11101119146548717176 -4.86213863507364330019 -3.27842948720425786391 -3.27842948720425786391 -6.44584778294302918056 -4.86213863507364330019 -3.27842948720425786391 -3.27842948720425786391 1.47269795640389822289 -1.69472033933487264967 -0.11101119146548717176 -3.27842948720425786391 -1.69472033933487264967 -1.69472033933487264967 -3.27842948720425786391 -0.11101119146548717176 1.47269795640389822289 3.05640710427328432530 3.05640710427328432530 3.05640710427328432530 3.05640710427328432530 3.05640710427328432530 7.80753454788144107823 1.47269795640389822289 6.22382540001205430968 -0.11101119146548717176 3.05640710427328432530 -0.11101119146548717176 3.05640710427328432530 4.64011625214267020567 7.80753454788144107823 -0.11101119146548717176 3.05640710427328432530 6.22382540001205430968 -1.69472033933487264967 -1.69472033933487264967 -0.11101119146548717176 -3.27842948720425786391 3.05640710427328432530 3.05640710427328432530 -1.69472033933487264967 3.05640710427328432530 6.22382540001205430968 -0.11101119146548717176 4.64011625214267020567 -0.11101119146548717176 1.47269795640389822289 -0.11101119146548717176 4.64011625214267020567 -0.11101119146548717176 1.47269795640389822289 4.64011625214267020567 -0.11101119146548717176 -0.11101119146548717176 -0.11101119146548717176 3.05640710427328432530 -1.69472033933487264967 -4.86213863507364330019 -0.11101119146548717176 1.47269795640389822289 -3.27842948720425786391 3.05640710427328432530 -0.11101119146548717176 -1.69472033933487264967 -0.11101119146548717176 -1.69472033933487264967 -3.27842948720425786391 -3.27842948720425786391 -1.69472033933487264967 -8.02955693081241683728 -6.44584778294302918056 -6.44584778294302918056 -9.61326607868180182948 -8.02955693081241683728 -9.61326607868180182948 -8.02955693081241683728 -9.61326607868180182948 -4.86213863507364330019 -8.02955693081241683728 -6.44584778294302918056 -4.86213863507364330019 -9.61326607868180182948 -1.69472033933487264967 -6.44584778294302918056 -4.86213863507364330019 -3.27842948720425786391 -3.27842948720425786391 -8.02955693081241683728 -6.44584778294302918056 -3.27842948720425786391 -4.86213863507364330019 -6.44584778294302918056 -4.86213863507364330019 -4.86213863507364330019 -8.02955693081241683728 -4.86213863507364330019 -4.86213863507364330019 -6.44584778294302918056 -4.86213863507364330019 -9.61326607868180182948 -3.27842948720425786391 -3.27842948720425786391 -6.44584778294302918056 -4.86213863507364330019 -4.86213863507364330019 -4.86213863507364330019 -6.44584778294302918056 -4.86213863507364330019 -6.44584778294302918056 -8.02955693081241683728 -8.02955693081241683728 -8.02955693081241683728 -3.27842948720425786391 -6.44584778294302918056 -6.44584778294302918056 -4.86213863507364330019 -3.27842948720425786391 -8.02955693081241683728 1.47269795640389822289 -1.69472033933487264967 -4.86213863507364330019 -4.86213863507364330019 -6.44584778294302918056 -3.27842948720425786391 -8.02955693081241683728 -1.69472033933487264967 -4.86213863507364330019 -4.86213863507364330019 -3.27842948720425786391 -6.44584778294302918056 -3.27842948720425786391 -4.86213863507364330019 -8.02955693081241683728 -4.86213863507364330019 -3.27842948720425786391 -4.86213863507364330019 -4.86213863507364330019 -4.86213863507364330019 -8.02955693081241683728 -4.86213863507364330019 -4.86213863507364330019 -4.86213863507364330019 -0.11101119146548717176 -3.27842948720425786391 -4.86213863507364330019 -6.44584778294302918056 -3.27842948720425786391 -3.27842948720425786391 -1.69472033933487264967 -4.86213863507364330019 -4.86213863507364330019 -6.44584778294302918056 -6.44584778294302918056 -1.69472033933487264967 -4.86213863507364330019 -6.44584778294302918056 -1.69472033933487264967 -4.86213863507364330019 -6.44584778294302918056 -4.86213863507364330019 -3.27842948720425786391 -8.02955693081241683728 -3.27842948720425786391 -0.11101119146548717176 -4.86213863507364330019 -4.86213863507364330019 -8.02955693081241683728 -6.44584778294302918056 -6.44584778294302918056 -4.86213863507364330019 -6.44584778294302918056 -6.44584778294302918056 -9.61326607868180182948 -4.86213863507364330019 -9.61326607868180182948 -3.27842948720425786391 -4.86213863507364330019 -4.86213863507364330019 -9.61326607868180182948 -6.44584778294302918056 -6.44584778294302918056 -0.11101119146548717176 -8.02955693081241683728 -6.44584778294302918056 -9.61326607868180182948 -6.44584778294302918056 -8.02955693081241683728 -4.86213863507364330019 -8.02955693081241683728 -6.44584778294302918056 -8.02955693081241683728 -11.19697522655118682167 -8.02955693081241683728 -6.44584778294302918056 -6.44584778294302918056 -8.02955693081241683728 -8.02955693081241683728 -4.86213863507364330019 -3.27842948720425786391 -8.02955693081241683728 -9.61326607868180182948 -6.44584778294302918056 -12.78068437442057181386 -6.44584778294302918056 -4.86213863507364330019 -4.86213863507364330019 -4.86213863507364330019 -8.02955693081241683728 -4.86213863507364330019 -6.44584778294302918056 -8.02955693081241683728 -8.02955693081241683728 -6.44584778294302918056 -8.02955693081241683728 -8.02955693081241683728 -9.61326607868180182948 -6.44584778294302918056 -8.02955693081241683728 -3.27842948720425786391 -8.02955693081241683728 -8.02955693081241683728 -6.44584778294302918056 -11.19697522655118682167 -4.86213863507364330019 -6.44584778294302918056 -8.02955693081241683728 -6.44584778294302918056 -11.19697522655118682167 -8.02955693081241683728 -4.86213863507364330019 -6.44584778294302918056 -8.02955693081241683728 -6.44584778294302918056 -4.86213863507364330019 -3.27842948720425786391 -6.44584778294302918056 -6.44584778294302918056 -9.61326607868180182948 -3.27842948720425786391 -8.02955693081241683728 -6.44584778294302918056 -3.27842948720425786391 -9.61326607868180182948 -3.27842948720425786391 -1.69472033933487264967 -3.27842948720425786391 -6.44584778294302918056 -6.44584778294302918056 -1.69472033933487264967 -3.27842948720425786391 -4.86213863507364330019 -6.44584778294302918056 -1.69472033933487264967 -6.44584778294302918056 -8.02955693081241683728 -3.27842948720425786391 -3.27842948720425786391 -6.44584778294302918056 -4.86213863507364330019 -0.11101119146548717176 -6.44584778294302918056 -4.86213863507364330019 -4.86213863507364330019 -1.69472033933487264967 -3.27842948720425786391 -4.86213863507364330019 -1.69472033933487264967 -4.86213863507364330019 -3.27842948720425786391 -1.69472033933487264967 -4.86213863507364330019 -3.27842948720425786391 -4.86213863507364330019 -3.27842948720425786391 -3.27842948720425786391 -1.69472033933487264967 -1.69472033933487264967 -4.86213863507364330019 -8.02955693081241683728 -1.69472033933487264967 -4.86213863507364330019 -4.86213863507364330019 -0.11101119146548717176 -3.27842948720425786391 -3.27842948720425786391 -1.69472033933487264967 -3.27842948720425786391 -1.69472033933487264967 -1.69472033933487264967 -3.27842948720425786391 -1.69472033933487264967 -1.69472033933487264967 -4.86213863507364330019 -6.44584778294302918056 -1.69472033933487264967 -4.86213863507364330019 -1.69472033933487264967 -4.86213863507364330019 -0.11101119146548717176 -4.86213863507364330019 -6.44584778294302918056 -3.27842948720425786391 -1.69472033933487264967 -3.27842948720425786391 -6.44584778294302918056 -6.44584778294302918056 -3.27842948720425786391 -3.27842948720425786391 -0.11101119146548717176 -1.69472033933487264967 -1.69472033933487264967 -4.86213863507364330019 -1.69472033933487264967 -4.86213863507364330019 -3.27842948720425786391 1.47269795640389822289 -9.61326607868180182948 -4.86213863507364330019 -4.86213863507364330019 -4.86213863507364330019 -3.27842948720425786391 -3.27842948720425786391 3.05640710427328432530 -4.86213863507364330019 -4.86213863507364330019 -4.86213863507364330019 -6.44584778294302918056 -1.69472033933487264967 -3.27842948720425786391 -1.69472033933487264967 -3.27842948720425786391 -3.27842948720425786391 -6.44584778294302918056 -3.27842948720425786391 -0.11101119146548717176 1.47269795640389822289 -4.86213863507364330019 -3.27842948720425786391 -4.86213863507364330019 -6.44584778294302918056 -1.69472033933487264967 -3.27842948720425786391 -4.86213863507364330019 -4.86213863507364330019 -3.27842948720425786391 -6.44584778294302918056 -6.44584778294302918056 -6.44584778294302918056 -3.27842948720425786391 -3.27842948720425786391 -4.86213863507364330019 -6.44584778294302918056 -6.44584778294302918056 -11.19697522655118682167 -8.02955693081241683728 -9.61326607868180182948 -0.11101119146548717176 -4.86213863507364330019 -3.27842948720425786391 -4.86213863507364330019 -6.44584778294302918056 -3.27842948720425786391 -3.27842948720425786391 -6.44584778294302918056 -4.86213863507364330019 -6.44584778294302918056 -8.02955693081241683728 -4.86213863507364330019 -4.86213863507364330019 -6.44584778294302918056 -4.86213863507364330019 -6.44584778294302918056 -6.44584778294302918056 -8.02955693081241683728 -9.61326607868180182948 -4.86213863507364330019 -6.44584778294302918056 -3.27842948720425786391 -6.44584778294302918056 -8.02955693081241683728 -3.27842948720425786391 -6.44584778294302918056 -6.44584778294302918056 -4.86213863507364330019 -8.02955693081241683728 -4.86213863507364330019 -3.27842948720425786391 -8.02955693081241683728 -6.44584778294302918056 -6.44584778294302918056 -9.61326607868180182948 -3.27842948720425786391 -6.44584778294302918056 -8.02955693081241683728 -9.61326607868180182948 -4.86213863507364330019 -9.61326607868180182948 -4.86213863507364330019 -11.19697522655118682167 -6.44584778294302918056 -9.61326607868180182948 -9.61326607868180182948 -6.44584778294302918056 -4.86213863507364330019 -8.02955693081241683728 -4.86213863507364330019 -8.02955693081241683728 -6.44584778294302918056 -6.44584778294302918056 -6.44584778294302918056 -8.02955693081241683728 -9.61326607868180182948 -8.02955693081241683728 -9.61326607868180182948 -9.61326607868180182948 -9.61326607868180182948 -11.19697522655118682167 -9.61326607868180182948 -12.78068437442057181386 -4.86213863507364330019 -8.02955693081241683728 -8.02955693081241683728 -6.44584778294302918056 -8.02955693081241683728 -6.44584778294302918056 -8.02955693081241683728 -8.02955693081241683728 -8.02955693081241683728 -4.86213863507364330019 -4.86213863507364330019 -11.19697522655118682167 -8.02955693081241683728 -3.27842948720425786391 -1.69472033933487264967 -4.86213863507364330019 -4.86213863507364330019 -9.61326607868180182948 -8.02955693081241683728 -8.02955693081241683728 -11.19697522655118682167 -6.44584778294302918056 -8.02955693081241683728 -9.61326607868180182948 -6.44584778294302918056 -6.44584778294302918056 -8.02955693081241683728 -4.86213863507364330019 -9.61326607868180182948 -8.02955693081241683728 -9.61326607868180182948 -8.02955693081241683728 -6.44584778294302918056 -9.61326607868180182948 -11.19697522655118682167 -9.61326607868180182948 -9.61326607868180182948 -9.61326607868180182948 -9.61326607868180182948 -11.19697522655118682167 -9.61326607868180182948 -6.44584778294302918056 -8.02955693081241683728 -4.86213863507364330019 -6.44584778294302918056 -4.86213863507364330019 -9.61326607868180182948 -8.02955693081241683728 -4.86213863507364330019 -8.02955693081241683728 -4.86213863507364330019 -6.44584778294302918056 -11.19697522655118682167 -8.02955693081241683728 -9.61326607868180182948 -8.02955693081241683728 -8.02955693081241683728 -4.86213863507364330019 -6.44584778294302918056 -6.44584778294302918056 -4.86213863507364330019 -1.69472033933487264967 -0.11101119146548717176 -4.86213863507364330019 -3.27842948720425786391 -3.27842948720425786391 -8.02955693081241683728 -3.27842948720425786391 -3.27842948720425786391 -1.69472033933487264967 -0.11101119146548717176 -0.11101119146548717176 -0.11101119146548717176 -3.27842948720425786391 3.05640710427328432530 -0.11101119146548717176 3.05640710427328432530 1.47269795640389822289 -0.11101119146548717176 4.64011625214267020567 1.47269795640389822289 -0.11101119146548717176 1.47269795640389822289 1.47269795640389822289 6.22382540001205430968 3.05640710427328432530 1.47269795640389822289 1.47269795640389822289 -0.11101119146548717176 3.05640710427328432530 -1.69472033933487264967 3.05640710427328432530 -1.69472033933487264967 4.64011625214267020567 4.64011625214267020567 -1.69472033933487264967 -1.69472033933487264967 -1.69472033933487264967 -1.69472033933487264967 -0.11101119146548717176 -6.44584778294302918056 -3.27842948720425786391 3.05640710427328432530 1.47269795640389822289 -0.11101119146548717176 4.64011625214267020567 -1.69472033933487264967 4.64011625214267020567 -4.86213863507364330019 3.05640710427328432530 -0.11101119146548717176 -1.69472033933487264967 -3.27842948720425786391 -1.69472033933487264967 -1.69472033933487264967 -4.86213863507364330019 -0.11101119146548717176 -4.86213863507364330019 -0.11101119146548717176 -0.11101119146548717176 -0.11101119146548717176 -6.44584778294302918056 -4.86213863507364330019 -3.27842948720425786391 -1.69472033933487264967 -3.27842948720425786391 -6.44584778294302918056 -0.11101119146548717176 -8.02955693081241683728 -1.69472033933487264967 -0.11101119146548717176 -3.27842948720425786391 -1.69472033933487264967 -0.11101119146548717176 -3.27842948720425786391 -11.19697522655118682167 -6.44584778294302918056 -9.61326607868180182948 -1.69472033933487264967 -8.02955693081241683728 -9.61326607868180182948 -8.02955693081241683728 -8.02955693081241683728 -8.02955693081241683728 -4.86213863507364330019 -8.02955693081241683728 -8.02955693081241683728 -6.44584778294302918056 -8.02955693081241683728 -6.44584778294302918056 -6.44584778294302918056 -4.86213863507364330019 -3.27842948720425786391 -4.86213863507364330019 -8.02955693081241683728 -3.27842948720425786391 -6.44584778294302918056 -11.19697522655118682167 -4.86213863507364330019 -1.69472033933487264967 -3.27842948720425786391 -6.44584778294302918056 -3.27842948720425786391 -4.86213863507364330019 -3.27842948720425786391 -8.02955693081241683728 -3.27842948720425786391 -8.02955693081241683728 -1.69472033933487264967 -6.44584778294302918056 -8.02955693081241683728 -4.86213863507364330019 -3.27842948720425786391 -6.44584778294302918056 -3.27842948720425786391 -4.86213863507364330019 -6.44584778294302918056 -3.27842948720425786391 -4.86213863507364330019 -4.86213863507364330019 -4.86213863507364330019 -8.02955693081241683728 -1.69472033933487264967 -6.44584778294302918056 -8.02955693081241683728 -0.11101119146548717176 -1.69472033933487264967 -0.11101119146548717176 -1.69472033933487264967 -3.27842948720425786391 -3.27842948720425786391 -3.27842948720425786391 -6.44584778294302918056 -1.69472033933487264967 -3.27842948720425786391 -4.86213863507364330019 -3.27842948720425786391 -4.86213863507364330019 -1.69472033933487264967 -4.86213863507364330019 -3.27842948720425786391 -0.11101119146548717176 -1.69472033933487264967 -4.86213863507364330019 -4.86213863507364330019 -3.27842948720425786391 -1.69472033933487264967 -1.69472033933487264967 -6.44584778294302918056 -4.86213863507364330019 -3.27842948720425786391 -1.69472033933487264967 -0.11101119146548717176 -3.27842948720425786391 -8.02955693081241683728 -3.27842948720425786391 -4.86213863507364330019 -3.27842948720425786391 -4.86213863507364330019 -3.27842948720425786391 -1.69472033933487264967 -1.69472033933487264967 -3.27842948720425786391 -3.27842948720425786391 -6.44584778294302918056 -1.69472033933487264967 -4.86213863507364330019 -1.69472033933487264967 -3.27842948720425786391 -4.86213863507364330019 -3.27842948720425786391 -1.69472033933487264967 -6.44584778294302918056 -1.69472033933487264967 -3.27842948720425786391 -3.27842948720425786391 -6.44584778294302918056 -4.86213863507364330019 -3.27842948720425786391 -0.11101119146548717176 -6.44584778294302918056 -4.86213863507364330019 -4.86213863507364330019 -3.27842948720425786391 -3.27842948720425786391 -1.69472033933487264967 -4.86213863507364330019 -1.69472033933487264967 -6.44584778294302918056 -0.11101119146548717176 -4.86213863507364330019 -4.86213863507364330019 -6.44584778294302918056 -3.27842948720425786391 -3.27842948720425786391 -1.69472033933487264967 -3.27842948720425786391 -4.86213863507364330019 -8.02955693081241683728 -1.69472033933487264967 -6.44584778294302918056 -1.69472033933487264967 -3.27842948720425786391 -1.69472033933487264967 -1.69472033933487264967 -3.27842948720425786391 1.47269795640389822289 -6.44584778294302918056 -3.27842948720425786391 -6.44584778294302918056 -1.69472033933487264967 -1.69472033933487264967 -4.86213863507364330019 -8.02955693081241683728 -4.86213863507364330019 -3.27842948720425786391 -0.11101119146548717176 -3.27842948720425786391 -0.11101119146548717176 -3.27842948720425786391 -4.86213863507364330019 -1.69472033933487264967 -0.11101119146548717176 -4.86213863507364330019 1.47269795640389822289 -3.27842948720425786391 -3.27842948720425786391 -1.69472033933487264967 -0.11101119146548717176 -6.44584778294302918056 -3.27842948720425786391 -3.27842948720425786391 1.47269795640389822289 -1.69472033933487264967 1.47269795640389822289 -1.69472033933487264967 -0.11101119146548717176 -0.11101119146548717176 -4.86213863507364330019 -0.11101119146548717176 -3.27842948720425786391 1.47269795640389822289 -4.86213863507364330019 -0.11101119146548717176 -3.27842948720425786391 -3.27842948720425786391 -0.11101119146548717176 -0.11101119146548717176 -1.69472033933487264967 -4.86213863507364330019 -1.69472033933487264967 -0.11101119146548717176 -4.86213863507364330019 -1.69472033933487264967 1.47269795640389822289 -0.11101119146548717176 -8.02955693081241683728 1.47269795640389822289 -0.11101119146548717176 -3.27842948720425786391 1.47269795640389822289 -4.86213863507364330019 -0.11101119146548717176 -1.69472033933487264967 1.47269795640389822289 -3.27842948720425786391 -4.86213863507364330019 -3.27842948720425786391 -3.27842948720425786391 -3.27842948720425786391 -1.69472033933487264967 -1.69472033933487264967 1.47269795640389822289 -0.11101119146548717176 -1.69472033933487264967 -1.69472033933487264967 -0.11101119146548717176 -6.44584778294302918056 -4.86213863507364330019 -4.86213863507364330019 -1.69472033933487264967 -4.86213863507364330019 -1.69472033933487264967 -6.44584778294302918056 -3.27842948720425786391 -0.11101119146548717176 -1.69472033933487264967 -3.27842948720425786391 -0.11101119146548717176 -6.44584778294302918056 -4.86213863507364330019 -4.86213863507364330019 -4.86213863507364330019 -4.86213863507364330019 -1.69472033933487264967 1.47269795640389822289 -1.69472033933487264967 -1.69472033933487264967 -6.44584778294302918056 -6.44584778294302918056 -6.44584778294302918056 -3.27842948720425786391 -6.44584778294302918056 -3.27842948720425786391 -0.11101119146548717176 -0.11101119146548717176 -4.86213863507364330019 -3.27842948720425786391 -4.86213863507364330019 -3.27842948720425786391 -3.27842948720425786391 -0.11101119146548717176 -1.69472033933487264967 -3.27842948720425786391 -1.69472033933487264967 -0.11101119146548717176 -6.44584778294302918056 -3.27842948720425786391 -0.11101119146548717176 -0.11101119146548717176 3.05640710427328432530 -3.27842948720425786391 1.47269795640389822289 -3.27842948720425786391 -3.27842948720425786391 -0.11101119146548717176 -3.27842948720425786391 -0.11101119146548717176 -0.11101119146548717176 -3.27842948720425786391 -0.11101119146548717176 -1.69472033933487264967 -4.86213863507364330019 1.47269795640389822289 1.47269795640389822289 1.47269795640389822289 3.05640710427328432530 1.47269795640389822289 -0.11101119146548717176 -1.69472033933487264967 -0.11101119146548717176 -4.86213863507364330019 -0.11101119146548717176 1.47269795640389822289 1.47269795640389822289 -0.11101119146548717176 -0.11101119146548717176 -3.27842948720425786391 -1.69472033933487264967 -4.86213863507364330019 -1.69472033933487264967 1.47269795640389822289 -1.69472033933487264967 4.64011625214267020567 -0.11101119146548717176 -0.11101119146548717176 -0.11101119146548717176 -1.69472033933487264967 -1.69472033933487264967 -1.69472033933487264967 -3.27842948720425786391 1.47269795640389822289 -0.11101119146548717176 -0.11101119146548717176 -3.27842948720425786391 -0.11101119146548717176 -1.69472033933487264967 -4.86213863507364330019 -4.86213863507364330019 3.05640710427328432530 -0.11101119146548717176 -0.11101119146548717176 -3.27842948720425786391 -0.11101119146548717176 -0.11101119146548717176 1.47269795640389822289 -0.11101119146548717176 3.05640710427328432530 -0.11101119146548717176 1.47269795640389822289 -1.69472033933487264967 -3.27842948720425786391 3.05640710427328432530 -3.27842948720425786391 -1.69472033933487264967 -0.11101119146548717176 -1.69472033933487264967 -3.27842948720425786391 4.64011625214267020567 -3.27842948720425786391 3.05640710427328432530 -1.69472033933487264967 1.47269795640389822289 3.05640710427328432530 4.64011625214267020567 -0.11101119146548717176 1.47269795640389822289 -1.69472033933487264967 3.05640710427328432530 4.64011625214267020567 1.47269795640389822289 3.05640710427328432530 1.47269795640389822289 -3.27842948720425786391 4.64011625214267020567 -1.69472033933487264967 -0.11101119146548717176 3.05640710427328432530 -1.69472033933487264967 3.05640710427328432530 -1.69472033933487264967 -1.69472033933487264967 -3.27842948720425786391 3.05640710427328432530 -1.69472033933487264967 1.47269795640389822289 1.47269795640389822289 1.47269795640389822289 3.05640710427328432530 -1.69472033933487264967 -1.69472033933487264967 -0.11101119146548717176 -1.69472033933487264967 1.47269795640389822289 -0.11101119146548717176 1.47269795640389822289 -1.69472033933487264967 -0.11101119146548717176 -0.11101119146548717176 -0.11101119146548717176 -0.11101119146548717176 -1.69472033933487264967 -4.86213863507364330019 -1.69472033933487264967 -0.11101119146548717176 -1.69472033933487264967 -3.27842948720425786391 1.47269795640389822289 -1.69472033933487264967 -4.86213863507364330019 -3.27842948720425786391 1.47269795640389822289 -3.27842948720425786391 -0.11101119146548717176 -1.69472033933487264967 -0.11101119146548717176 -0.11101119146548717176 -1.69472033933487264967 -0.11101119146548717176 -4.86213863507364330019 1.47269795640389822289 -3.27842948720425786391 -1.69472033933487264967 -0.11101119146548717176 -3.27842948720425786391 -8.02955693081241683728 -4.86213863507364330019 -1.69472033933487264967 -0.11101119146548717176 -1.69472033933487264967 -3.27842948720425786391 -6.44584778294302918056 1.47269795640389822289 -0.11101119146548717176 -1.69472033933487264967 -4.86213863507364330019 -4.86213863507364330019 -3.27842948720425786391 -1.69472033933487264967 1.47269795640389822289 -4.86213863507364330019 -4.86213863507364330019 -6.44584778294302918056 -0.11101119146548717176 -1.69472033933487264967 -6.44584778294302918056 -1.69472033933487264967 -4.86213863507364330019 -4.86213863507364330019 -3.27842948720425786391 -4.86213863507364330019 -1.69472033933487264967 -3.27842948720425786391 -3.27842948720425786391 -4.86213863507364330019 -1.69472033933487264967 -0.11101119146548717176 -1.69472033933487264967 -3.27842948720425786391 3.05640710427328432530 1.47269795640389822289 -6.44584778294302918056 -0.11101119146548717176 -4.86213863507364330019 1.47269795640389822289 -3.27842948720425786391 -0.11101119146548717176 -0.11101119146548717176 -4.86213863507364330019 -3.27842948720425786391 -1.69472033933487264967 -3.27842948720425786391 -0.11101119146548717176 -1.69472033933487264967 1.47269795640389822289 -0.11101119146548717176 4.64011625214267020567 -1.69472033933487264967 -0.11101119146548717176 -0.11101119146548717176 -0.11101119146548717176 