-1.88748707847170593688 1.76230490358598657075 -3.71238306950055196864 -3.71238306950055196864 1.76230490358598657075 3.58720089461483304660 -3.71238306950055196864 1.76230490358598657075 -5.53727906052939822246 1.76230490358598657075 -3.71238306950055196864 1.76230490358598657075 1.76230490358598657075 3.58720089461483304660 -3.71238306950055196864 5.41209688564368018859 1.76230490358598657075 -1.88748707847170593688 3.58720089461483304660 7.23699287667252466605 -0.06259108744285951653 -0.06259108744285951653 -1.88748707847170593688 -0.06259108744285951653 -3.71238306950055196864 5.41209688564368018859 -3.71238306950055196864 -5.53727906052939822246 -7.36217505155824536445 -5.53727906052939822246 -7.36217505155824536445 -3.71238306950055196864 -3.71238306950055196864 -3.71238306950055196864 -5.53727906052939822246 -3.71238306950055196864 -1.88748707847170593688 -3.71238306950055196864 -3.71238306950055196864 -7.36217505155824536445 -5.53727906052939822246 -5.53727906052939822246 -1.88748707847170593688 -0.06259108744285951653 -1.88748707847170593688 -3.71238306950055196864 -7.36217505155824536445 -7.36217505155824536445 -5.53727906052939822246 -1.88748707847170593688 -5.53727906052939822246 -5.53727906052939822246 -3.71238306950055196864 -1.88748707847170593688 -1.88748707847170593688 -7.36217505155824536445 -1.88748707847170593688 -0.06259108744285951653 -0.06259108744285951653 -5.53727906052939822246 -1.88748707847170593688 -5.53727906052939822246 -7.36217505155824536445 -7.36217505155824536445 -5.53727906052939822246 -3.71238306950055196864 -3.71238306950055196864 -0.06259108744285951653 -3.71238306950055196864 -5.53727906052939822246 -1.88748707847170593688 -7.36217505155824536445 -7.36217505155824536445 -7.36217505155824536445 -3.71238306950055196864 -5.53727906052939822246 -9.18707104258709250644 -1.88748707847170593688 -11.01196703361593876025 -7.36217505155824536445 -11.01196703361593876025 -9.18707104258709250644 -3.71238306950055196864 -9.18707104258709250644 -7.36217505155824536445 -5.53727906052939822246 -7.36217505155824536445 -5.53727906052939822246 -12.83686302464478501406 -7.36217505155824536445 -14.66175901567362949152 -9.18707104258709250644 -7.36217505155824536445 -11.01196703361593876025 -11.01196703361593876025 -12.83686302464478501406 -11.01196703361593876025 -9.18707104258709250644 -7.36217505155824536445 -9.18707104258709250644 -11.01196703361593876025 -5.53727906052939822246 -9.18707104258709250644 -14.66175901567362949152 -9.18707104258709250644 -9.18707104258709250644 -7.36217505155824536445 -5.53727906052939822246 -5.53727906052939822246 -7.36217505155824536445 -12.83686302464478501406 -5.53727906052939822246 -12.83686302464478501406 -5.53727906052939822246 -7.36217505155824536445 -5.53727906052939822246 -3.71238306950055196864 -3.71238306950055196864 -1.88748707847170593688 -5.53727906052939822246 -3.71238306950055196864 -1.88748707847170593688 -1.88748707847170593688 -3.71238306950055196864 -3.71238306950055196864 -0.06259108744285951653 -1.88748707847170593688 -3.71238306950055196864 -3.71238306950055196864 -1.88748707847170593688 -0.06259108744285951653 -3.71238306950055196864 -0.06259108744285951653 -3.71238306950055196864 -0.06259108744285951653 -1.88748707847170593688 -5.53727906052939822246 5.41209688564368018859 -3.71238306950055196864 1.76230490358598657075 -0.06259108744285951653 -3.71238306950055196864 1.76230490358598657075 5.41209688564368018859 5.41209688564368018859 1.76230490358598657075 -0.06259108744285951653 -3.71238306950055196864 -1.88748707847170593688 5.41209688564368018859 -3.71238306950055196864 -0.06259108744285951653 1.76230490358598657075 3.58720089461483304660 -1.88748707847170593688 -0.06259108744285951653 -1.88748707847170593688 -3.71238306950055196864 -1.88748707847170593688 -0.06259108744285951653 -0.06259108744285951653 -3.71238306950055196864 -1.88748707847170593688 -1.88748707847170593688 -0.06259108744285951653 1.76230490358598657075 -0.06259108744285951653 -3.71238306950055196864 -7.36217505155824536445 -1.88748707847170593688 -3.71238306950055196864 -1.88748707847170593688 -7.36217505155824536445 -3.71238306950055196864 -7.36217505155824536445 -7.36217505155824536445 -7.36217505155824536445 -7.36217505155824536445 -5.53727906052939822246 3.58720089461483304660 -1.88748707847170593688 -1.88748707847170593688 -7.36217505155824536445 -3.71238306950055196864 -7.36217505155824536445 -7.36217505155824536445 -7.36217505155824536445 -1.88748707847170593688 -1.88748707847170593688 -7.36217505155824536445 -11.01196703361593876025 -7.36217505155824536445 -7.36217505155824536445 -3.71238306950055196864 -7.36217505155824536445 -5.53727906052939822246 -7.36217505155824536445 -14.66175901567362949152 -7.36217505155824536445 -7.36217505155824536445 -5.53727906052939822246 -11.01196703361593876025 -5.53727906052939822246 -7.36217505155824536445 -9.18707104258709250644 -7.36217505155824536445 -1.88748707847170593688 -9.18707104258709250644 -11.01196703361593876025 -9.18707104258709250644 -7.36217505155824536445 -1.88748707847170593688 -7.36217505155824536445 -7.36217505155824536445 -1.88748707847170593688 -3.71238306950055196864 -0.06259108744285951653 -5.53727906052939822246 -3.71238306950055196864 -7.36217505155824536445 -5.53727906052939822246 -3.71238306950055196864 -5.53727906052939822246 -1.88748707847170593688 -1.88748707847170593688 -1.88748707847170593688 -1.88748707847170593688 -3.71238306950055196864 -1.88748707847170593688 -3.71238306950055196864 -1.88748707847170593688 -5.53727906052939822246 -1.88748707847170593688 -1.88748707847170593688 -3.71238306950055196864 -3.71238306950055196864 -3.71238306950055196864 -1.88748707847170593688 -3.71238306950055196864 -5.53727906052939822246 -5.53727906052939822246 -7.36217505155824536445 -1.88748707847170593688 -5.53727906052939822246 -1.88748707847170593688 -0.06259108744285951653 -5.53727906052939822246 -7.36217505155824536445 -5.53727906052939822246 -1.88748707847170593688 -0.06259108744285951653 -3.71238306950055196864 -5.53727906052939822246 -3.71238306950055196864 -3.71238306950055196864 -7.36217505155824536445 -0.06259108744285951653 -1.88748707847170593688 -0.06259108744285951653 -1.88748707847170593688 -1.88748707847170593688 -5.53727906052939822246 -5.53727906052939822246 -3.71238306950055196864 -3.71238306950055196864 -3.71238306950055196864 -1.88748707847170593688 -5.53727906052939822246 -11.01196703361593876025 -7.36217505155824536445 -5.53727906052939822246 -3.71238306950055196864 -5.53727906052939822246 -7.36217505155824536445 -9.18707104258709250644 -5.53727906052939822246 -5.53727906052939822246 -3.71238306950055196864 -3.71238306950055196864 -5.53727906052939822246 -9.18707104258709250644 -5.53727906052939822246 -7.36217505155824536445 -5.53727906052939822246 -3.71238306950055196864 -11.01196703361593876025 -5.53727906052939822246 -1.88748707847170593688 -3.71238306950055196864 -3.71238306950055196864 -7.36217505155824536445 -3.71238306950055196864 -5.53727906052939822246 -7.36217505155824536445 -5.53727906052939822246 -5.53727906052939822246 -7.36217505155824536445 -5.53727906052939822246 -1.88748707847170593688 -3.71238306950055196864 -7.36217505155824536445 -9.18707104258709250644 -7.36217505155824536445 -5.53727906052939822246 -3.71238306950055196864 -3.71238306950055196864 -5.53727906052939822246 -7.36217505155824536445 -7.36217505155824536445 -9.18707104258709250644 -3.71238306950055196864 -7.36217505155824536445 -5.53727906052939822246 -7.36217505155824536445 -7.36217505155824536445 -3.71238306950055196864 -3.71238306950055196864 -5.53727906052939822246 -3.71238306950055196864 -3.71238306950055196864 -5.53727906052939822246 -12.83686302464478501406 -7.36217505155824536445 -7.36217505155824536445 -3.71238306950055196864 -3.71238306950055196864 -3.71238306950055196864 -7.36217505155824536445 -5.53727906052939822246 -5.53727906052939822246 -3.71238306950055196864 -5.53727906052939822246 -0.06259108744285951653 -5.53727906052939822246 -7.36217505155824536445 -5.53727906052939822246 -9.18707104258709250644 -5.53727906052939822246 -5.53727906052939822246 -7.36217505155824536445 -7.36217505155824536445 -9.18707104258709250644 -7.36217505155824536445 -3.71238306950055196864 -7.36217505155824536445 -5.53727906052939822246 -7.36217505155824536445 -7.36217505155824536445 -9.18707104258709250644 -7.36217505155824536445 -1.88748707847170593688 -3.71238306950055196864 -3.71238306950055196864 -5.53727906052939822246 -7.36217505155824536445 -7.36217505155824536445 -3.71238306950055196864 -5.53727906052939822246 -3.71238306950055196864 -3.71238306950055196864 -5.53727906052939822246 -5.53727906052939822246 -1.88748707847170593688 -7.36217505155824536445 -5.53727906052939822246 -5.53727906052939822246 -5.53727906052939822246 -9.18707104258709250644 -5.53727906052939822246 -7.36217505155824536445 -1.88748707847170593688 -5.53727906052939822246 -7.36217505155824536445 -7.36217505155824536445 -9.18707104258709250644 -1.88748707847170593688 -0.06259108744285951653 -3.71238306950055196864 -3.71238306950055196864 -9.18707104258709250644 -9.18707104258709250644 -5.53727906052939822246 -3.71238306950055196864 -5.53727906052939822246 -0.06259108744285951653 -1.88748707847170593688 -3.71238306950055196864 -1.88748707847170593688 -1.88748707847170593688 -5.53727906052939822246 -0.06259108744285951653 -3.71238306950055196864 -0.06259108744285951653 -0.06259108744285951653 -7.36217505155824536445 -7.36217505155824536445 -7.36217505155824536445 -1.88748707847170593688 -3.71238306950055196864 -3.71238306950055196864 -0.06259108744285951653 -5.53727906052939822246 -5.53727906052939822246 -1.88748707847170593688 3.58720089461483304660 -9.18707104258709250644 -0.06259108744285951653 -1.88748707847170593688 -3.71238306950055196864 -3.71238306950055196864 -3.71238306950055196864 -5.53727906052939822246 -3.71238306950055196864 -5.53727906052939822246 -5.53727906052939822246 -3.71238306950055196864 -7.36217505155824536445 -5.53727906052939822246 -1.88748707847170593688 -5.53727906052939822246 -1.88748707847170593688 -5.53727906052939822246 -7.36217505155824536445 -5.53727906052939822246 -1.88748707847170593688 -1.88748707847170593688 -5.53727906052939822246 -7.36217505155824536445 -5.53727906052939822246 -5.53727906052939822246 -3.71238306950055196864 -3.71238306950055196864 -3.71238306950055196864 -3.71238306950055196864 -3.71238306950055196864 -1.88748707847170593688 -3.71238306950055196864 -3.71238306950055196864 -5.53727906052939822246 -3.71238306950055196864 -3.71238306950055196864 -5.53727906052939822246 -5.53727906052939822246 -1.88748707847170593688 -1.88748707847170593688 -5.53727906052939822246 -3.71238306950055196864 -5.53727906052939822246 -1.88748707847170593688 -3.71238306950055196864 1.76230490358598657075 -1.88748707847170593688 -5.53727906052939822246 -1.88748707847170593688 -3.71238306950055196864 -7.36217505155824536445 -5.53727906052939822246 -5.53727906052939822246 -3.71238306950055196864 -1.88748707847170593688 -11.01196703361593876025 -9.18707104258709250644 -7.36217505155824536445 -3.71238306950055196864 -5.53727906052939822246 -9.18707104258709250644 -3.71238306950055196864 -9.18707104258709250644 -5.53727906052939822246 -3.71238306950055196864 -1.88748707847170593688 -1.88748707847170593688 -9.18707104258709250644 -5.53727906052939822246 3.58720089461483304660 -9.18707104258709250644 1.76230490358598657075 -3.71238306950055196864 -1.88748707847170593688 -0.06259108744285951653 1.76230490358598657075 1.76230490358598657075 -3.71238306950055196864 -5.53727906052939822246 -7.36217505155824536445 1.76230490358598657075 -0.06259108744285951653 -5.53727906052939822246 -3.71238306950055196864 -5.53727906052939822246 1.76230490358598657075 -3.71238306950055196864 -9.18707104258709250644 -3.71238306950055196864 -7.36217505155824536445 -3.71238306950055196864 -1.88748707847170593688 -1.88748707847170593688 -0.06259108744285951653 -1.88748707847170593688 -1.88748707847170593688 -9.18707104258709250644 -3.71238306950055196864 -5.53727906052939822246 -5.53727906052939822246 -0.06259108744285951653 -3.71238306950055196864 -1.88748707847170593688 -1.88748707847170593688 -1.88748707847170593688 -0.06259108744285951653 -1.88748707847170593688 -3.71238306950055196864 -1.88748707847170593688 -3.71238306950055196864 -0.06259108744285951653 -5.53727906052939822246 -1.88748707847170593688 -0.06259108744285951653 -0.06259108744285951653 3.58720089461483304660 -5.53727906052939822246 -1.88748707847170593688 -1.88748707847170593688 -1.88748707847170593688 -1.88748707847170593688 -0.06259108744285951653 -3.71238306950055196864 -1.88748707847170593688 -0.06259108744285951653 -0.06259108744285951653 -1.88748707847170593688 -0.06259108744285951653 -1.88748707847170593688 -7.36217505155824536445 5.41209688564368018859 -0.06259108744285951653 1.76230490358598657075 5.41209688564368018859 -0.06259108744285951653 -5.53727906052939822246 -3.71238306950055196864 1.76230490358598657075 5.41209688564368018859 -1.88748707847170593688 3.58720089461483304660 -3.71238306950055196864 -3.71238306950055196864 -1.88748707847170593688 -1.88748707847170593688 5.41209688564368018859 -0.06259108744285951653 -0.06259108744285951653 1.76230490358598657075 3.58720089461483304660 -1.88748707847170593688 -0.06259108744285951653 1.76230490358598657075 -0.06259108744285951653 3.58720089461483304660 -1.88748707847170593688 -0.06259108744285951653 -5.53727906052939822246 3.58720089461483304660 -0.06259108744285951653 -0.06259108744285951653 -3.71238306950055196864 -1.88748707847170593688 -5.53727906052939822246 -5.53727906052939822246 3.58720089461483304660 -5.53727906052939822246 -3.71238306950055196864 -7.36217505155824536445 -0.06259108744285951653 -3.71238306950055196864 -3.71238306950055196864 -1.88748707847170593688 -5.53727906052939822246 -1.88748707847170593688 -0.06259108744285951653 -5.53727906052939822246 -7.36217505155824536445 3.58720089461483304660 -1.88748707847170593688 -1.88748707847170593688 3.58720089461483304660 -1.88748707847170593688 1.76230490358598657075 -1.88748707847170593688 -0.06259108744285951653 -1.88748707847170593688 -3.71238306950055196864 -1.88748707847170593688 -0.06259108744285951653 -5.53727906052939822246 -5.53727906052939822246 -3.71238306950055196864 -0.06259108744285951653 -3.71238306950055196864 -0.06259108744285951653 -3.71238306950055196864 -1.88748707847170593688 -5.53727906052939822246 -3.71238306950055196864 -7.36217505155824536445 -1.88748707847170593688 -5.53727906052939822246 -3.71238306950055196864 -1.88748707847170593688 -0.06259108744285951653 -7.36217505155824536445 -5.53727906052939822246 -1.88748707847170593688 -3.71238306950055196864 1.76230490358598657075 -3.71238306950055196864 -5.53727906052939822246 -3.71238306950055196864 -1.88748707847170593688 -3.71238306950055196864 -5.53727906052939822246 -3.71238306950055196864 -3.71238306950055196864 -1.88748707847170593688 1.76230490358598657075 -0.06259108744285951653 3.58720089461483304660 -3.71238306950055196864 -3.71238306950055196864 1.76230490358598657075 -1.88748707847170593688 1.76230490358598657075 -0.06259108744285951653 -1.88748707847170593688 -1.88748707847170593688 5.41209688564368018859 -1.88748707847170593688 -1.88748707847170593688 -1.88748707847170593688 3.58720089461483304660 -0.06259108744285951653 3.58720089461483304660 -5.53727906052939822246 -3.71238306950055196864 -3.71238306950055196864 -1.88748707847170593688 -3.71238306950055196864 -3.71238306950055196864 1.76230490358598657075 -1.88748707847170593688 -1.88748707847170593688 1.76230490358598657075 -0.06259108744285951653 -1.88748707847170593688 -0.06259108744285951653 -1.88748707847170593688 -0.06259108744285951653 -5.53727906052939822246 -1.88748707847170593688 1.76230490358598657075 -0.06259108744285951653 -0.06259108744285951653 3.58720089461483304660 -1.88748707847170593688 -1.88748707847170593688 -0.06259108744285951653 1.76230490358598657075 -1.88748707847170593688 5.41209688564368018859 3.58720089461483304660 5.41209688564368018859 3.58720089461483304660 3.58720089461483304660 -0.06259108744285951653 3.58720089461483304660 -1.88748707847170593688 1.76230490358598657075 1.76230490358598657075 7.23699287667252466605 3.58720089461483304660 3.58720089461483304660 -1.88748707847170593688 -3.71238306950055196864 -1.88748707847170593688 -3.71238306950055196864 3.58720089461483304660 -1.88748707847170593688 1.76230490358598657075 1.76230490358598657075 -1.88748707847170593688 -0.06259108744285951653 1.76230490358598657075 -0.06259108744285951653 1.76230490358598657075 -0.06259108744285951653 1.76230490358598657075 -5.53727906052939822246 -0.06259108744285951653 -5.53727906052939822246 3.58720089461483304660 1.76230490358598657075 -0.06259108744285951653 -1.88748707847170593688 -1.88748707847170593688 -1.88748707847170593688 1.76230490358598657075 -1.88748707847170593688 1.76230490358598657075 -0.06259108744285951653 -3.71238306950055196864 -1.88748707847170593688 1.76230490358598657075 -0.06259108744285951653 -0.06259108744285951653 -5.53727906052939822246 -0.06259108744285951653 1.76230490358598657075 3.58720089461483304660 -3.71238306950055196864 -1.88748707847170593688 -3.71238306950055196864 1.76230490358598657075 1.76230490358598657075 -1.88748707847170593688 -5.53727906052939822246 -1.88748707847170593688 1.76230490358598657075 -1.88748707847170593688 -3.71238306950055196864 1.76230490358598657075 -3.71238306950055196864 -1.88748707847170593688 -0.06259108744285951653 -3.71238306950055196864 1.76230490358598657075 -1.88748707847170593688 -0.06259108744285951653 -1.88748707847170593688 -0.06259108744285951653 -0.06259108744285951653 -3.71238306950055196864 -1.88748707847170593688 3.58720089461483304660 3.58720089461483304660 -5.53727906052939822246 -3.71238306950055196864 5.41209688564368018859 -3.71238306950055196864 1.76230490358598657075 -1.88748707847170593688 -0.06259108744285951653 -1.88748707847170593688 -3.71238306950055196864 -0.06259108744285951653 -0.06259108744285951653 1.76230490358598657075 -1.88748707847170593688 -0.06259108744285951653 -0.06259108744285951653 -5.53727906052939822246 -1.88748707847170593688 1.76230490358598657075 -3.71238306950055196864 -3.71238306950055196864 -1.88748707847170593688 1.76230490358598657075 -0.06259108744285951653 1.76230490358598657075 -0.06259108744285951653 1.76230490358598657075 -3.71238306950055196864 -1.88748707847170593688 -3.71238306950055196864 7.23699287667252466605 -0.06259108744285951653 5.41209688564368018859 -0.06259108744285951653 -1.88748707847170593688 -1.88748707847170593688 -1.88748707847170593688 -3.71238306950055196864 -1.88748707847170593688 -1.88748707847170593688 -1.88748707847170593688 -0.06259108744285951653 -1.88748707847170593688 -1.88748707847170593688 -5.53727906052939822246 -3.71238306950055196864 1.76230490358598657075 -3.71238306950055196864 1.76230490358598657075 -0.06259108744285951653 -7.36217505155824536445 -0.06259108744285951653 -0.06259108744285951653 1.76230490358598657075 -3.71238306950055196864 -0.06259108744285951653 -3.71238306950055196864 -0.06259108744285951653 1.76230490358598657075 -1.88748707847170593688 -1.88748707847170593688 -1.88748707847170593688 -3.71238306950055196864 -3.71238306950055196864 -0.06259108744285951653 -1.88748707847170593688 1.76230490358598657075 1.76230490358598657075 -1.88748707847170593688 -0.06259108744285951653 1.76230490358598657075 1.76230490358598657075 -1.88748707847170593688 -5.53727906052939822246 -0.06259108744285951653 -0.06259108744285951653 1.76230490358598657075 1.76230490358598657075 -1.88748707847170593688 -0.06259108744285951653 1.76230490358598657075 -0.06259108744285951653 -3.71238306950055196864 -3.71238306950055196864 -1.88748707847170593688 -0.06259108744285951653 -0.06259108744285951653 -1.88748707847170593688 -0.06259108744285951653 -0.06259108744285951653 -1.88748707847170593688 -0.06259108744285951653 3.58720089461483304660 -0.06259108744285951653 -1.88748707847170593688 -3.71238306950055196864 -1.88748707847170593688 -5.53727906052939822246 1.76230490358598657075 1.76230490358598657075 -0.06259108744285951653 -0.06259108744285951653 1.76230490358598657075 -0.06259108744285951653 -0.06259108744285951653 -0.06259108744285951653 -3.71238306950055196864 -0.06259108744285951653 -1.88748707847170593688 1.76230490358598657075 -5.53727906052939822246 -0.06259108744285951653 -0.06259108744285951653 -0.06259108744285951653 -0.06259108744285951653 -1.88748707847170593688 1.76230490358598657075 -3.71238306950055196864 -1.88748707847170593688 1.76230490358598657075 1.76230490358598657075 -0.06259108744285951653 1.76230490358598657075 -0.06259108744285951653 -1.88748707847170593688 -3.71238306950055196864 3.58720089461483304660 1.76230490358598657075 -0.06259108744285951653 3.58720089461483304660 -0.06259108744285951653 -1.88748707847170593688 -1.88748707847170593688 3.58720089461483304660 1.76230490358598657075 1.76230490358598657075 1.76230490358598657075 3.58720089461483304660 -3.71238306950055196864 -3.71238306950055196864 1.76230490358598657075 3.58720089461483304660 3.58720089461483304660 5.41209688564368018859 1.76230490358598657075 -1.88748707847170593688 -1.88748707847170593688 3.58720089461483304660 3.58720089461483304660 5.41209688564368018859 -0.06259108744285951653 -0.06259108744285951653 -1.88748707847170593688 1.76230490358598657075 1.76230490358598657075 7.23699287667252466605 3.58720089461483304660 5.41209688564368018859 5.41209688564368018859 -3.71238306950055196864 -1.88748707847170593688 1.76230490358598657075 5.41209688564368018859 5.41209688564368018859 5.41209688564368018859 3.58720089461483304660 -3.71238306950055196864 3.58720089461483304660 5.41209688564368018859 3.58720089461483304660 5.41209688564368018859 1.76230490358598657075 -0.06259108744285951653 -0.06259108744285951653 1.76230490358598657075 3.58720089461483304660 -0.06259108744285951653 5.41209688564368018859 3.58720089461483304660 -0.06259108744285951653 -3.71238306950055196864 -0.06259108744285951653 -3.71238306950055196864 -0.06259108744285951653 3.58720089461483304660 5.41209688564368018859 -3.71238306950055196864 -3.71238306950055196864 -1.88748707847170593688 -3.71238306950055196864 3.58720089461483304660 -3.71238306950055196864 -5.53727906052939822246 -3.71238306950055196864 -5.53727906052939822246 -1.88748707847170593688 -0.06259108744285951653 -1.88748707847170593688 -1.88748707847170593688 -1.88748707847170593688 -3.71238306950055196864 -5.53727906052939822246 -0.06259108744285951653 1.76230490358598657075 1.76230490358598657075 1.76230490358598657075 -0.06259108744285951653 -1.88748707847170593688 -9.18707104258709250644 -3.71238306950055196864 -3.71238306950055196864 -1.88748707847170593688 -0.06259108744285951653 -3.71238306950055196864 -1.88748707847170593688 -3.71238306950055196864 -7.36217505155824536445 -1.88748707847170593688 -1.88748707847170593688 -1.88748707847170593688 -1.88748707847170593688 -5.53727906052939822246 1.76230490358598657075 1.76230490358598657075 -0.06259108744285951653 1.76230490358598657075 -0.06259108744285951653 3.58720089461483304660 -0.06259108744285951653 -1.88748707847170593688 -3.71238306950055196864 3.58720089461483304660 -0.06259108744285951653 -1.88748707847170593688 1.76230490358598657075 -1.88748707847170593688 -0.06259108744285951653 -1.88748707847170593688 3.58720089461483304660 -3.71238306950055196864 -3.71238306950055196864 3.58720089461483304660 -1.88748707847170593688 5.41209688564368018859 3.58720089461483304660 1.76230490358598657075 -0.06259108744285951653 3.58720089461483304660 -0.06259108744285951653 3.58720089461483304660 -0.06259108744285951653 -5.53727906052939822246 1.76230490358598657075 -1.88748707847170593688 -7.36217505155824536445 -3.71238306950055196864 -0.06259108744285951653 1.76230490358598657075 -1.88748707847170593688 1.76230490358598657075 -3.71238306950055196864 -1.88748707847170593688 5.41209688564368018859 1.76230490358598657075 -1.88748707847170593688 -3.71238306950055196864 -7.36217505155824536445 -3.71238306950055196864 1.76230490358598657075 -5.53727906052939822246 1.76230490358598657075 1.76230490358598657075 -1.88748707847170593688 -3.71238306950055196864 -0.06259108744285951653 -3.71238306950055196864 -3.71238306950055196864 -1.88748707847170593688 -1.88748707847170593688 -0.06259108744285951653 -0.06259108744285951653 -0.06259108744285951653 -1.88748707847170593688 -3.71238306950055196864 -3.71238306950055196864 -0.06259108744285951653 -3.71238306950055196864 -5.53727906052939822246 1.76230490358598657075 -3.71238306950055196864 -1.88748707847170593688 -3.71238306950055196864 -5.53727906052939822246 1.76230490358598657075 -3.71238306950055196864 -5.53727906052939822246 -3.71238306950055196864 -0.06259108744285951653 -0.06259108744285951653 1.76230490358598657075 -1.88748707847170593688 -7.36217505155824536445 -0.06259108744285951653 -1.88748707847170593688 -3.71238306950055196864 -3.71238306950055196864 -3.71238306950055196864 1.76230490358598657075 1.76230490358598657075 -5.53727906052939822246 -5.53727906052939822246 1.76230490358598657075 -1.88748707847170593688 -1.88748707847170593688 -0.06259108744285951653 -1.88748707847170593688 -3.71238306950055196864 1.76230490358598657075 -3.71238306950055196864 -0.06259108744285951653 -3.71238306950055196864 1.76230490358598657075 1.76230490358598657075 -0.06259108744285951653 -3.71238306950055196864 -0.06259108744285951653 -0.06259108744285951653 -7.36217505155824536445 -0.06259108744285951653 -1.88748707847170593688 -3.71238306950055196864 -1.88748707847170593688 -5.53727906052939822246 -3.71238306950055196864 -0.06259108744285951653 -0.06259108744285951653 -7.36217505155824536445 -5.53727906052939822246 -1.88748707847170593688 -5.53727906052939822246 -9.18707104258709250644 -3.71238306950055196864 -7.36217505155824536445 -5.53727906052939822246 -7.36217505155824536445 -5.53727906052939822246 -9.18707104258709250644 -1.88748707847170593688 -5.53727906052939822246 -5.53727906052939822246 -1.88748707847170593688 -5.53727906052939822246 -1.88748707847170593688 -3.71238306950055196864 1.76230490358598657075 -3.71238306950055196864 -0.06259108744285951653 -7.36217505155824536445 1.76230490358598657075 -3.71238306950055196864 -1.88748707847170593688 -5.53727906052939822246 -1.88748707847170593688 1.76230490358598657075 1.76230490358598657075 -3.71238306950055196864 -1.88748707847170593688 1.76230490358598657075 -0.06259108744285951653 3.58720089461483304660 -1.88748707847170593688 -0.06259108744285951653 -0.06259108744285951653 -5.53727906052939822246 -0.06259108744285951653 -3.71238306950055196864 -1.88748707847170593688 -1.88748707847170593688 -1.88748707847170593688 -0.06259108744285951653 3.58720089461483304660 -0.06259108744285951653 1.76230490358598657075 -7.36217505155824536445 1.76230490358598657075 -0.06259108744285951653 -5.53727906052939822246 -5.53727906052939822246 -0.06259108744285951653 -0.06259108744285951653 -5.53727906052939822246 -1.88748707847170593688 -5.53727906052939822246 -3.71238306950055196864 -3.71238306950055196864 -3.71238306950055196864 -5.53727906052939822246 -0.06259108744285951653 -5.53727906052939822246 -5.53727906052939822246 -9.18707104258709250644 -3.71238306950055196864 -9.18707104258709250644 -7.36217505155824536445 -0.06259108744285951653 -3.71238306950055196864 -9.18707104258709250644 -5.53727906052939822246 -5.53727906052939822246 -5.53727906052939822246 -7.36217505155824536445 -7.36217505155824536445 -5.53727906052939822246 -5.53727906052939822246 -11.01196703361593876025 -3.71238306950055196864 -7.36217505155824536445 -9.18707104258709250644 -7.36217505155824536445 -5.53727906052939822246 -7.36217505155824536445 -7.36217505155824536445 -3.71238306950055196864 -7.36217505155824536445 -7.36217505155824536445 -11.01196703361593876025 -7.36217505155824536445 -5.53727906052939822246 -3.71238306950055196864 -9.18707104258709250644 -5.53727906052939822246 -7.36217505155824536445 -9.18707104258709250644 -9.18707104258709250644 -12.83686302464478501406 -5.53727906052939822246 -7.36217505155824536445 -11.01196703361593876025 -7.36217505155824536445 -7.36217505155824536445 -7.36217505155824536445 -12.83686302464478501406 -11.01196703361593876025 -7.36217505155824536445 -11.01196703361593876025 -1.88748707847170593688 -3.71238306950055196864 -12.83686302464478501406 -7.36217505155824536445 -7.36217505155824536445 -5.53727906052939822246 -3.71238306950055196864 -5.53727906052939822246 -11.01196703361593876025 -3.71238306950055196864 -9.18707104258709250644 -11.01196703361593876025 -9.18707104258709250644 -3.71238306950055196864 -5.53727906052939822246 -5.53727906052939822246 -1.88748707847170593688 -7.36217505155824536445 -3.71238306950055196864 -5.53727906052939822246 -7.36217505155824536445 -3.71238306950055196864 -1.88748707847170593688 -5.53727906052939822246 -5.53727906052939822246 -1.88748707847170593688 -1.88748707847170593688 -5.53727906052939822246 -1.88748707847170593688 -3.71238306950055196864 -5.53727906052939822246 -0.06259108744285951653 -3.71238306950055196864 -1.88748707847170593688 -5.53727906052939822246 -1.88748707847170593688 -3.71238306950055196864 -0.06259108744285951653 5.41209688564368018859 -0.06259108744285951653 -1.88748707847170593688 3.58720089461483304660 -3.71238306950055196864 -0.06259108744285951653 1.76230490358598657075 3.58720089461483304660 5.41209688564368018859 -3.71238306950055196864 -3.71238306950055196864 5.41209688564368018859 -0.06259108744285951653 1.76230490358598657075 -3.71238306950055196864 3.58720089461483304660 -0.06259108744285951653 1.76230490358598657075 -1.88748707847170593688 -0.06259108744285951653 1.76230490358598657075 3.58720089461483304660 3.58720089461483304660 7.23699287667252466605 3.58720089461483304660 7.23699287667252466605 3.58720089461483304660 5.41209688564368018859 1.76230490358598657075 7.23699287667252466605 7.23699287667252466605 3.58720089461483304660 5.41209688564368018859 -0.06259108744285951653 3.58720089461483304660 5.41209688564368018859 5.41209688564368018859 9.06188886770137180804 9.06188886770137180804 1.76230490358598657075 1.76230490358598657075 9.06188886770137180804 5.41209688564368018859 1.76230490358598657075 3.58720089461483304660 3.58720089461483304660 1.76230490358598657075 3.58720089461483304660 1.76230490358598657075 -0.06259108744285951653 -0.06259108744285951653 5.41209688564368018859 1.76230490358598657075 5.41209688564368018859 -0.06259108744285951653 -0.06259108744285951653 -3.71238306950055196864 1.76230490358598657075 -1.88748707847170593688 1.76230490358598657075 -0.06259108744285951653 3.58720089461483304660 -0.06259108744285951653 3.58720089461483304660 1.76230490358598657075 -1.88748707847170593688 -0.06259108744285951653 -0.06259108744285951653 -0.06259108744285951653 -1.88748707847170593688 5.41209688564368018859 1.76230490358598657075 -0.06259108744285951653 -0.06259108744285951653 -3.71238306950055196864 -1.88748707847170593688 5.41209688564368018859 -5.53727906052939822246 -1.88748707847170593688 -0.06259108744285951653 -1.88748707847170593688 1.76230490358598657075 -3.71238306950055196864 -0.06259108744285951653 -1.88748707847170593688 1.76230490358598657075 1.76230490358598657075 -1.88748707847170593688 -0.06259108744285951653 -7.36217505155824536445 -0.06259108744285951653 -0.06259108744285951653 -3.71238306950055196864 -1.88748707847170593688 -1.88748707847170593688 5.41209688564368018859 -0.06259108744285951653 -0.06259108744285951653 -3.71238306950055196864 1.76230490358598657075 -0.06259108744285951653 -3.71238306950055196864 3.58720089461483304660 -0.06259108744285951653 1.76230490358598657075 -0.06259108744285951653 -3.71238306950055196864 -0.06259108744285951653 1.76230490358598657075 1.76230490358598657075 1.76230490358598657075 -0.06259108744285951653 1.76230490358598657075 1.76230490358598657075 5.41209688564368018859 -3.71238306950055196864 -1.88748707847170593688 1.76230490358598657075 -3.71238306950055196864 3.58720089461483304660 5.41209688564368018859 -0.06259108744285951653 -0.06259108744285951653 -1.88748707847170593688 -1.88748707847170593688 -1.88748707847170593688 -1.88748707847170593688 3.58720089461483304660 1.76230490358598657075 3.58720089461483304660 1.76230490358598657075 -1.88748707847170593688 -0.06259108744285951653 3.58720089461483304660 -3.71238306950055196864 1.76230490358598657075 -0.06259108744285951653 1.76230490358598657075 3.58720089461483304660 1.76230490358598657075 -0.06259108744285951653 -0.06259108744285951653 -0.06259108744285951653 5.41209688564368018859 1.76230490358598657075 3.58720089461483304660 7.23699287667252466605 3.58720089461483304660 1.76230490358598657075 3.58720089461483304660 1.76230490358598657075 3.58720089461483304660 3.58720089461483304660 1.76230490358598657075 7.23699287667252466605 1.76230490358598657075 -1.88748707847170593688 5.41209688564368018859 -5.53727906052939822246 5.41209688564368018859 1.76230490358598657075 -3.71238306950055196864 3.58720089461483304660 5.41209688564368018859 3.58720089461483304660 1.76230490358598657075 7.23699287667252466605 3.58720089461483304660 3.58720089461483304660 -1.88748707847170593688 -0.06259108744285951653 -0.06259108744285951653 1.76230490358598657075 1.76230490358598657075 5.41209688564368018859 7.23699287667252466605 5.41209688564368018859 1.76230490358598657075 1.76230490358598657075 1.76230490358598657075 5.41209688564368018859 -1.88748707847170593688 7.23699287667252466605 3.58720089461483304660 1.76230490358598657075 -0.06259108744285951653 5.41209688564368018859 -0.06259108744285951653 -0.06259108744285951653 5.41209688564368018859 3.58720089461483304660 5.41209688564368018859 5.41209688564368018859 5.41209688564368018859 1.76230490358598657075 5.41209688564368018859 1.76230490358598657075 7.23699287667252466605 7.23699287667252466605 -1.88748707847170593688 7.23699287667252466605 3.58720089461483304660 3.58720089461483304660 7.23699287667252466605 5.41209688564368018859 1.76230490358598657075 5.41209688564368018859 3.58720089461483304660 1.76230490358598657075 5.41209688564368018859 3.58720089461483304660 3.58720089461483304660 3.58720089461483304660 10.88678485873021806185 5.41209688564368018859 10.88678485873021806185 3.58720089461483304660 -0.06259108744285951653 3.58720089461483304660 5.41209688564368018859 1.76230490358598657075 12.71168084975906431566 3.58720089461483304660 7.23699287667252466605 7.23699287667252466605 7.23699287667252466605 -0.06259108744285951653 5.41209688564368018859 5.41209688564368018859 5.41209688564368018859 9.06188886770137180804 7.23699287667252466605 5.41209688564368018859 7.23699287667252466605 5.41209688564368018859 7.23699287667252466605 9.06188886770137180804 9.06188886770137180804 5.41209688564368018859 7.23699287667252466605 7.23699287667252466605 7.23699287667252466605 7.23699287667252466605 7.23699287667252466605 1.76230490358598657075 9.06188886770137180804 12.71168084975906431566 12.71168084975906431566 10.88678485873021806185 9.06188886770137180804 10.88678485873021806185 1.76230490358598657075 10.88678485873021806185 3.58720089461483304660 3.58720089461483304660 9.06188886770137180804 5.41209688564368018859 5.41209688564368018859 3.58720089461483304660 5.41209688564368018859 7.23699287667252466605 7.23699287667252466605 9.06188886770137180804 3.58720089461483304660 3.58720089461483304660 5.41209688564368018859 1.76230490358598657075 3.58720089461483304660 5.41209688564368018859 9.06188886770137180804 7.23699287667252466605 5.41209688564368018859 5.41209688564368018859 7.23699287667252466605 3.58720089461483304660 1.76230490358598657075 9.06188886770137180804 -0.06259108744285951653 5.41209688564368018859 9.06188886770137180804 3.58720089461483304660 1.76230490358598657075 3.58720089461483304660 7.23699287667252466605 9.06188886770137180804 5.41209688564368018859 3.58720089461483304660 3.58720089461483304660 3.58720089461483304660 5.41209688564368018859 7.23699287667252466605 9.06188886770137180804 3.58720089461483304660 5.41209688564368018859 5.41209688564368018859 -1.88748707847170593688 5.41209688564368018859 5.41209688564368018859 -1.88748707847170593688 1.76230490358598657075 3.58720089461483304660 1.76230490358598657075 3.58720089461483304660 1.76230490358598657075 5.41209688564368018859 1.76230490358598657075 -1.88748707847170593688 5.41209688564368018859 1.76230490358598657075 5.41209688564368018859 5.41209688564368018859 1.76230490358598657075 3.58720089461483304660 3.58720089461483304660 3.58720089461483304660 1.76230490358598657075 10.88678485873021806185 5.41209688564368018859 7.23699287667252466605 7.23699287667252466605 7.23699287667252466605 7.23699287667252466605 9.06188886770137180804 9.06188886770137180804 1.76230490358598657075 -0.06259108744285951653 1.76230490358598657075 7.23699287667252466605 1.76230490358598657075 -0.06259108744285951653 3.58720089461483304660 1.76230490358598657075 5.41209688564368018859 -0.06259108744285951653 5.41209688564368018859 9.06188886770137180804 1.76230490358598657075 1.76230490358598657075 7.23699287667252466605 3.58720089461483304660 7.23699287667252466605 3.58720089461483304660 5.41209688564368018859 1.76230490358598657075 1.76230490358598657075 -3.71238306950055196864 5.41209688564368018859 5.41209688564368018859 3.58720089461483304660 5.41209688564368018859 1.76230490358598657075 -0.06259108744285951653 3.58720089461483304660 7.23699287667252466605 3.58720089461483304660 1.76230490358598657075 1.76230490358598657075 1.76230490358598657075 1.76230490358598657075 7.23699287667252466605 5.41209688564368018859 1.76230490358598657075 5.41209688564368018859 1.76230490358598657075 -1.88748707847170593688 1.76230490358598657075 9.06188886770137180804 3.58720089461483304660 7.23699287667252466605 5.41209688564368018859 5.41209688564368018859 -0.06259108744285951653 3.58720089461483304660 5.41209688564368018859 5.41209688564368018859 -0.06259108744285951653 1.76230490358598657075 -0.06259108744285951653 3.58720089461483304660 5.41209688564368018859 3.58720089461483304660 -0.06259108744285951653 -1.88748707847170593688 -0.06259108744285951653 3.58720089461483304660 -0.06259108744285951653 -0.06259108744285951653 5.41209688564368018859 7.23699287667252466605 9.06188886770137180804 3.58720089461483304660 5.41209688564368018859 3.58720089461483304660 -0.06259108744285951653 3.58720089461483304660 5.41209688564368018859 1.76230490358598657075 3.58720089461483304660 -0.06259108744285951653 -0.06259108744285951653 9.06188886770137180804 3.58720089461483304660 3.58720089461483304660 1.76230490358598657075 1.76230490358598657075 1.76230490358598657075 1.76230490358598657075 1.76230490358598657075 5.41209688564368018859 -0.06259108744285951653 1.76230490358598657075 -0.06259108744285951653 -1.88748707847170593688 3.58720089461483304660 1.76230490358598657075 3.58720089461483304660 7.23699287667252466605 -0.06259108744285951653 5.41209688564368018859 1.76230490358598657075 -1.88748707847170593688 -5.53727906052939822246 -0.06259108744285951653 1.76230490358598657075 1.76230490358598657075 -1.88748707847170593688 3.58720089461483304660 -0.06259108744285951653 -0.06259108744285951653 -3.71238306950055196864 -3.71238306950055196864 3.58720089461483304660 3.58720089461483304660 -0.06259108744285951653 -1.88748707847170593688 1.76230490358598657075 1.76230490358598657075 1.76230490358598657075 5.41209688564368018859 3.58720089461483304660 -0.06259108744285951653 -0.06259108744285951653 3.58720089461483304660 -0.06259108744285951653 7.23699287667252466605 5.41209688564368018859 -0.06259108744285951653 1.76230490358598657075 3.58720089461483304660 1.76230490358598657075 3.58720089461483304660 -1.88748707847170593688 1.76230490358598657075 -1.88748707847170593688 1.76230490358598657075 -0.06259108744285951653 -0.06259108744285951653 -1.88748707847170593688 1.76230490358598657075 1.76230490358598657075 -3.71238306950055196864 3.58720089461483304660 3.58720089461483304660 3.58720089461483304660 7.23699287667252466605 1.76230490358598657075 5.41209688564368018859 3.58720089461483304660 3.58720089461483304660 7.23699287667252466605 1.76230490358598657075 1.76230490358598657075 3.58720089461483304660 -1.88748707847170593688 -3.71238306950055196864 5.41209688564368018859 5.41209688564368018859 1.76230490358598657075 3.58720089461483304660 5.41209688564368018859 5.41209688564368018859 -3.71238306950055196864 -0.06259108744285951653 1.76230490358598657075 1.76230490358598657075 5.41209688564368018859 3.58720089461483304660 -0.06259108744285951653 -0.06259108744285951653 -0.06259108744285951653 1.76230490358598657075 3.58720089461483304660 1.76230490358598657075 3.58720089461483304660 3.58720089461483304660 -0.06259108744285951653 -0.06259108744285951653 -3.71238306950055196864 -1.88748707847170593688 3.58720089461483304660 -0.06259108744285951653 -3.71238306950055196864 -3.71238306950055196864 -1.88748707847170593688 -3.71238306950055196864 -5.53727906052939822246 -1.88748707847170593688 -1.88748707847170593688 3.58720089461483304660 -0.06259108744285951653 -3.71238306950055196864 -3.71238306950055196864 -3.71238306950055196864 -0.06259108744285951653 -1.88748707847170593688 3.58720089461483304660 -0.06259108744285951653 -1.88748707847170593688 1.76230490358598657075 -1.88748707847170593688 -3.71238306950055196864 1.76230490358598657075 1.76230490358598657075 -0.06259108744285951653 -1.88748707847170593688 -5.53727906052939822246 -3.71238306950055196864 -7.36217505155824536445 3.58720089461483304660 -3.71238306950055196864 1.76230490358598657075 -1.88748707847170593688 -1.88748707847170593688 -5.53727906052939822246 -1.88748707847170593688 -0.06259108744285951653 -0.06259108744285951653 -1.88748707847170593688 3.58720089461483304660 -0.06259108744285951653 1.76230490358598657075 -1.88748707847170593688 -0.06259108744285951653 -0.06259108744285951653 3.58720089461483304660 1.76230490358598657075 3.58720089461483304660 -3.71238306950055196864 -1.88748707847170593688 1.76230490358598657075 -1.88748707847170593688 -0.06259108744285951653 3.58720089461483304660 1.76230490358598657075 -0.06259108744285951653 -0.06259108744285951653 -5.53727906052939822246 1.76230490358598657075 1.76230490358598657075 3.58720089461483304660 3.58720089461483304660 1.76230490358598657075 3.58720089461483304660 1.76230490358598657075 5.41209688564368018859 10.88678485873021806185 3.58720089461483304660 3.58720089461483304660 1.76230490358598657075 1.76230490358598657075 9.06188886770137180804 3.58720089461483304660 5.41209688564368018859 5.41209688564368018859 1.76230490358598657075 -1.88748707847170593688 -1.88748707847170593688 3.58720089461483304660 5.41209688564368018859 7.23699287667252466605 1.76230490358598657075 7.23699287667252466605 -0.06259108744285951653 3.58720089461483304660 1.76230490358598657075 5.41209688564368018859 3.58720089461483304660 3.58720089461483304660 1.76230490358598657075 3.58720089461483304660 -0.06259108744285951653 -0.06259108744285951653 5.41209688564368018859 -0.06259108744285951653 5.41209688564368018859 -0.06259108744285951653 5.41209688564368018859 1.76230490358598657075 3.58720089461483304660 1.76230490358598657075 -1.88748707847170593688 10.88678485873021806185 3.58720089461483304660 5.41209688564368018859 -0.06259108744285951653 5.41209688564368018859 7.23699287667252466605 5.41209688564368018859 1.76230490358598657075 3.58720089461483304660 1.76230490358598657075 1.76230490358598657075 7.23699287667252466605 3.58720089461483304660 3.58720089461483304660 -0.06259108744285951653 -3.71238306950055196864 1.76230490358598657075 1.76230490358598657075 1.76230490358598657075 -3.71238306950055196864 3.58720089461483304660 5.41209688564368018859 -0.06259108744285951653 1.76230490358598657075 1.76230490358598657075 3.58720089461483304660 5.41209688564368018859 3.58720089461483304660 3.58720089461483304660 5.41209688564368018859 -1.88748707847170593688 -0.06259108744285951653 1.76230490358598657075 -0.06259108744285951653 1.76230490358598657075 -0.06259108744285951653 1.76230490358598657075 3.58720089461483304660 1.76230490358598657075 5.41209688564368018859 -0.06259108744285951653 -0.06259108744285951653 5.41209688564368018859 1.76230490358598657075 -0.06259108744285951653 -3.71238306950055196864 3.58720089461483304660 1.76230490358598657075 5.41209688564368018859 5.41209688564368018859 5.41209688564368018859 3.58720089461483304660 3.58720089461483304660 5.41209688564368018859 1.76230490358598657075 7.23699287667252466605 5.41209688564368018859 5.41209688564368018859 3.58720089461483304660 3.58720089461483304660 1.76230490358598657075 3.58720089461483304660 5.41209688564368018859 9.06188886770137180804 1.76230490358598657075 5.41209688564368018859 1.76230490358598657075 5.41209688564368018859 3.58720089461483304660 5.41209688564368018859 1.76230490358598657075 7.23699287667252466605 7.23699287667252466605 3.58720089461483304660 9.06188886770137180804 -1.88748707847170593688 7.23699287667252466605 7.23699287667252466605 1.76230490358598657075 5.41209688564368018859 10.88678485873021806185 7.23699287667252466605 5.41209688564368018859 7.23699287667252466605 10.88678485873021806185 7.23699287667252466605 5.41209688564368018859 3.58720089461483304660 10.88678485873021806185 3.58720089461483304660 9.06188886770137180804 9.06188886770137180804 9.06188886770137180804 5.41209688564368018859 9.06188886770137180804 9.06188886770137180804 5.41209688564368018859 7.23699287667252466605 3.58720089461483304660 9.06188886770137180804 1.76230490358598657075 3.58720089461483304660 3.58720089461483304660 9.06188886770137180804 9.06188886770137180804 3.58720089461483304660 3.58720089461483304660 7.23699287667252466605 3.58720089461483304660 3.58720089461483304660 5.41209688564368018859 5.41209688564368018859 3.58720089461483304660 5.41209688564368018859 5.41209688564368018859 10.88678485873021806185 -0.06259108744285951653 9.06188886770137180804 7.23699287667252466605 3.58720089461483304660 1.76230490358598657075 5.41209688564368018859 5.41209688564368018859 3.58720089461483304660 3.58720089461483304660 5.41209688564368018859 3.58720089461483304660 1.76230490358598657075 -0.06259108744285951653 3.58720089461483304660 3.58720089461483304660 3.58720089461483304660 1.76230490358598657075 -0.06259108744285951653 5.41209688564368018859 1.76230490358598657075 5.41209688564368018859 3.58720089461483304660 5.41209688564368018859 3.58720089461483304660 -1.88748707847170593688 1.76230490358598657075 1.76230490358598657075 3.58720089461483304660 3.58720089461483304660 5.41209688564368018859 -0.06259108744285951653 3.58720089461483304660 1.76230490358598657075 3.58720089461483304660 -0.06259108744285951653 3.58720089461483304660 5.41209688564368018859 3.58720089461483304660 3.58720089461483304660 1.76230490358598657075 5.41209688564368018859 9.06188886770137180804 1.76230490358598657075 1.76230490358598657075 -0.06259108744285951653 5.41209688564368018859 1.76230490358598657075 -0.06259108744285951653 3.58720089461483304660 -3.71238306950055196864 3.58720089461483304660 1.76230490358598657075 -0.06259108744285951653 1.76230490358598657075 -0.06259108744285951653 3.58720089461483304660 5.41209688564368018859 -1.88748707847170593688 1.76230490358598657075 5.41209688564368018859 1.76230490358598657075 1.76230490358598657075 5.41209688564368018859 7.23699287667252466605 1.76230490358598657075 1.76230490358598657075 3.58720089461483304660 1.76230490358598657075 1.76230490358598657075 1.76230490358598657075 1.76230490358598657075 1.76230490358598657075 -0.06259108744285951653 3.58720089461483304660 1.76230490358598657075 -0.06259108744285951653 1.76230490358598657075 1.76230490358598657075 -0.06259108744285951653 -0.06259108744285951653 3.58720089461483304660 1.76230490358598657075 3.58720089461483304660 5.41209688564368018859 1.76230490358598657075 7.23699287667252466605 7.23699287667252466605 3.58720089461483304660 1.76230490358598657075 3.58720089461483304660 3.58720089461483304660 7.23699287667252466605 5.41209688564368018859 -1.88748707847170593688 5.41209688564368018859 3.58720089461483304660 1.76230490358598657075 3.58720089461483304660 1.76230490358598657075 -0.06259108744285951653 -0.06259108744285951653 -1.88748707847170593688 7.23699287667252466605 5.41209688564368018859 3.58720089461483304660 -0.06259108744285951653 5.41209688564368018859 5.41209688564368018859 7.23699287667252466605 5.41209688564368018859 5.41209688564368018859 3.58720089461483304660 -0.06259108744285951653 1.76230490358598657075 5.41209688564368018859 1.76230490358598657075 3.58720089461483304660 3.58720089461483304660 3.58720089461483304660 9.06188886770137180804 3.58720089461483304660 -0.06259108744285951653 -0.06259108744285951653 5.41209688564368018859 7.23699287667252466605 -0.06259108744285951653 3.58720089461483304660 3.58720089461483304660 -1.88748707847170593688 1.76230490358598657075 -0.06259108744285951653 3.58720089461483304660 1.76230490358598657075 1.76230490358598657075 -1.88748707847170593688 -0.06259108744285951653 -1.88748707847170593688 -3.71238306950055196864 1.76230490358598657075 -0.06259108744285951653 1.76230490358598657075 -0.06259108744285951653 -0.06259108744285951653 1.76230490358598657075 1.76230490358598657075 -0.06259108744285951653 -0.06259108744285951653 -3.71238306950055196864 -0.06259108744285951653 -3.71238306950055196864 3.58720089461483304660 -1.88748707847170593688 1.76230490358598657075 3.58720089461483304660 -3.71238306950055196864 -1.88748707847170593688 -0.06259108744285951653 -0.06259108744285951653 -1.88748707847170593688 -0.06259108744285951653 1.76230490358598657075 5.41209688564368018859 -3.71238306950055196864 -0.06259108744285951653 -5.53727906052939822246 -3.71238306950055196864 5.41209688564368018859 -0.06259108744285951653 -1.88748707847170593688 -3.71238306950055196864 1.76230490358598657075 1.76230490358598657075 5.41209688564368018859 -1.88748707847170593688 1.76230490358598657075 1.76230490358598657075 -0.06259108744285951653 -1.88748707847170593688 -1.88748707847170593688 1.76230490358598657075 3.58720089461483304660 3.58720089461483304660 -1.88748707847170593688 3.58720089461483304660 5.41209688564368018859 -0.06259108744285951653 1.76230490358598657075 5.41209688564368018859 3.58720089461483304660 7.23699287667252466605 5.41209688564368018859 -0.06259108744285951653 -1.88748707847170593688 1.76230490358598657075 -0.06259108744285951653 5.41209688564368018859 3.58720089461483304660 5.41209688564368018859 5.41209688564368018859 1.76230490358598657075 -0.06259108744285951653 -0.06259108744285951653 -1.88748707847170593688 1.76230490358598657075 1.76230490358598657075 5.41209688564368018859 3.58720089461483304660 3.58720089461483304660 -0.06259108744285951653 10.88678485873021806185 9.06188886770137180804 -0.06259108744285951653 3.58720089461483304660 5.41209688564368018859 3.58720089461483304660 7.23699287667252466605 7.23699287667252466605 5.41209688564368018859 9.06188886770137180804 5.41209688564368018859 1.76230490358598657075 7.23699287667252466605 5.41209688564368018859 1.76230490358598657075 5.41209688564368018859 5.41209688564368018859 5.41209688564368018859 5.41209688564368018859 7.23699287667252466605 1.76230490358598657075 1.76230490358598657075 5.41209688564368018859 7.23699287667252466605 3.58720089461483304660 3.58720089461483304660 1.76230490358598657075 1.76230490358598657075 5.41209688564368018859 5.41209688564368018859 3.58720089461483304660 5.41209688564368018859 9.06188886770137180804 5.41209688564368018859 3.58720089461483304660 3.58720089461483304660 7.23699287667252466605 5.41209688564368018859 5.41209688564368018859 3.58720089461483304660 3.58720089461483304660 3.58720089461483304660 3.58720089461483304660 5.41209688564368018859 3.58720089461483304660 7.23699287667252466605 1.76230490358598657075 7.23699287667252466605 1.76230490358598657075 5.41209688564368018859 7.23699287667252466605 9.06188886770137180804 3.58720089461483304660 7.23699287667252466605 10.88678485873021806185 3.58720089461483304660 1.76230490358598657075 5.41209688564368018859 5.41209688564368018859 5.41209688564368018859 9.06188886770137180804 5.41209688564368018859 5.41209688564368018859 -1.88748707847170593688 1.76230490358598657075 3.58720089461483304660 9.06188886770137180804 3.58720089461483304660 5.41209688564368018859 7.23699287667252466605 5.41209688564368018859 3.58720089461483304660 3.58720089461483304660 5.41209688564368018859 7.23699287667252466605 5.41209688564368018859 -0.06259108744285951653 7.23699287667252466605 7.23699287667252466605 5.41209688564368018859 7.23699287667252466605 3.58720089461483304660 3.58720089461483304660 3.58720089461483304660 3.58720089461483304660 7.23699287667252466605 12.71168084975906431566 9.06188886770137180804 7.23699287667252466605 9.06188886770137180804 3.58720089461483304660 7.23699287667252466605 5.41209688564368018859 10.88678485873021806185 9.06188886770137180804 7.23699287667252466605 7.23699287667252466605 5.41209688564368018859 -1.88748707847170593688 7.23699287667252466605 9.06188886770137180804 7.23699287667252466605 5.41209688564368018859 1.76230490358598657075 5.41209688564368018859 9.06188886770137180804 5.41209688564368018859 9.06188886770137180804 10.88678485873021806185 7.23699287667252466605 12.71168084975906431566 3.58720089461483304660 5.41209688564368018859 7.23699287667252466605 9.06188886770137180804 7.23699287667252466605 9.06188886770137180804 9.06188886770137180804 3.58720089461483304660 7.23699287667252466605 9.06188886770137180804 7.23699287667252466605 9.06188886770137180804 5.41209688564368018859 10.88678485873021806185 9.06188886770137180804 10.88678485873021806185 5.41209688564368018859 12.71168084975906431566 7.23699287667252466605 10.88678485873021806185 7.23699287667252466605 14.53657684078791056947 9.06188886770137180804 7.23699287667252466605 10.88678485873021806185 9.06188886770137180804 9.06188886770137180804 9.06188886770137180804 9.06188886770137180804 3.58720089461483304660 9.06188886770137180804 10.88678485873021806185 5.41209688564368018859 5.41209688564368018859 7.23699287667252466605 3.58720089461483304660 9.06188886770137180804 9.06188886770137180804 10.88678485873021806185 12.71168084975906431566 7.23699287667252466605 7.23699287667252466605 9.06188886770137180804 10.88678485873021806185 9.06188886770137180804 10.88678485873021806185 5.41209688564368018859 7.23699287667252466605 9.06188886770137180804 10.88678485873021806185 9.06188886770137180804 5.41209688564368018859 5.41209688564368018859 10.88678485873021806185 5.41209688564368018859 10.88678485873021806185 5.41209688564368018859 7.23699287667252466605 7.23699287667252466605 9.06188886770137180804 7.23699287667252466605 5.41209688564368018859 7.23699287667252466605 7.23699287667252466605 7.23699287667252466605 5.41209688564368018859 1.76230490358598657075 5.41209688564368018859 5.41209688564368018859 5.41209688564368018859 3.58720089461483304660 1.76230490358598657075 5.41209688564368018859 5.41209688564368018859 7.23699287667252466605 9.06188886770137180804 9.06188886770137180804 9.06188886770137180804 -0.06259108744285951653 1.76230490358598657075 9.06188886770137180804 7.23699287667252466605 3.58720089461483304660 3.58720089461483304660 5.41209688564368018859 3.58720089461483304660 9.06188886770137180804 5.41209688564368018859 3.58720089461483304660 3.58720089461483304660 5.41209688564368018859 1.76230490358598657075 3.58720089461483304660 5.41209688564368018859 5.41209688564368018859 9.06188886770137180804 12.71168084975906431566 12.71168084975906431566 5.41209688564368018859 1.76230490358598657075 1.76230490358598657075 7.23699287667252466605 9.06188886770137180804 9.06188886770137180804 7.23699287667252466605 -1.88748707847170593688 5.41209688564368018859 3.58720089461483304660 5.41209688564368018859 9.06188886770137180804 5.41209688564368018859 3.58720089461483304660 7.23699287667252466605 3.58720089461483304660 5.41209688564368018859 5.41209688564368018859 1.76230490358598657075 5.41209688564368018859 10.88678485873021806185 5.41209688564368018859 1.76230490358598657075 1.76230490358598657075 -3.71238306950055196864 5.41209688564368018859 5.41209688564368018859 7.23699287667252466605 3.58720089461483304660 5.41209688564368018859 1.76230490358598657075 5.41209688564368018859 9.06188886770137180804 5.41209688564368018859 7.23699287667252466605 5.41209688564368018859 1.76230490358598657075 1.76230490358598657075 7.23699287667252466605 5.41209688564368018859 5.41209688564368018859 5.41209688564368018859 7.23699287667252466605 5.41209688564368018859 5.41209688564368018859 7.23699287667252466605 3.58720089461483304660 1.76230490358598657075 5.41209688564368018859 9.06188886770137180804 1.76230490358598657075 1.76230490358598657075 3.58720089461483304660 3.58720089461483304660 3.58720089461483304660 5.41209688564368018859 1.76230490358598657075 5.41209688564368018859 1.76230490358598657075 1.76230490358598657075 3.58720089461483304660 3.58720089461483304660 1.76230490358598657075 -3.71238306950055196864 1.76230490358598657075 7.23699287667252466605 1.76230490358598657075 9.06188886770137180804 5.41209688564368018859 7.23699287667252466605 3.58720089461483304660 5.41209688564368018859 7.23699287667252466605 5.41209688564368018859 7.23699287667252466605 7.23699287667252466605 9.06188886770137180804 1.76230490358598657075 3.58720089461483304660 7.23699287667252466605 10.88678485873021806185 7.23699287667252466605 1.76230490358598657075 5.41209688564368018859 1.76230490358598657075 5.41209688564368018859 5.41209688564368018859 7.23699287667252466605 7.23699287667252466605 10.88678485873021806185 10.88678485873021806185 5.41209688564368018859 7.23699287667252466605 5.41209688564368018859 9.06188886770137180804 5.41209688564368018859 9.06188886770137180804 5.41209688564368018859 1.76230490358598657075 7.23699287667252466605 5.41209688564368018859 7.23699287667252466605 -0.06259108744285951653 5.41209688564368018859 7.23699287667252466605 5.41209688564368018859 5.41209688564368018859 5.41209688564368018859 5.41209688564368018859 -0.06259108744285951653 -0.06259108744285951653 3.58720089461483304660 -3.71238306950055196864 3.58720089461483304660 5.41209688564368018859 3.58720089461483304660 5.41209688564368018859 1.76230490358598657075 -0.06259108744285951653 -3.71238306950055196864 1.76230490358598657075 3.58720089461483304660 1.76230490358598657075 3.58720089461483304660 5.41209688564368018859 3.58720089461483304660 1.76230490358598657075 -0.06259108744285951653 -0.06259108744285951653 -0.06259108744285951653 -1.88748707847170593688 1.76230490358598657075 -0.06259108744285951653 -3.71238306950055196864 1.76230490358598657075 -0.06259108744285951653 5.41209688564368018859 -5.53727906052939822246 -0.06259108744285951653 5.41209688564368018859 -0.06259108744285951653 1.76230490358598657075 -0.06259108744285951653 -1.88748707847170593688 1.76230490358598657075 -0.06259108744285951653 1.76230490358598657075 -0.06259108744285951653 -0.06259108744285951653 -0.06259108744285951653 1.76230490358598657075 -0.06259108744285951653 -1.88748707847170593688 3.58720089461483304660 5.41209688564368018859 -1.88748707847170593688 1.76230490358598657075 -0.06259108744285951653 1.76230490358598657075 -0.06259108744285951653 -1.88748707847170593688 -0.06259108744285951653 3.58720089461483304660 1.76230490358598657075 1.76230490358598657075 3.58720089461483304660 1.76230490358598657075 3.58720089461483304660 7.23699287667252466605 -1.88748707847170593688 -1.88748707847170593688 -3.71238306950055196864 5.41209688564368018859 7.23699287667252466605 7.23699287667252466605 3.58720089461483304660 3.58720089461483304660 3.58720089461483304660 -0.06259108744285951653 3.58720089461483304660 5.41209688564368018859 -0.06259108744285951653 3.58720089461483304660 1.76230490358598657075 3.58720089461483304660 3.58720089461483304660 5.41209688564368018859 -0.06259108744285951653 1.76230490358598657075 -0.06259108744285951653 3.58720089461483304660 5.41209688564368018859 -0.06259108744285951653 7.23699287667252466605 14.53657684078791056947 5.41209688564368018859 3.58720089461483304660 1.76230490358598657075 3.58720089461483304660 3.58720089461483304660 9.06188886770137180804 7.23699287667252466605 1.76230490358598657075 5.41209688564368018859 3.58720089461483304660 1.76230490358598657075 1.76230490358598657075 5.41209688564368018859 5.41209688564368018859 5.41209688564368018859 5.41209688564368018859 3.58720089461483304660 3.58720089461483304660 -0.06259108744285951653 5.41209688564368018859 1.76230490358598657075 5.41209688564368018859 -0.06259108744285951653 5.41209688564368018859 1.76230490358598657075 -0.06259108744285951653 -0.06259108744285951653 -0.06259108744285951653 5.41209688564368018859 3.58720089461483304660 3.58720089461483304660 3.58720089461483304660 7.23699287667252466605 1.76230490358598657075 5.41209688564368018859 -0.06259108744285951653 1.76230490358598657075 3.58720089461483304660 5.41209688564368018859 1.76230490358598657075 -1.88748707847170593688 1.76230490358598657075 -1.88748707847170593688 9.06188886770137180804 5.41209688564368018859 1.76230490358598657075 5.41209688564368018859 -0.06259108744285951653 1.76230490358598657075 5.41209688564368018859 3.58720089461483304660 5.41209688564368018859 -0.06259108744285951653 1.76230490358598657075 -0.06259108744285951653 1.76230490358598657075 -1.88748707847170593688 1.76230490358598657075 -0.06259108744285951653 3.58720089461483304660 -0.06259108744285951653 -0.06259108744285951653 1.76230490358598657075 1.76230490358598657075 1.76230490358598657075 5.41209688564368018859 3.58720089461483304660 3.58720089461483304660 -0.06259108744285951653 1.76230490358598657075 5.41209688564368018859 3.58720089461483304660 3.58720089461483304660 3.58720089461483304660 1.76230490358598657075 3.58720089461483304660 1.76230490358598657075 7.23699287667252466605 5.41209688564368018859 5.41209688564368018859 5.41209688564368018859 5.41209688564368018859 3.58720089461483304660 5.41209688564368018859 7.23699287667252466605 3.58720089461483304660 9.06188886770137180804 5.41209688564368018859 7.23699287667252466605 3.58720089461483304660 7.23699287667252466605 1.76230490358598657075 10.88678485873021806185 10.88678485873021806185 10.88678485873021806185 7.23699287667252466605 3.58720089461483304660 3.58720089461483304660 12.71168084975906431566 5.41209688564368018859 7.23699287667252466605 5.41209688564368018859 3.58720089461483304660 3.58720089461483304660 7.23699287667252466605 9.06188886770137180804 9.06188886770137180804 12.71168084975906431566 7.23699287667252466605 10.88678485873021806185 7.23699287667252466605 7.23699287667252466605 10.88678485873021806185 10.88678485873021806185 5.41209688564368018859 9.06188886770137180804 9.06188886770137180804 5.41209688564368018859 7.23699287667252466605 3.58720089461483304660 5.41209688564368018859 12.71168084975906431566 5.41209688564368018859 10.88678485873021806185 9.06188886770137180804 12.71168084975906431566 -0.06259108744285951653 7.23699287667252466605 3.58720089461483304660 7.23699287667252466605 9.06188886770137180804 5.41209688564368018859 5.41209688564368018859 5.41209688564368018859 7.23699287667252466605 3.58720089461483304660 9.06188886770137180804 5.41209688564368018859 3.58720089461483304660 3.58720089461483304660 3.58720089461483304660 5.41209688564368018859 5.41209688564368018859 5.41209688564368018859 1.76230490358598657075 5.41209688564368018859 3.58720089461483304660 7.23699287667252466605 -0.06259108744285951653 5.41209688564368018859 7.23699287667252466605 3.58720089461483304660 3.58720089461483304660 1.76230490358598657075 -1.88748707847170593688 3.58720089461483304660 5.41209688564368018859 -1.88748707847170593688 -1.88748707847170593688 1.76230490358598657075 1.76230490358598657075 -0.06259108744285951653 3.58720089461483304660 -0.06259108744285951653 1.76230490358598657075 -0.06259108744285951653 3.58720089461483304660 1.76230490358598657075 3.58720089461483304660 -1.88748707847170593688 3.58720089461483304660 1.76230490358598657075 -1.88748707847170593688 -0.06259108744285951653 3.58720089461483304660 -0.06259108744285951653 1.76230490358598657075 9.06188886770137180804 1.76230490358598657075 -1.88748707847170593688 1.76230490358598657075 1.76230490358598657075 -0.06259108744285951653 -0.06259108744285951653 -0.06259108744285951653 5.41209688564368018859 5.41209688564368018859 -3.71238306950055196864 1.76230490358598657075 -0.06259108744285951653 -0.06259108744285951653 -0.06259108744285951653 -3.71238306950055196864 1.76230490358598657075 1.76230490358598657075 -0.06259108744285951653 1.76230490358598657075 1.76230490358598657075 -0.06259108744285951653 3.58720089461483304660 3.58720089461483304660 3.58720089461483304660 1.76230490358598657075 3.58720089461483304660 5.41209688564368018859 -3.71238306950055196864 3.58720089461483304660 -3.71238306950055196864 3.58720089461483304660 3.58720089461483304660 7.23699287667252466605 3.58720089461483304660 5.41209688564368018859 -0.06259108744285951653 5.41209688564368018859 -0.06259108744285951653 -0.06259108744285951653 7.23699287667252466605 7.23699287667252466605 3.58720089461483304660 7.23699287667252466605 -0.06259108744285951653 5.41209688564368018859 1.76230490358598657075 5.41209688564368018859 7.23699287667252466605 -0.06259108744285951653 3.58720089461483304660 -1.88748707847170593688 -0.06259108744285951653 3.58720089461483304660 1.76230490358598657075 7.23699287667252466605 3.58720089461483304660 -1.88748707847170593688 5.41209688564368018859 3.58720089461483304660 3.58720089461483304660 5.41209688564368018859 5.41209688564368018859 5.41209688564368018859 5.41209688564368018859 -0.06259108744285951653 5.41209688564368018859 1.76230490358598657075 1.76230490358598657075 3.58720089461483304660 3.58720089461483304660 1.76230490358598657075 3.58720089461483304660 3.58720089461483304660 1.76230490358598657075 3.58720089461483304660 5.41209688564368018859 9.06188886770137180804 7.23699287667252466605 1.76230490358598657075 9.06188886770137180804 7.23699287667252466605 3.58720089461483304660 7.23699287667252466605 3.58720089461483304660 5.41209688564368018859 7.23699287667252466605 -0.06259108744285951653 3.58720089461483304660 7.23699287667252466605 3.58720089461483304660 5.41209688564368018859 1.76230490358598657075 3.58720089461483304660 3.58720089461483304660 5.41209688564368018859 3.58720089461483304660 7.23699287667252466605 1.76230490358598657075 -0.06259108744285951653 3.58720089461483304660 -1.88748707847170593688 -0.06259108744285951653 -1.88748707847170593688 5.41209688564368018859 -0.06259108744285951653 3.58720089461483304660 7.23699287667252466605 -0.06259108744285951653 1.76230490358598657075 -0.06259108744285951653 1.76230490358598657075 1.76230490358598657075 -0.06259108744285951653 1.76230490358598657075 3.58720089461483304660 3.58720089461483304660 -0.06259108744285951653 1.76230490358598657075 3.58720089461483304660 -3.71238306950055196864 3.58720089461483304660 1.76230490358598657075 -0.06259108744285951653 3.58720089461483304660 5.41209688564368018859 3.58720089461483304660 1.76230490358598657075 3.58720089461483304660 3.58720089461483304660 -0.06259108744285951653 -0.06259108744285951653 -3.71238306950055196864 1.76230490358598657075 1.76230490358598657075 -5.53727906052939822246 5.41209688564368018859 -1.88748707847170593688 -1.88748707847170593688 -0.06259108744285951653 -0.06259108744285951653 1.76230490358598657075 -1.88748707847170593688 5.41209688564368018859 -3.71238306950055196864 -1.88748707847170593688 -0.06259108744285951653 1.76230490358598657075 3.58720089461483304660 3.58720089461483304660 -0.06259108744285951653 1.76230490358598657075 5.41209688564368018859 3.58720089461483304660 -5.53727906052939822246 1.76230490358598657075 1.76230490358598657075 -0.06259108744285951653 -0.06259108744285951653 3.58720089461483304660 -0.06259108744285951653 3.58720089461483304660 -3.71238306950055196864 3.58720089461483304660 9.06188886770137180804 -1.88748707847170593688 1.76230490358598657075 -0.06259108744285951653 -0.06259108744285951653 3.58720089461483304660 7.23699287667252466605 3.58720089461483304660 5.41209688564368018859 -3.71238306950055196864 1.76230490358598657075 1.76230490358598657075 -0.06259108744285951653 -1.88748707847170593688 7.23699287667252466605 3.58720089461483304660 -0.06259108744285951653 5.41209688564368018859 -1.88748707847170593688 -1.88748707847170593688 3.58720089461483304660 3.58720089461483304660 1.76230490358598657075 7.23699287667252466605 3.58720089461483304660 1.76230490358598657075 7.23699287667252466605 3.58720089461483304660 5.41209688564368018859 5.41209688564368018859 5.41209688564368018859 1.76230490358598657075 -3.71238306950055196864 3.58720089461483304660 1.76230490358598657075 3.58720089461483304660 -1.88748707847170593688 7.23699287667252466605 3.58720089461483304660 -0.06259108744285951653 3.58720089461483304660 3.58720089461483304660 1.76230490358598657075 3.58720089461483304660 1.76230490358598657075 3.58720089461483304660 3.58720089461483304660 3.58720089461483304660 7.23699287667252466605 3.58720089461483304660 5.41209688564368018859 1.76230490358598657075 5.41209688564368018859 5.41209688564368018859 1.76230490358598657075 3.58720089461483304660 -0.06259108744285951653 3.58720089461483304660 -0.06259108744285951653 3.58720089461483304660 5.41209688564368018859 1.76230490358598657075 5.41209688564368018859 3.58720089461483304660 1.76230490358598657075 3.58720089461483304660 3.58720089461483304660 -0.06259108744285951653 -1.88748707847170593688 7.23699287667252466605 7.23699287667252466605 7.23699287667252466605 3.58720089461483304660 3.58720089461483304660 1.76230490358598657075 3.58720089461483304660 5.41209688564368018859 3.58720089461483304660 7.23699287667252466605 1.76230490358598657075 7.23699287667252466605 1.76230490358598657075 1.76230490358598657075 3.58720089461483304660 1.76230490358598657075 3.58720089461483304660 5.41209688564368018859 1.76230490358598657075 5.41209688564368018859 3.58720089461483304660 7.23699287667252466605 7.23699287667252466605 5.41209688564368018859 1.76230490358598657075 5.41209688564368018859 5.41209688564368018859 5.41209688564368018859 7.23699287667252466605 5.41209688564368018859 5.41209688564368018859 5.41209688564368018859 7.23699287667252466605 7.23699287667252466605 1.76230490358598657075 1.76230490358598657075 3.58720089461483304660 9.06188886770137180804 3.58720089461483304660 1.76230490358598657075 1.76230490358598657075 5.41209688564368018859 1.76230490358598657075 -0.06259108744285951653 3.58720089461483304660 7.23699287667252466605 -0.06259108744285951653 7.23699287667252466605 3.58720089461483304660 3.58720089461483304660 5.41209688564368018859 -0.06259108744285951653 3.58720089461483304660 1.76230490358598657075 5.41209688564368018859 1.76230490358598657075 1.76230490358598657075 3.58720089461483304660 5.41209688564368018859 3.58720089461483304660 -0.06259108744285951653 7.23699287667252466605 1.76230490358598657075 -0.06259108744285951653 3.58720089461483304660 3.58720089461483304660 3.58720089461483304660 5.41209688564368018859 1.76230490358598657075 3.58720089461483304660 -0.06259108744285951653 7.23699287667252466605 5.41209688564368018859 3.58720089461483304660 3.58720089461483304660 7.23699287667252466605 3.58720089461483304660 9.06188886770137180804 10.88678485873021806185 5.41209688564368018859 5.41209688564368018859 10.88678485873021806185 1.76230490358598657075 5.41209688564368018859 3.58720089461483304660 3.58720089461483304660 7.23699287667252466605 7.23699287667252466605 5.41209688564368018859 5.41209688564368018859 9.06188886770137180804 5.41209688564368018859 7.23699287667252466605 9.06188886770137180804 10.88678485873021806185 7.23699287667252466605 9.06188886770137180804 7.23699287667252466605 7.23699287667252466605 3.58720089461483304660 10.88678485873021806185 7.23699287667252466605 7.23699287667252466605 5.41209688564368018859 5.41209688564368018859 3.58720089461483304660 7.23699287667252466605 -0.06259108744285951653 5.41209688564368018859 1.76230490358598657075 -0.06259108744285951653 -0.06259108744285951653 1.76230490358598657075 5.41209688564368018859 7.23699287667252466605 3.58720089461483304660 5.41209688564368018859 7.23699287667252466605 10.88678485873021806185 3.58720089461483304660 9.06188886770137180804 3.58720089461483304660 -0.06259108744285951653 1.76230490358598657075 3.58720089461483304660 3.58720089461483304660 5.41209688564368018859 9.06188886770137180804 3.58720089461483304660 7.23699287667252466605 5.41209688564368018859 3.58720089461483304660 5.41209688564368018859 3.58720089461483304660 1.76230490358598657075 7.23699287667252466605 7.23699287667252466605 5.41209688564368018859 3.58720089461483304660 -0.06259108744285951653 -0.06259108744285951653 1.76230490358598657075 5.41209688564368018859 -3.71238306950055196864 5.41209688564368018859 3.58720089461483304660 5.41209688564368018859 1.76230490358598657075 -0.06259108744285951653 1.76230490358598657075 3.58720089461483304660 -0.06259108744285951653 -0.06259108744285951653 3.58720089461483304660 -0.06259108744285951653 1.76230490358598657075 3.58720089461483304660 5.41209688564368018859 3.58720089461483304660 5.41209688564368018859 7.23699287667252466605 -1.88748707847170593688 5.41209688564368018859 -0.06259108744285951653 1.76230490358598657075 1.76230490358598657075 7.23699287667252466605 5.41209688564368018859 3.58720089461483304660 1.76230490358598657075 1.76230490358598657075 1.76230490358598657075 3.58720089461483304660 3.58720089461483304660 3.58720089461483304660 1.76230490358598657075 -0.06259108744285951653 3.58720089461483304660 -1.88748707847170593688 1.76230490358598657075 5.41209688564368018859 -0.06259108744285951653 1.76230490358598657075 1.76230490358598657075 -0.06259108744285951653 1.76230490358598657075 9.06188886770137180804 1.76230490358598657075 -3.71238306950055196864 7.23699287667252466605 3.58720089461483304660 3.58720089461483304660 5.41209688564368018859 3.58720089461483304660 3.58720089461483304660 1.76230490358598657075 5.41209688564368018859 9.06188886770137180804 3.58720089461483304660 5.41209688564368018859 1.76230490358598657075 1.76230490358598657075 5.41209688564368018859 -0.06259108744285951653 1.76230490358598657075 3.58720089461483304660 7.23699287667252466605 5.41209688564368018859 9.06188886770137180804 7.23699287667252466605 1.76230490358598657075 1.76230490358598657075 5.41209688564368018859 3.58720089461483304660 7.23699287667252466605 5.41209688564368018859 5.41209688564368018859 5.41209688564368018859 3.58720089461483304660 1.76230490358598657075 10.88678485873021806185 9.06188886770137180804 9.06188886770137180804 3.58720089461483304660 7.23699287667252466605 3.58720089461483304660 7.23699287667252466605 5.41209688564368018859 9.06188886770137180804 1.76230490358598657075 7.23699287667252466605 7.23699287667252466605 9.06188886770137180804 7.23699287667252466605 3.58720089461483304660 1.76230490358598657075 7.23699287667252466605 3.58720089461483304660 7.23699287667252466605 9.06188886770137180804 10.88678485873021806185 5.41209688564368018859 3.58720089461483304660 7.23699287667252466605 3.58720089461483304660 9.06188886770137180804 3.58720089461483304660 1.76230490358598657075 5.41209688564368018859 7.23699287667252466605 -0.06259108744285951653 -0.06259108744285951653 7.23699287667252466605 3.58720089461483304660 7.23699287667252466605 7.23699287667252466605 5.41209688564368018859 -0.06259108744285951653 3.58720089461483304660 5.41209688564368018859 5.41209688564368018859 5.41209688564368018859 12.71168084975906431566 3.58720089461483304660 5.41209688564368018859 9.06188886770137180804 5.41209688564368018859 7.23699287667252466605 1.76230490358598657075 7.23699287667252466605 10.88678485873021806185 5.41209688564368018859 3.58720089461483304660 10.88678485873021806185 7.23699287667252466605 5.41209688564368018859 5.41209688564368018859 5.41209688564368018859 1.76230490358598657075 5.41209688564368018859 5.41209688564368018859 1.76230490358598657075 1.76230490358598657075 -0.06259108744285951653 3.58720089461483304660 5.41209688564368018859 1.76230490358598657075 5.41209688564368018859 1.76230490358598657075 -0.06259108744285951653 3.58720089461483304660 1.76230490358598657075 1.76230490358598657075 5.41209688564368018859 7.23699287667252466605 7.23699287667252466605 3.58720089461483304660 -5.53727906052939822246 1.76230490358598657075 3.58720089461483304660 3.58720089461483304660 3.58720089461483304660 9.06188886770137180804 5.41209688564368018859 7.23699287667252466605 -1.88748707847170593688 1.76230490358598657075 1.76230490358598657075 1.76230490358598657075 1.76230490358598657075 1.76230490358598657075 5.41209688564368018859 -1.88748707847170593688 1.76230490358598657075 -0.06259108744285951653 3.58720089461483304660 1.76230490358598657075 5.41209688564368018859 3.58720089461483304660 3.58720089461483304660 1.76230490358598657075 -0.06259108744285951653 -0.06259108744285951653 -1.88748707847170593688 -0.06259108744285951653 1.76230490358598657075 -1.88748707847170593688 -0.06259108744285951653 -0.06259108744285951653 -0.06259108744285951653 3.58720089461483304660 1.76230490358598657075 -0.06259108744285951653 9.06188886770137180804 5.41209688564368018859 -0.06259108744285951653 1.76230490358598657075 -0.06259108744285951653 3.58720089461483304660 -0.06259108744285951653 3.58720089461483304660 -0.06259108744285951653 -0.06259108744285951653 3.58720089461483304660 1.76230490358598657075 3.58720089461483304660 -3.71238306950055196864 1.76230490358598657075 1.76230490358598657075 5.41209688564368018859 1.76230490358598657075 3.58720089461483304660 5.41209688564368018859 -1.88748707847170593688 1.76230490358598657075 3.58720089461483304660 3.58720089461483304660 9.06188886770137180804 3.58720089461483304660 -0.06259108744285951653 3.58720089461483304660 -0.06259108744285951653 -3.71238306950055196864 -1.88748707847170593688 5.41209688564368018859 3.58720089461483304660 7.23699287667252466605 5.41209688564368018859 3.58720089461483304660 -0.06259108744285951653 1.76230490358598657075 5.41209688564368018859 1.76230490358598657075 -0.06259108744285951653 10.88678485873021806185 3.58720089461483304660 3.58720089461483304660 1.76230490358598657075 1.76230490358598657075 3.58720089461483304660 3.58720089461483304660 5.41209688564368018859 7.23699287667252466605 1.76230490358598657075 9.06188886770137180804 3.58720089461483304660 5.41209688564368018859 5.41209688564368018859 3.58720089461483304660 1.76230490358598657075 3.58720089461483304660 7.23699287667252466605 7.23699287667252466605 3.58720089461483304660 1.76230490358598657075 5.41209688564368018859 1.76230490358598657075 1.76230490358598657075 5.41209688564368018859 5.41209688564368018859 5.41209688564368018859 5.41209688564368018859 9.06188886770137180804 5.41209688564368018859 5.41209688564368018859 5.41209688564368018859 3.58720089461483304660 3.58720089461483304660 9.06188886770137180804 5.41209688564368018859 7.23699287667252466605 5.41209688564368018859 3.58720089461483304660 9.06188886770137180804 3.58720089461483304660 1.76230490358598657075 7.23699287667252466605 1.76230490358598657075 3.58720089461483304660 -0.06259108744285951653 5.41209688564368018859 9.06188886770137180804 3.58720089461483304660 3.58720089461483304660 5.41209688564368018859 3.58720089461483304660 1.76230490358598657075 3.58720089461483304660 1.76230490358598657075 3.58720089461483304660 3.58720089461483304660 1.76230490358598657075 1.76230490358598657075 -0.06259108744285951653 5.41209688564368018859 9.06188886770137180804 1.76230490358598657075 3.58720089461483304660 1.76230490358598657075 1.76230490358598657075 -1.88748707847170593688 1.76230490358598657075 -0.06259108744285951653 5.41209688564368018859 -0.06259108744285951653 5.41209688564368018859 1.76230490358598657075 1.76230490358598657075 1.76230490358598657075 3.58720089461483304660 5.41209688564368018859 1.76230490358598657075 1.76230490358598657075 5.41209688564368018859 5.41209688564368018859 3.58720089461483304660 3.58720089461483304660 5.41209688564368018859 3.58720089461483304660 1.76230490358598657075 -1.88748707847170593688 3.58720089461483304660 5.41209688564368018859 9.06188886770137180804 1.76230490358598657075 7.23699287667252466605 5.41209688564368018859 7.23699287667252466605 5.41209688564368018859 7.23699287667252466605 7.23699287667252466605 7.23699287667252466605 -1.88748707847170593688 5.41209688564368018859 5.41209688564368018859 -0.06259108744285951653 3.58720089461483304660 7.23699287667252466605 -0.06259108744285951653 7.23699287667252466605 5.41209688564368018859 5.41209688564368018859 7.23699287667252466605 3.58720089461483304660 3.58720089461483304660 1.76230490358598657075 5.41209688564368018859 5.41209688564368018859 -0.06259108744285951653 7.23699287667252466605 7.23699287667252466605 5.41209688564368018859 7.23699287667252466605 7.23699287667252466605 3.58720089461483304660 1.76230490358598657075 7.23699287667252466605 3.58720089461483304660 7.23699287667252466605 5.41209688564368018859 7.23699287667252466605 3.58720089461483304660 3.58720089461483304660 -1.88748707847170593688 3.58720089461483304660 5.41209688564368018859 9.06188886770137180804 5.41209688564368018859 3.58720089461483304660 5.41209688564368018859 3.58720089461483304660 1.76230490358598657075 3.58720089461483304660 7.23699287667252466605 7.23699287667252466605 3.58720089461483304660 1.76230490358598657075 1.76230490358598657075 5.41209688564368018859 7.23699287667252466605 1.76230490358598657075 5.41209688564368018859 3.58720089461483304660 1.76230490358598657075 1.76230490358598657075 1.76230490358598657075 1.76230490358598657075 3.58720089461483304660 3.58720089461483304660 3.58720089461483304660 1.76230490358598657075 -3.71238306950055196864 -0.06259108744285951653 5.41209688564368018859 3.58720089461483304660 -1.88748707847170593688 1.76230490358598657075 -5.53727906052939822246 -1.88748707847170593688 -12.83686302464478501406 -11.01196703361593876025 -5.53727906052939822246 -7.36217505155824536445 -7.36217505155824536445 -7.36217505155824536445 -7.36217505155824536445 -9.18707104258709250644 -1.88748707847170593688 -5.53727906052939822246 -5.53727906052939822246 -1.88748707847170593688 -7.36217505155824536445 -7.36217505155824536445 -9.18707104258709250644 -1.88748707847170593688 -3.71238306950055196864 -11.01196703361593876025 -1.88748707847170593688 -7.36217505155824536445 -3.71238306950055196864 -5.53727906052939822246 -7.36217505155824536445 -5.53727906052939822246 -9.18707104258709250644 -9.18707104258709250644 -1.88748707847170593688 -3.71238306950055196864 -3.71238306950055196864 -7.36217505155824536445 -3.71238306950055196864 -5.53727906052939822246 -0.06259108744285951653 -7.36217505155824536445 -1.88748707847170593688 -5.53727906052939822246 -0.06259108744285951653 -7.36217505155824536445 -1.88748707847170593688 -1.88748707847170593688 -3.71238306950055196864 -3.71238306950055196864 -1.88748707847170593688 -7.36217505155824536445 -9.18707104258709250644 -11.01196703361593876025 -1.88748707847170593688 -1.88748707847170593688 -1.88748707847170593688 -3.71238306950055196864 -12.83686302464478501406 -5.53727906052939822246 -7.36217505155824536445 -7.36217505155824536445 -7.36217505155824536445 -5.53727906052939822246 -3.71238306950055196864 -9.18707104258709250644 -9.18707104258709250644 -9.18707104258709250644 -7.36217505155824536445 -7.36217505155824536445 -3.71238306950055196864 -7.36217505155824536445 -11.01196703361593876025 -11.01196703361593876025 -9.18707104258709250644 -7.36217505155824536445 -9.18707104258709250644 -7.36217505155824536445 -7.36217505155824536445 -7.36217505155824536445 -3.71238306950055196864 -5.53727906052939822246 -5.53727906052939822246 -7.36217505155824536445 -7.36217505155824536445 -11.01196703361593876025 -7.36217505155824536445 -9.18707104258709250644 -3.71238306950055196864 -1.88748707847170593688 -3.71238306950055196864 -3.71238306950055196864 -12.83686302464478501406 -3.71238306950055196864 -3.71238306950055196864 -3.71238306950055196864 -3.71238306950055196864 -0.06259108744285951653 -9.18707104258709250644 -3.71238306950055196864 -7.36217505155824536445 -9.18707104258709250644 -11.01196703361593876025 -3.71238306950055196864 -7.36217505155824536445 -11.01196703361593876025 -7.36217505155824536445 -5.53727906052939822246 -7.36217505155824536445 -1.88748707847170593688 -9.18707104258709250644 -7.36217505155824536445 -5.53727906052939822246 -3.71238306950055196864 -5.53727906052939822246 -1.88748707847170593688 -7.36217505155824536445 -5.53727906052939822246 -7.36217505155824536445 -7.36217505155824536445 -5.53727906052939822246 -7.36217505155824536445 -7.36217505155824536445 -3.71238306950055196864 -7.36217505155824536445 -12.83686302464478501406 -5.53727906052939822246 -1.88748707847170593688 -5.53727906052939822246 -5.53727906052939822246 -5.53727906052939822246 -5.53727906052939822246 -5.53727906052939822246 -0.06259108744285951653 -5.53727906052939822246 -5.53727906052939822246 -5.53727906052939822246 -7.36217505155824536445 -5.53727906052939822246 -7.36217505155824536445 -5.53727906052939822246 -3.71238306950055196864 -5.53727906052939822246 -1.88748707847170593688 -5.53727906052939822246 -3.71238306950055196864 -3.71238306950055196864 -1.88748707847170593688 -7.36217505155824536445 -3.71238306950055196864 -3.71238306950055196864 -7.36217505155824536445 -0.06259108744285951653 -1.88748707847170593688 -3.71238306950055196864 -1.88748707847170593688 -9.18707104258709250644 -3.71238306950055196864 -5.53727906052939822246 -3.71238306950055196864 -0.06259108744285951653 -0.06259108744285951653 -7.36217505155824536445 -3.71238306950055196864 -1.88748707847170593688 -0.06259108744285951653 -5.53727906052939822246 -1.88748707847170593688 -5.53727906052939822246 -1.88748707847170593688 -1.88748707847170593688 -1.88748707847170593688 -3.71238306950055196864 -1.88748707847170593688 -0.06259108744285951653 1.76230490358598657075 -1.88748707847170593688 -1.88748707847170593688 -5.53727906052939822246 -1.88748707847170593688 1.76230490358598657075 1.76230490358598657075 1.76230490358598657075 -1.88748707847170593688 -1.88748707847170593688 1.76230490358598657075 7.23699287667252466605 -1.88748707847170593688 -3.71238306950055196864 -1.88748707847170593688 -0.06259108744285951653 1.76230490358598657075 3.58720089461483304660 3.58720089461483304660 -0.06259108744285951653 -0.06259108744285951653 -0.06259108744285951653 -0.06259108744285951653 -0.06259108744285951653 -0.06259108744285951653 -3.71238306950055196864 -1.88748707847170593688 1.76230490358598657075 3.58720089461483304660 -0.06259108744285951653 -3.71238306950055196864 1.76230490358598657075 3.58720089461483304660 -0.06259108744285951653 -1.88748707847170593688 3.58720089461483304660 -1.88748707847170593688 -0.06259108744285951653 5.41209688564368018859 3.58720089461483304660 -1.88748707847170593688 -0.06259108744285951653 -1.88748707847170593688 1.76230490358598657075 5.41209688564368018859 -1.88748707847170593688 -1.88748707847170593688 -1.88748707847170593688 -3.71238306950055196864 3.58720089461483304660 -0.06259108744285951653 1.76230490358598657075 -3.71238306950055196864 -0.06259108744285951653 1.76230490358598657075 -0.06259108744285951653 1.76230490358598657075 1.76230490358598657075 3.58720089461483304660 -1.88748707847170593688 -0.06259108744285951653 1.76230490358598657075 -0.06259108744285951653 3.58720089461483304660 -0.06259108744285951653 1.76230490358598657075 -0.06259108744285951653 1.76230490358598657075 -1.88748707847170593688 -3.71238306950055196864 -0.06259108744285951653 3.58720089461483304660 -1.88748707847170593688 -0.06259108744285951653 -1.88748707847170593688 -1.88748707847170593688 3.58720089461483304660 -1.88748707847170593688 3.58720089461483304660 -1.88748707847170593688 1.76230490358598657075 3.58720089461483304660 -0.06259108744285951653 1.76230490358598657075 1.76230490358598657075 -1.88748707847170593688 3.58720089461483304660 -0.06259108744285951653 -3.71238306950055196864 3.58720089461483304660 -0.06259108744285951653 -0.06259108744285951653 -0.06259108744285951653 -1.88748707847170593688 -1.88748707847170593688 -0.06259108744285951653 -1.88748707847170593688 -3.71238306950055196864 -1.88748707847170593688 -3.71238306950055196864 -5.53727906052939822246 -1.88748707847170593688 -1.88748707847170593688 -3.71238306950055196864 -5.53727906052939822246 -5.53727906052939822246 -5.53727906052939822246 -3.71238306950055196864 -5.53727906052939822246 -5.53727906052939822246 -5.53727906052939822246 -3.71238306950055196864 -0.06259108744285951653 -3.71238306950055196864 -1.88748707847170593688 -11.01196703361593876025 -9.18707104258709250644 -1.88748707847170593688 -5.53727906052939822246 -3.71238306950055196864 -7.36217505155824536445 -7.36217505155824536445 -5.53727906052939822246 -5.53727906052939822246 -9.18707104258709250644 -9.18707104258709250644 -3.71238306950055196864 -3.71238306950055196864 -3.71238306950055196864 -5.53727906052939822246 -7.36217505155824536445 -9.18707104258709250644 -5.53727906052939822246 -7.36217505155824536445 -11.01196703361593876025 -9.18707104258709250644 -11.01196703361593876025 -9.18707104258709250644 -9.18707104258709250644 -11.01196703361593876025 -5.53727906052939822246 -7.36217505155824536445 -11.01196703361593876025 -12.83686302464478501406 -12.83686302464478501406 -9.18707104258709250644 -5.53727906052939822246 -9.18707104258709250644 -9.18707104258709250644 -7.36217505155824536445 -9.18707104258709250644 -9.18707104258709250644 -9.18707104258709250644 -7.36217505155824536445 -3.71238306950055196864 -9.18707104258709250644 -11.01196703361593876025 -12.83686302464478501406 -9.18707104258709250644 -12.83686302464478501406 -11.01196703361593876025 -14.66175901567362949152 -5.53727906052939822246 -9.18707104258709250644 -5.53727906052939822246 -11.01196703361593876025 -7.36217505155824536445 -9.18707104258709250644 -9.18707104258709250644 -7.36217505155824536445 -7.36217505155824536445 -11.01196703361593876025 -11.01196703361593876025 -11.01196703361593876025 -9.18707104258709250644 -5.53727906052939822246 -5.53727906052939822246 -7.36217505155824536445 -5.53727906052939822246 -5.53727906052939822246 -11.01196703361593876025 -9.18707104258709250644 -7.36217505155824536445 -1.88748707847170593688 -11.01196703361593876025 -7.36217505155824536445 -9.18707104258709250644 -7.36217505155824536445 -5.53727906052939822246 -3.71238306950055196864 -1.88748707847170593688 -3.71238306950055196864 -5.53727906052939822246 -3.71238306950055196864 -5.53727906052939822246 -0.06259108744285951653 -3.71238306950055196864 -3.71238306950055196864 -3.71238306950055196864 -3.71238306950055196864 -0.06259108744285951653 -3.71238306950055196864 -1.88748707847170593688 -3.71238306950055196864 -0.06259108744285951653 -1.88748707847170593688 -0.06259108744285951653 -0.06259108744285951653 -3.71238306950055196864 -0.06259108744285951653 -1.88748707847170593688 -5.53727906052939822246 -1.88748707847170593688 -1.88748707847170593688 -0.06259108744285951653 -3.71238306950055196864 1.76230490358598657075 1.76230490358598657075 -1.88748707847170593688 -5.53727906052939822246 -1.88748707847170593688 -0.06259108744285951653 1.76230490358598657075 -1.88748707847170593688 -0.06259108744285951653 -1.88748707847170593688 1.76230490358598657075 1.76230490358598657075 -1.88748707847170593688 -3.71238306950055196864 1.76230490358598657075 -0.06259108744285951653 1.76230490358598657075 -5.53727906052939822246 3.58720089461483304660 1.76230490358598657075 -3.71238306950055196864 -3.71238306950055196864 -1.88748707847170593688 1.76230490358598657075 -7.36217505155824536445 -3.71238306950055196864 -1.88748707847170593688 -0.06259108744285951653 -3.71238306950055196864 1.76230490358598657075 -3.71238306950055196864 -0.06259108744285951653 -0.06259108744285951653 -3.71238306950055196864 -0.06259108744285951653 -3.71238306950055196864 -1.88748707847170593688 -3.71238306950055196864 -1.88748707847170593688 -3.71238306950055196864 -5.53727906052939822246 -5.53727906052939822246 -0.06259108744285951653 -5.53727906052939822246 -0.06259108744285951653 -0.06259108744285951653 -5.53727906052939822246 -5.53727906052939822246 -1.88748707847170593688 -5.53727906052939822246 -1.88748707847170593688 -3.71238306950055196864 -1.88748707847170593688 -5.53727906052939822246 -3.71238306950055196864 -1.88748707847170593688 -7.36217505155824536445 -3.71238306950055196864 -7.36217505155824536445 -3.71238306950055196864 -3.71238306950055196864 -5.53727906052939822246 -5.53727906052939822246 -1.88748707847170593688 -5.53727906052939822246 -5.53727906052939822246 -3.71238306950055196864 -1.88748707847170593688 -9.18707104258709250644 -3.71238306950055196864 -3.71238306950055196864 -3.71238306950055196864 -1.88748707847170593688 1.76230490358598657075 -3.71238306950055196864 -1.88748707847170593688 -1.88748707847170593688 -1.88748707847170593688 -5.53727906052939822246 -5.53727906052939822246 -0.06259108744285951653 3.58720089461483304660 -0.06259108744285951653 -1.88748707847170593688 -1.88748707847170593688 -0.06259108744285951653 -0.06259108744285951653 -0.06259108744285951653 3.58720089461483304660 -3.71238306950055196864 -5.53727906052939822246 -5.53727906052939822246 -0.06259108744285951653 -9.18707104258709250644 -5.53727906052939822246 -1.88748707847170593688 -3.71238306950055196864 -3.71238306950055196864 -3.71238306950055196864 -0.06259108744285951653 -1.88748707847170593688 -5.53727906052939822246 -9.18707104258709250644 -3.71238306950055196864 -1.88748707847170593688 -3.71238306950055196864 1.76230490358598657075 -5.53727906052939822246 -9.18707104258709250644 -9.18707104258709250644 -5.53727906052939822246 -3.71238306950055196864 -5.53727906052939822246 -3.71238306950055196864 -5.53727906052939822246 -7.36217505155824536445 -3.71238306950055196864 -7.36217505155824536445 -1.88748707847170593688 -1.88748707847170593688 -5.53727906052939822246 -5.53727906052939822246 -1.88748707847170593688 -5.53727906052939822246 -9.18707104258709250644 -3.71238306950055196864 -5.53727906052939822246 -5.53727906052939822246 -7.36217505155824536445 -3.71238306950055196864 -5.53727906052939822246 -1.88748707847170593688 -5.53727906052939822246 -7.36217505155824536445 -7.36217505155824536445 -1.88748707847170593688 -7.36217505155824536445 -3.71238306950055196864 -5.53727906052939822246 -7.36217505155824536445 -3.71238306950055196864 -5.53727906052939822246 -1.88748707847170593688 -3.71238306950055196864 -3.71238306950055196864 -0.06259108744285951653 -5.53727906052939822246 -5.53727906052939822246 -3.71238306950055196864 -1.88748707847170593688 -0.06259108744285951653 -7.36217505155824536445 -5.53727906052939822246 -5.53727906052939822246 -5.53727906052939822246 -7.36217505155824536445 -5.53727906052939822246 -5.53727906052939822246 -5.53727906052939822246 -3.71238306950055196864 -0.06259108744285951653 -1.88748707847170593688 -1.88748707847170593688 -5.53727906052939822246 -5.53727906052939822246 -5.53727906052939822246 -5.53727906052939822246 -7.36217505155824536445 -1.88748707847170593688 -5.53727906052939822246 -3.71238306950055196864 -3.71238306950055196864 -3.71238306950055196864 -1.88748707847170593688 -3.71238306950055196864 -7.36217505155824536445 -5.53727906052939822246 -0.06259108744285951653 -3.71238306950055196864 -5.53727906052939822246 -1.88748707847170593688 -1.88748707847170593688 -5.53727906052939822246 -3.71238306950055196864 -1.88748707847170593688 1.76230490358598657075 -7.36217505155824536445 -5.53727906052939822246 -1.88748707847170593688 -1.88748707847170593688 -5.53727906052939822246 -0.06259108744285951653 -3.71238306950055196864 -7.36217505155824536445 -5.53727906052939822246 -3.71238306950055196864 -5.53727906052939822246 -3.71238306950055196864 -7.36217505155824536445 -5.53727906052939822246 -5.53727906052939822246 -11.01196703361593876025 -5.53727906052939822246 -9.18707104258709250644 -5.53727906052939822246 -7.36217505155824536445 -1.88748707847170593688 -3.71238306950055196864 -7.36217505155824536445 1.76230490358598657075 -3.71238306950055196864 -3.71238306950055196864 -3.71238306950055196864 -1.88748707847170593688 -1.88748707847170593688 -5.53727906052939822246 -7.36217505155824536445 -1.88748707847170593688 -3.71238306950055196864 -3.71238306950055196864 -1.88748707847170593688 -3.71238306950055196864 -0.06259108744285951653 -9.18707104258709250644 -3.71238306950055196864 -0.06259108744285951653 -7.36217505155824536445 -1.88748707847170593688 -5.53727906052939822246 -3.71238306950055196864 -3.71238306950055196864 -3.71238306950055196864 -5.53727906052939822246 -3.71238306950055196864 -9.18707104258709250644 -3.71238306950055196864 -3.71238306950055196864 -3.71238306950055196864 -7.36217505155824536445 -5.53727906052939822246 -3.71238306950055196864 -0.06259108744285951653 -5.53727906052939822246 -0.06259108744285951653 -7.36217505155824536445 -9.18707104258709250644 -3.71238306950055196864 -3.71238306950055196864 -7.36217505155824536445 -3.71238306950055196864 -7.36217505155824536445 -5.53727906052939822246 -5.53727906052939822246 -5.53727906052939822246 -3.71238306950055196864 -5.53727906052939822246 -3.71238306950055196864 -7.36217505155824536445 -7.36217505155824536445 -0.06259108744285951653 -1.88748707847170593688 -7.36217505155824536445 -5.53727906052939822246 -9.18707104258709250644 -7.36217505155824536445 -9.18707104258709250644 -3.71238306950055196864 -3.71238306950055196864 -9.18707104258709250644 -5.53727906052939822246 -7.36217505155824536445 -9.18707104258709250644 -9.18707104258709250644 -9.18707104258709250644 -9.18707104258709250644 -7.36217505155824536445 -3.71238306950055196864 -7.36217505155824536445 -5.53727906052939822246 -3.71238306950055196864 -7.36217505155824536445 -5.53727906052939822246 -7.36217505155824536445 -3.71238306950055196864 -3.71238306950055196864 -3.71238306950055196864 -7.36217505155824536445 -3.71238306950055196864 -3.71238306950055196864 -7.36217505155824536445 -5.53727906052939822246 -7.36217505155824536445 -5.53727906052939822246 -7.36217505155824536445 -9.18707104258709250644 -3.71238306950055196864 -5.53727906052939822246 -1.88748707847170593688 -5.53727906052939822246 -9.18707104258709250644 -7.36217505155824536445 -3.71238306950055196864 -5.53727906052939822246 -1.88748707847170593688 -7.36217505155824536445 -7.36217505155824536445 -9.18707104258709250644 -7.36217505155824536445 -5.53727906052939822246 -7.36217505155824536445 -5.53727906052939822246 -3.71238306950055196864 -7.36217505155824536445 -5.53727906052939822246 -7.36217505155824536445 -7.36217505155824536445 -12.83686302464478501406 -7.36217505155824536445 -7.36217505155824536445 -7.36217505155824536445 -3.71238306950055196864 -7.36217505155824536445 -5.53727906052939822246 -5.53727906052939822246 -7.36217505155824536445 -7.36217505155824536445 -1.88748707847170593688 -7.36217505155824536445 -7.36217505155824536445 -7.36217505155824536445 -7.36217505155824536445 -3.71238306950055196864 -3.71238306950055196864 -0.06259108744285951653 -7.36217505155824536445 -7.36217505155824536445 -0.06259108744285951653 -7.36217505155824536445 -11.01196703361593876025 -5.53727906052939822246 -3.71238306950055196864 -1.88748707847170593688 -5.53727906052939822246 -5.53727906052939822246 -7.36217505155824536445 -7.36217505155824536445 -3.71238306950055196864 -1.88748707847170593688 -7.36217505155824536445 -7.36217505155824536445 -1.88748707847170593688 -3.71238306950055196864 -7.36217505155824536445 -3.71238306950055196864 -3.71238306950055196864 -7.36217505155824536445 -5.53727906052939822246 -9.18707104258709250644 -9.18707104258709250644 -5.53727906052939822246 -5.53727906052939822246 -9.18707104258709250644 -9.18707104258709250644 -0.06259108744285951653 -7.36217505155824536445 -5.53727906052939822246 -7.36217505155824536445 -5.53727906052939822246 -7.36217505155824536445 -11.01196703361593876025 -3.71238306950055196864 -7.36217505155824536445 -3.71238306950055196864 -11.01196703361593876025 -9.18707104258709250644 -9.18707104258709250644 -5.53727906052939822246 -9.18707104258709250644 -5.53727906052939822246 -5.53727906052939822246 -7.36217505155824536445 -5.53727906052939822246 -7.36217505155824536445 -7.36217505155824536445 -9.18707104258709250644 -5.53727906052939822246 -7.36217505155824536445 -11.01196703361593876025 -3.71238306950055196864 -3.71238306950055196864 -9.18707104258709250644 -3.71238306950055196864 -3.71238306950055196864 -3.71238306950055196864 -11.01196703361593876025 -5.53727906052939822246 -7.36217505155824536445 -5.53727906052939822246 -5.53727906052939822246 -7.36217505155824536445 -7.36217505155824536445 -5.53727906052939822246 -1.88748707847170593688 -7.36217505155824536445 -3.71238306950055196864 -3.71238306950055196864 -3.71238306950055196864 -1.88748707847170593688 -5.53727906052939822246 -5.53727906052939822246 -5.53727906052939822246 -9.18707104258709250644 -5.53727906052939822246 -5.53727906052939822246 -7.36217505155824536445 -3.71238306950055196864 -3.71238306950055196864 -9.18707104258709250644 -7.36217505155824536445 -1.88748707847170593688 -5.53727906052939822246 -9.18707104258709250644 -5.53727906052939822246 -1.88748707847170593688 -3.71238306950055196864 -7.36217505155824536445 -11.01196703361593876025 -5.53727906052939822246 -5.53727906052939822246 -5.53727906052939822246 -5.53727906052939822246 -5.53727906052939822246 -5.53727906052939822246 -3.71238306950055196864 -5.53727906052939822246 -9.18707104258709250644 -7.36217505155824536445 -5.53727906052939822246 -9.18707104258709250644 -5.53727906052939822246 -7.36217505155824536445 -7.36217505155824536445 -5.53727906052939822246 -3.71238306950055196864 -5.53727906052939822246 -3.71238306950055196864 -5.53727906052939822246 -1.88748707847170593688 -0.06259108744285951653 -7.36217505155824536445 -5.53727906052939822246 -5.53727906052939822246 -7.36217505155824536445 -12.83686302464478501406 -5.53727906052939822246 -3.71238306950055196864 -5.53727906052939822246 -9.18707104258709250644 -7.36217505155824536445 -3.71238306950055196864 -3.71238306950055196864 -3.71238306950055196864 -5.53727906052939822246 -7.36217505155824536445 -11.01196703361593876025 -3.71238306950055196864 -0.06259108744285951653 -3.71238306950055196864 -3.71238306950055196864 -3.71238306950055196864 -1.88748707847170593688 -3.71238306950055196864 -3.71238306950055196864 -3.71238306950055196864 -3.71238306950055196864 -1.88748707847170593688 -7.36217505155824536445 -5.53727906052939822246 -3.71238306950055196864 -9.18707104258709250644 -1.88748707847170593688 -7.36217505155824536445 -3.71238306950055196864 -5.53727906052939822246 -9.18707104258709250644 -5.53727906052939822246 -3.71238306950055196864 -0.06259108744285951653 -0.06259108744285951653 -0.06259108744285951653 -5.53727906052939822246 -0.06259108744285951653 -1.88748707847170593688 -7.36217505155824536445 -3.71238306950055196864 -3.71238306950055196864 -5.53727906052939822246 -5.53727906052939822246 -3.71238306950055196864 -7.36217505155824536445 -5.53727906052939822246 -5.53727906052939822246 -0.06259108744285951653 -3.71238306950055196864 -3.71238306950055196864 -5.53727906052939822246 -7.36217505155824536445 -5.53727906052939822246 -1.88748707847170593688 -5.53727906052939822246 -3.71238306950055196864 -3.71238306950055196864 -7.36217505155824536445 -3.71238306950055196864 -5.53727906052939822246 -5.53727906052939822246 -5.53727906052939822246 -7.36217505155824536445 -7.36217505155824536445 -3.71238306950055196864 -7.36217505155824536445 -1.88748707847170593688 -3.71238306950055196864 -7.36217505155824536445 -9.18707104258709250644 -3.71238306950055196864 -3.71238306950055196864 -5.53727906052939822246 -7.36217505155824536445 -1.88748707847170593688 -5.53727906052939822246 -9.18707104258709250644 -3.71238306950055196864 -5.53727906052939822246 -7.36217505155824536445 -9.18707104258709250644 -5.53727906052939822246 -9.18707104258709250644 -7.36217505155824536445 -7.36217505155824536445 -5.53727906052939822246 -5.53727906052939822246 -5.53727906052939822246 -7.36217505155824536445 -5.53727906052939822246 -5.53727906052939822246 -7.36217505155824536445 -3.71238306950055196864 -7.36217505155824536445 -5.53727906052939822246 -5.53727906052939822246 -9.18707104258709250644 -7.36217505155824536445 -5.53727906052939822246 -9.18707104258709250644 -7.36217505155824536445 -9.18707104258709250644 -7.36217505155824536445 -5.53727906052939822246 -5.53727906052939822246 -5.53727906052939822246 -11.01196703361593876025 -5.53727906052939822246 -9.18707104258709250644 -3.71238306950055196864 -9.18707104258709250644 -9.18707104258709250644 -7.36217505155824536445 -7.36217505155824536445 -7.36217505155824536445 -5.53727906052939822246 -7.36217505155824536445 -7.36217505155824536445 -3.71238306950055196864 -1.88748707847170593688 -11.01196703361593876025 -3.71238306950055196864 -7.36217505155824536445 -3.71238306950055196864 -3.71238306950055196864 -3.71238306950055196864 -3.71238306950055196864 -5.53727906052939822246 -3.71238306950055196864 -3.71238306950055196864 -1.88748707847170593688 -0.06259108744285951653 -3.71238306950055196864 -0.06259108744285951653 -5.53727906052939822246 -5.53727906052939822246 -5.53727906052939822246 -3.71238306950055196864 -1.88748707847170593688 -3.71238306950055196864 -5.53727906052939822246 -5.53727906052939822246 -5.53727906052939822246 -7.36217505155824536445 -3.71238306950055196864 -1.88748707847170593688 