-0.864240 -0.886459 -0.908948 -0.931697 -0.954699 -0.977945 -1.001426 -1.025134 -1.049060 -1.518310 -0.938707 -0.809631 -0.590883 -0.448256 0.044606 -1.211655 0.244549 0.307649 0.363763 0.774838 2.023549 1.073389 1.201612 0.521096 0.673039 0.353823 1.052470 -0.101493 -1.417872 -2.411997 -2.562083 -3.302046 -2.972584 -3.992868 -4.249358 -5.037068 -4.723754 -4.208269 -3.783009 -3.839020 -4.116213 -4.327890 -4.096313 -3.727389 -3.353977 -3.452840 -3.968421 -4.211822 -4.375195 -3.801877 -3.255199 -3.834462 -4.583394 -4.774792 -4.318996 -3.922063 -4.268877 -3.973464 -2.997364 -2.655173 -3.140331 -2.935944 -3.260085 -3.472198 -3.895258 -3.842763 -4.139311 -4.207194 -4.244507 -4.331138 -4.740362 -3.942986 -4.003062 -4.319321 -4.327264 -4.352847 -4.597737 -5.567245 -5.385700 -6.004764 -6.375664 -6.613033 -6.905291 -6.315362 -6.644819 -7.516213 -6.899910 -7.209895 -6.576804 -7.246720 -7.238432 -7.771540 -7.854419 -7.649674 -8.182492 -9.223771 -9.540937 -9.880938 -9.050082 -8.810884 -8.954759 -9.386241 -8.765982 -8.398165 -9.127283 -8.725476 -8.411198 -8.072978 -7.707472 -7.779286 -7.841616 -8.377838 -7.554148 -7.538826 -6.912394 -6.943202 -6.990633 -6.826955 -6.260823 -5.890204 -5.234635 -5.055427 -3.943096 -3.401555 -3.377136 -3.408449 -2.964413 -2.588141 -2.849891 -2.990686 -2.742957 -2.193941 -2.411746 -2.337553 -2.591135 -2.264126 -2.097866 -2.590231 -1.471686 -1.635759 -1.592101 -1.267464 -1.883655 -1.200803 0.205932 0.467562 0.703978 -0.151546 -0.476525 -0.042227 1.234241 0.510033 -0.331431 -0.597867 -0.286483 -0.546517 -0.568499 -0.987436 -0.973421 -1.160303 -0.871538 -1.136433 -1.867347 -2.392382 -2.312499 -1.837716 -1.296021 -1.329649 -2.081684 -2.890911 -2.472052 -2.134085 -2.110427 -3.397131 -3.965453 -4.642983 -4.832787 -5.209130 -5.375999 -5.703487 -4.386134 -4.531954 -4.587071 -5.249147 -4.549503 -4.056736 -3.864443 -4.480713 -4.179919 -4.424528 -5.209632 -6.602115 -6.373929 -5.927226 -5.109785 -5.708135 -6.271929 -6.754388 -7.746854 -7.323837 -6.644422 -6.535637 -7.463716 -7.725600 -7.705309 -7.565680 -7.390115 -6.213321 -6.741381 -7.363667 -7.610111 -7.061650 -5.979399 -6.245393 -7.079077 -6.403159 -5.800868 -4.644635 -4.573652 -4.625590 -4.643584 -4.390478 -3.951684 -4.029515 -4.198412 -4.048348 -4.179128 -3.808866 -3.768791 -3.282665 -2.996182 -2.769725 -3.091281 -3.061217 -2.948524 -3.156962 -3.454676 -3.502198 -3.345473 -3.237924 -3.744533 -4.042958 -4.487514 -4.050326 -4.207440 -4.265084 -3.935305 -4.470781 -4.979856 -4.654577 -3.924096 -3.032228 -3.567980 -4.431552 -4.451560 -4.083277 -4.161996 -3.465436 -3.398850 -3.312759 -3.396075 -3.404579 -3.510792 -3.374686 -3.153693 -2.961441 -3.386255 -3.534122 -4.265757 -5.336112 -5.458247 -5.075482 -4.724545 -5.165252 -6.158200 -6.865266 -6.447264 -5.943428 -5.421049 -5.417287 -5.765538 -6.344669 -5.905935 -5.673599 -5.361916 -5.219257 -6.385614 -6.461034 -5.619263 -5.359764 -5.117737 -5.718402 -5.378666 -4.875804 -5.055568 -4.905310 -5.063689 -5.561572 -5.589223 -5.221488 -5.047257 -5.583623 -6.154319 -5.992633 -5.445693 -5.054682 -5.184504 -5.735778 -6.261084 -6.231475 -6.198064 -5.405261 -5.681435 -5.967636 -6.460571 -6.748323 -6.126280 -5.619378 -5.756237 -5.440278 -5.324541 -5.132291 -6.051995 -5.943481 -5.729277 -5.402145 -5.566020 -5.981140 -6.608059 -6.293115 -5.807152 -4.903574 -4.939229 -4.355122 -4.796812 -5.276062 -5.161477 -5.354471 -5.084434 -5.048684 -5.814621 -6.187103 -6.903718 -6.878062 -6.115970 -6.459280 -6.440078 -6.701263 -6.743966 -6.729214 -6.593464 -5.744787 -5.517515 -5.725491 -5.846150 -5.985814 -5.595482 -4.797151 -4.715188 -4.666301 -4.933058 -5.215682 -5.187521 -4.470933 -4.727116 -4.680319 -4.807596 -4.830968 -5.384741 -5.443466 -5.754681 -5.104936 -5.466401 -5.941757 -6.156894 -6.272466 -5.313527 -4.289915 -4.744264 -4.910976 -5.699983 -5.680320 -4.752088 -4.311797 -4.633431 -4.588049 -4.860196 -4.822354 -4.253576 -3.537938 -3.396626 -2.610464 -2.829476 -2.393940 -2.222223 -3.247415 -3.724032 -3.884986 -3.363827 -3.211547 -4.016577 -3.977891 -4.519017 -4.684935 -3.823703 -2.529332 -3.373656 -3.194712 -3.095800 -2.948510 -2.924145 -3.118083 -3.450982 -3.203105 -3.974894 -3.993959 -4.129137 -4.769621 -4.910315 -4.458013 -4.763106 -4.361758 -4.712281 -5.110681 -4.750112 -4.192329 -3.719404 -4.154144 -5.053848 -4.898810 -4.645419 -4.216497 -4.212836 -4.442556 -4.551419 -4.483091 -3.926948 -3.656795 -3.594580 -3.732080 -3.604658 -3.429901 -3.716184 -4.039204 -3.740409 -3.559108 -3.909706 -4.007330 -4.090277 -3.504527 -3.343557 -2.729639 -2.713233 -3.340424 -3.013064 -2.679974 -3.045669 -3.092319 -3.598220 -3.530949 -3.555172 -5.081731 -5.618846 -5.569199 -5.023804 -4.942938 -6.033307 -5.989904 -6.269739 -6.026688 -5.283870 -4.838902 -4.423140 -5.329168 -5.266681 -3.216856 -3.966870 -2.978977 -3.309273 -3.206510 -2.347030 -1.922058 -1.260149 -1.370256 -2.337769 -2.195429 -1.254470 -0.860121 -2.070233 -2.904864 -3.443117 -2.413733 -2.290728 -3.606747 -3.425212 -3.919346 -3.696274 -3.306720 -3.694425 -3.286384 -3.445472 -3.246534 -3.498573 -3.123780 -2.851320 -3.083871 -2.830445 -3.466143 -3.670293 -3.441252 -3.343951 -2.341227 -2.180880 -2.335947 -1.947568 -2.179448 -1.652665 -2.252301 -2.371258 -2.004141 -1.883189 -1.230827 -2.026982 -2.069520 -1.465291 -1.347007 -1.088445 -1.200949 -1.924362 -1.871332 -1.835166 -1.398903 -1.505931 -1.417770 -1.526267 -2.151519 -0.887483 -0.713416 -0.629983 -0.050097 -0.563820 -0.955914 -0.741056 -0.079488 1.369025 0.155059 -0.150697 -0.978420 -1.195122 -0.646475 -0.533616 0.355890 -0.188317 -1.123380 -0.629015 -0.096720 0.079080 0.316173 0.491294 0.649621 0.905148 0.244232 0.022252 -0.593971 0.004471 0.195256 -0.120059 -1.031903 -1.251438 -1.768189 -1.863094 -1.140121 -1.864513 -2.672423 -3.498380 -3.053969 -2.642915 -2.963423 -3.027803 -3.352667 -3.232328 -2.450422 -3.109559 -3.419036 -2.389986 -2.292025 -2.169684 -1.605725 -1.919133 -1.024960 -0.994186 -0.807871 -0.304572 -0.968181 -0.970164 -0.719158 -1.793542 -2.280276 -2.646339 -2.166095 -2.454246 -2.432931 -2.894310 -2.715231 -2.927286 -2.768988 -3.113269 -2.740835 -3.316837 -3.491705 -3.482991 -3.180600 -3.905449 -3.908593 -3.405227 -3.024668 -2.246380 -2.801086 -3.492625 -3.175006 -2.873147 -2.520480 -2.862761 -3.276647 -3.232918 -3.095888 -2.432219 -2.340851 -1.627719 -2.040157 -2.037989 -0.758729 -0.627028 -0.066156 -0.320200 -1.081688 -0.944915 -0.112525 -0.282680 -0.386133 -0.799592 -0.051207 0.132961 0.430066 -0.761400 -0.990350 -1.126047 -0.890179 -1.177898 -1.839443 -1.909754 -2.084522 -2.389665 -1.657916 -1.440174 -1.198929 -0.915670 -0.978773 -0.487473 -1.245432 -1.302846 -0.744763 -0.908229 -1.023884 -0.623080 -1.004770 -0.755517 -0.447482 0.167258 0.060313 0.557941 0.612213 1.141593 1.282917 1.603774 1.753742 2.470312 1.995057 2.255131 1.949447 2.354262 2.065196 1.837900 1.072146 0.832104 0.952722 0.774247 1.060284 0.096481 -0.557858 -0.601650 -1.080490 -0.568749 0.067743 0.072119 0.595998 0.092238 0.342569 -0.438654 -0.294190 -0.803702 -0.053610 -0.048308 -0.608310 -1.126152 -1.231719 -1.071928 -0.015261 -0.514753 -0.180573 -0.558281 -1.163812 -1.025257 -0.429406 -0.333165 -0.307244 -1.474765 -1.126938 -0.510770 0.016143 -0.700309 -1.060644 -1.360407 -0.425483 0.001919 -0.468853 -1.517912 -1.539329 -0.927452 -0.794658 -1.434942 -1.135354 -1.674822 -1.527009 -1.234111 -1.573008 -0.908967 -1.305195 -1.229209 -1.124818 -1.127924 -0.732313 -1.089651 -1.197032 -0.324258 0.007031 -0.930398 -1.452608 -0.206242 -0.439942 0.041851 -0.590189 -0.667159 -0.618287 -1.210931 -0.759337 -0.517255 -0.602446 -0.864923 -1.040874 -0.748075 -1.270987 -1.015209 -0.462199 -1.095177 -1.523951 -1.915494 -1.342265 -1.073114 -0.959809 -0.978773 -0.514813 -0.850727 -0.577218 -0.673020 0.676595 0.197856 0.511134 -0.095005 -0.333467 0.004075 0.303907 0.039950 -0.050614 -0.956628 -1.292279 -1.527737 -1.824575 -1.839274 -2.270546 -2.263132 -1.349974 -1.785061 -1.434824 -1.581640 -2.615881 -1.747767 -1.350343 -0.657411 -1.105585 -1.470370 -1.599948 -1.113058 -0.604871 -0.771975 -1.095844 -1.252111 -1.568021 -1.408967 -1.219997 -1.388833 -1.127990 -1.138136 -1.445144 -1.052457 -0.433724 0.178316 0.088158 -0.822138 -0.429151 -0.203754 0.006403 -0.063847 -0.844438 -0.758037 -0.208403 0.049761 -0.193126 -0.724173 -0.745445 -0.524161 -0.663595 -1.185938 -1.301874 -1.228650 -1.209998 -0.779541 -0.049905 -0.119104 -0.433348 -0.922611 -0.721863 -1.044266 -0.495504 -0.446712 -0.883856 -1.214592 -0.953036 -0.554631 -0.029741 0.083755 -0.227820 -0.074515 -0.383931 -0.101345 -1.085958 -1.116978 -0.972458 -0.845604 -0.772279 -1.068588 -0.653215 -0.927038 -1.016935 -0.298532 -0.137170 -0.249510 -0.208339 -0.347398 -0.251501 -0.564316 0.388943 0.609661 0.210455 0.321151 -0.000920 -0.064001 -0.006244 0.738204 1.084568 0.818206 0.510226 0.848156 0.200160 -0.021220 0.608366 1.215795 1.258159 1.191232 0.651893 0.407039 0.470945 1.588116 2.233128 2.349197 1.235758 0.730315 0.500347 1.131726 1.528239 2.226111 1.725551 1.785073 2.035708 1.378151 1.555191 2.180910 2.781267 2.938705 2.223637 1.758736 0.888677 1.741668 2.884290 3.125602 3.151626 2.175276 1.718734 1.758662 1.915278 2.508256 1.782333 1.820332 1.684059 1.165276 0.589678 0.774460 0.472829 0.618427 0.621009 0.770150 -0.586266 -1.271596 -1.065631 -0.708784 0.297047 -0.677739 -1.846582 -2.252854 -2.897931 -2.233454 -1.942549 -2.465469 -2.509766 -2.811066 -2.726739 -2.649540 -1.994332 -1.326784 -1.096050 -1.145804 -1.290944 -1.160123 -1.863925 -1.433735 -1.227112 -1.379364 -1.701694 -2.867153 -3.054938 -3.131715 -3.586359 -2.608273 -2.463520 -2.442520 -2.593515 -3.476539 -2.429076 -1.737014 -1.592324 -0.967297 -1.058977 -0.111055 0.138577 -0.128839 -0.218893 0.470281 0.352765 -0.166936 -0.233305 -0.676588 -0.521541 -0.666856 -0.088068 -0.500905 -1.230811 -0.430062 -0.668354 0.183931 0.343430 0.072525 0.346874 0.766115 1.083471 1.909761 1.285283 0.306083 0.605688 0.127659 -1.019605 -1.329757 -1.567877 -1.116321 -1.784635 -1.882901 -2.093788 -1.882018 -0.434737 -0.005915 -0.340454 -1.012049 -1.912594 -1.339639 -0.722626 -1.753940 -1.570993 -1.927866 -2.304693 -2.251233 -1.782294 -1.544297 -1.438754 -1.735560 -1.711597 -1.640664 -1.800589 -1.794548 -1.728429 -2.020448 -1.911833 -1.278076 -1.627310 -2.302722 -1.859008 -2.390902 -2.363145 -2.666745 -3.132752 -1.952588 -2.413408 -2.983666 -2.878414 -2.719504 -2.095369 -1.761845 -2.203920 -2.790122 -2.125987 -1.703170 -1.709107 -2.028111 -2.715144 -1.996732 -1.659426 -2.667146 -2.845870 -2.041468 -1.753056 -1.576306 -1.665781 -1.916479 -2.072425 -1.533668 -1.819788 -1.247459 -1.863529 -1.401365 -0.851010 -1.018130 -1.540458 -1.099853 -0.922543 -1.501219 -1.265014 -1.410745 -1.918230 -2.030902 -2.994080 -2.865577 -2.357223 -2.410589 -3.027834 -3.561267 -3.225645 -3.241526 -4.019821 -3.995077 -4.621896 -4.712579 -5.404436 -5.516148 -5.910992 -5.378835 -5.548190 -5.417919 -5.022663 -5.148074 -4.422361 -4.118592 -3.311725 -3.084414 -2.775175 -3.342623 -2.164221 -2.292086 -2.062593 -2.689401 -2.558773 -2.021674 -1.471140 -2.303130 -2.049726 -1.591727 -0.979179 -0.216779 -0.647918 -0.619565 -0.424651 -1.190058 -0.552464 -1.032945 -1.348635 -1.487460 -2.118058 -1.834099 -1.221408 -1.439385 -0.808209 -1.938901 -0.860966 -0.407080 -1.127659 -1.695059 -1.692886 -1.701625 -2.301234 -2.749711 -3.100292 -3.052860 -3.052338 -3.194635 -3.465565 -3.125777 -3.866724 -3.899943 -4.716737 -4.254993 -4.793377 -5.070309 -4.517264 -4.755409 -5.780283 -5.667387 -5.621342 -4.864201 -5.172515 -5.539124 -5.361137 -5.534572 -6.460356 -5.728446 -6.091227 -6.418486 -6.430635 -6.358878 -6.322470 -6.387453 -6.200566 -6.150131 -6.266034 -6.824683 -6.491613 -5.982648 -5.702625 -6.462278 -6.339060 -6.599464 -6.563652 -6.553193 -7.166907 -6.589894 -6.730833 -7.718116 -7.551564 -7.747662 -7.470827 -7.958572 -8.245403 -7.538208 -7.954311 -6.933801 -6.758953 -7.995084 -7.473953 -7.257776 -6.184759 -5.280848 -5.799110 -6.446105 -5.810851 -6.300174 -6.199797 -6.315711 -5.931563 -5.897720 -6.043944 -5.827264 -5.899423 -5.246287 -4.875224 -4.788219 -4.025559 -3.779608 -4.087370 -4.144447 -3.968322 -3.380923 -3.529109 -3.147027 -3.107113 -3.204469 -2.517771 -2.726824 -2.384017 -2.872830 -2.731397 -2.509514 -2.043675 -0.991549 -1.064956 -1.375300 -0.384201 -0.708851 0.297036 0.697178 1.093035 1.738201 0.300384 -0.185185 1.276016 1.064242 1.600295 0.445642 0.702760 0.695112 0.728136 0.416678 0.521646 0.574566 1.137341 1.249399 2.128568 1.881789 2.813899 2.958767 3.717133 3.773979 4.528490 4.885955 4.559490 4.415378 3.656406 3.773252 4.292967 4.192898 4.808847 4.767706 3.822089 3.824683 4.834321 5.301755 4.926098 4.440189 4.034628 3.718912 3.576534 3.129903 2.691296 2.064329 2.417812 2.215212 2.505297 1.700300 1.448292 0.932087 1.412902 1.089863 1.241416 0.455693 0.638975 0.141647 0.724347 0.824555 0.751642 0.813941 0.965699 0.881860 0.595229 0.997422 0.852806 0.491895 0.332156 -0.090902 0.172762 1.253116 -0.079021 -0.173630 -0.602447 -0.915780 -0.161594 -0.999546 -0.805742 -0.754242 -0.627127 0.004812 -0.384017 -0.353692 -1.209268 -0.696698 -0.233295 -0.904905 -1.038580 -1.561424 -0.641949 -0.542955 -0.700888 -0.859661 -0.207256 0.153030 -0.099089 0.510160 0.226858 0.212902 0.185291 -0.528983 0.121660 0.464837 0.617691 0.869816 0.228544 0.502962 0.810586 1.635068 0.974209 0.747208 1.059108 0.439302 1.188515 1.450698 0.648445 0.574996 -0.073840 0.255647 0.608606 0.217434 0.811336 0.436734 0.363098 0.364593 0.007783 0.543178 1.442548 0.863670 1.319221 0.722631 0.766661 1.149036 0.891661 0.810839 0.884052 0.762756 1.970247 1.776665 1.927509 2.485655 2.324699 2.449238 2.909750 2.944898 3.536523 3.426424 3.028664 3.609786 2.900170 2.197050 2.995208 1.606356 2.710568 2.350853 1.012873 1.635642 1.589269 1.767107 2.022765 2.253917 2.786401 3.073527 2.459155 2.615639 2.533607 2.478557 2.179351 2.335061 2.364054 2.453130 2.182138 2.518092 2.914158 3.870893 3.090597 3.746044 3.218330 2.685806 2.262888 2.766697 2.477210 2.416326 2.617522 2.725846 2.892914 2.976277 3.088068 3.175400 3.630750 3.614426 4.558162 4.739046 3.477373 4.146336 3.854932 3.911435 4.670906 4.217273 3.933823 4.164595 3.821399 4.055807 4.206761 3.891444 3.846630 3.592853 4.433952 4.468075 5.266048 4.725825 4.299993 4.748048 5.226971 4.887293 5.988456 4.461030 4.702643 4.711064 5.083881 4.882661 5.334669 5.294564 5.629938 5.601996 5.397351 5.060512 5.363510 5.281134 6.095719 6.574459 6.733665 6.406041 6.352567 6.451675 6.774773 6.842584 6.791264 5.895884 6.416829 7.103922 7.703328 7.729724 7.454247 8.029475 7.535876 8.608573 8.192351 7.523474 7.514895 6.475644 6.021571 5.416143 4.953053 5.688815 5.545874 5.909766 5.386070 4.960952 5.280394 4.932916 5.062285 4.975464 5.170179 5.077136 4.566742 4.628007 5.240925 5.193181 5.077801 5.807260 4.755829 4.816728 5.121482 4.489061 4.177966 3.890239 4.469516 5.481796 4.904260 4.631748 4.448632 4.403937 4.953106 5.386474 5.651085 4.873545 4.677890 4.832092 4.167498 4.863151 4.889253 3.727010 3.362034 2.853368 2.716064 2.851757 2.207868 2.826114 2.527521 1.784998 2.761781 2.622527 3.095634 3.265336 2.642959 2.978440 3.047912 3.337791 3.525934 4.426087 4.328492 4.589308 4.716497 5.144319 5.780153 6.462855 6.833375 6.294997 5.309781 5.151922 5.716164 5.012004 3.848256 3.315905 2.714208 3.073383 2.536650 2.995887 3.838808 3.122354 3.126367 3.911628 3.896050 4.837664 4.315668 4.540715 4.168575 3.755441 2.999400 3.784350 3.710865 3.435658 3.160730 2.515986 2.225013 2.950573 3.744604 4.003080 3.373380 2.834273 2.829766 2.923896 3.732450 3.808157 3.232387 3.276221 3.012588 2.752074 3.064588 4.009224 3.797956 3.868614 3.446102 3.780287 3.466176 3.965615 4.662216 4.955599 3.781870 3.376428 2.694901 3.053914 3.318161 3.195869 2.406987 1.637324 1.539652 2.343006 2.003563 1.616301 1.810149 2.188337 2.997980 2.862511 3.357955 3.767259 3.663702 4.325462 4.706604 4.032504 3.684691 2.545389 2.256679 3.376240 3.095044 3.157226 2.651323 2.364093 2.750282 2.789160 2.733537 3.179077 2.088100 1.982385 1.587269 1.237863 1.870209 1.716596 1.820951 2.356486 1.404389 2.258717 2.216393 1.951154 1.479191 1.443731 1.617905 1.445309 0.129144 0.349522 -0.114752 0.069726 -0.251867 -0.272650 0.611825 0.887806 0.338841 -0.169320 -0.121113 0.454904 0.926822 1.717063 1.909520 1.417269 1.249644 1.912772 2.026910 2.950915 2.926386 2.213882 2.086283 2.346437 2.676097 3.160956 2.126102 2.261323 1.471701 1.520988 1.382632 1.037578 0.412147 0.604225 0.610151 0.088034 0.626330 1.027329 1.323662 2.170821 1.798001 2.657321 2.953339 3.276404 4.423242 3.850062 3.613025 3.690195 2.709140 2.187375 2.697452 2.792082 2.350019 1.892024 2.080682 2.732848 1.922424 2.132947 2.606168 2.556372 2.816635 2.408927 1.623442 1.296390 1.126013 1.873101 2.318951 1.968792 1.978057 1.833825 1.452961 1.557517 1.056053 1.052823 1.613536 1.009655 0.052621 -0.803269 -1.050176 -1.105807 -1.607018 -1.554605 -1.727769 -1.274565 -1.502198 -1.929620 -1.936295 -1.817547 -0.941794 -0.752826 -0.277470 -0.603983 -1.166417 -0.618781 -0.525379 -0.471625 0.280215 0.376538 0.383555 -0.263411 -1.101047 -0.992006 -1.654609 -0.513245 -1.148043 -1.128157 -1.769415 -1.941850 -2.116960 -1.486129 -0.928762 -0.448246 -1.113098 -0.442692 -0.689155 -0.112350 -0.251307 0.227418 0.550132 1.152913 1.171388 1.496327 0.399069 0.359554 0.884415 0.789539 0.823845 1.019997 0.677761 0.475417 0.209908 -0.292091 0.640313 0.828119 1.254632 1.292061 0.787876 1.190842 1.483808 2.392994 4.071882 3.697318 3.675906 3.366948 3.493252 4.901318 4.523721 4.556198 4.275103 3.427261 2.993387 2.597645 3.133736 3.536935 3.363928 2.425807 2.730514 2.144651 2.895361 3.235530 3.915496 3.775688 3.421143 2.830498 3.049465 2.470382 2.447495 2.936134 2.365921 2.683792 1.893822 2.365455 2.281143 2.466973 2.523153 2.028337 3.443213 3.293405 3.426303 2.787064 3.130497 4.122067 4.354551 3.970886 4.083926 3.476580 3.573017 4.159138 3.978186 3.673433 2.759589 1.848510 2.405977 2.422695 2.338219 1.135756 1.049394 1.471766 1.101394 1.295725 1.439393 1.933967 2.622261 2.611683 2.938010 3.189348 2.352814 2.539648 2.675616 2.446974 2.362167 1.537828 1.343520 1.498076 1.232420 2.010373 1.599996 1.494849 2.383030 2.303820 2.184066 1.261874 1.664322 1.775789 2.114810 2.275195 2.404434 2.308214 2.665169 3.470204 3.738204 4.412511 4.479473 4.421972 4.126648 3.950307 3.819530 4.025641 4.194086 4.871485 3.866280 3.918739 3.450434 4.064080 4.189507 4.444999 3.896338 4.271906 4.314983 4.223905 4.872711 3.767422 4.645291 5.135488 4.541713 4.888402 5.341844 5.288793 5.348722 5.287901 6.511596 6.635319 6.456237 6.235005 7.156507 6.416499 6.888016 6.926821 6.941969 6.444321 6.817524 7.230326 7.215803 7.109161 6.673789 7.095042 6.133199 5.717259 5.414513 5.778561 5.922199 5.196740 4.689903 5.233747 5.035563 5.301408 5.332588 5.272518 4.794467 4.634781 4.709621 5.691313 4.470268 5.389493 5.583580 5.372830 5.055222 5.206623 5.345723 5.138598 4.467791 4.693492 4.254884 3.827553 3.355330 3.670950 3.628981 3.483098 3.007608 2.392813 2.887536 2.692238 3.273401 3.255135 3.414437 3.428458 2.666758 2.990386 3.146203 3.277935 3.268424 3.100532 2.345641 2.520790 2.473653 3.113620 2.771586 2.951862 3.216751 3.100075 3.008621 2.847952 3.355547 4.366681 3.821185 3.767698 3.201726 3.817923 3.713268 3.116931 3.147174 1.792163 2.086335 1.976908 1.641323 1.768340 1.084924 1.618822 2.237150 1.353095 1.837076 2.249552 2.271195 2.493936 2.783135 3.448046 3.149008 2.855292 3.270361 3.339606 3.280079 3.093825 2.881858 2.591535 1.927527 2.252394 2.117879 1.730315 1.782005 1.745128 1.602221 1.441185 1.735892 1.770074 1.946024 2.276858 2.139242 3.055344 3.591085 3.753627 3.768279 3.823223 4.163272 4.865971 4.654722 3.575558 3.788699 3.571825 3.599976 3.754134 3.157113 2.770956 2.274819 1.597946 2.866737 2.805128 2.563448 1.908960 2.367901 3.145371 4.135010 4.325495 4.547781 4.248316 3.770496 3.901149 4.548118 4.037032 3.805557 3.251561 3.105816 3.966402 3.658815 3.334490 3.073728 3.605833 4.506009 3.637424 3.414842 3.204133 2.351680 2.652644 2.338148 2.813592 2.395500 1.812120 1.310540 1.133433 0.793696 0.550629 0.847148 0.566687 0.512477 0.111053 -0.106577 0.444502 0.751054 0.872151 1.024176 0.325664 0.614280 0.044910 0.762410 0.169649 0.216547 0.473564 -0.268760 -0.109088 0.220600 0.437209 0.503838 0.096506 0.330852 0.957469 -0.046929 0.296295 -0.356007 -0.304051 0.954026 0.578094 0.104873 -0.871278 -0.688511 0.235295 1.053821 0.624938 0.936894 0.888502 1.065439 1.143856 0.975945 1.212665 1.534470 1.424055 0.827143 1.186013 1.839967 1.811249 2.198629 2.731036 2.936439 3.630466 3.566686 3.240525 2.751434 2.827578 2.956570 3.560018 3.014354 2.944673 2.817947 2.403384 2.506595 2.681913 2.431949 2.794781 2.385288 2.544904 2.152793 1.917473 1.632612 3.307863 4.278553 3.875581 3.988605 4.247452 4.561536 5.249355 5.200494 5.267053 5.423537 5.054947 5.053228 5.701082 5.671518 5.387509 5.273824 4.957734 5.064666 4.812085 4.932126 4.579698 4.180874 4.486562 5.117217 4.831325 4.378005 3.781615 3.620181 3.994547 4.273981 4.138037 4.032237 4.423419 4.556110 4.519355 4.563745 5.285275 5.448725 5.404015 5.045411 4.762162 4.531555 4.465880 4.713321 4.453699 4.625628 3.969728 4.459539 4.073832 4.433758 4.973802 5.419324 5.021526 5.285173 5.975281 5.830587 5.403086 5.678410 5.814881 5.888521 5.949320 5.542185 5.336282 3.978563 4.139917 4.604133 5.296762 4.685757 4.266493 4.174701 4.258356 4.408468 4.722801 5.125682 5.590503 5.240415 4.392898 4.849446 5.041789 5.131877 5.430499 4.889801 4.855774 4.747809 4.722085 5.487571 6.168711 6.028961 5.884290 6.129120 6.034153 6.929390 7.052371 7.852961 7.793498 7.020797 6.843377 6.538915 5.533881 6.388178 6.717599 6.646079 5.859309 4.594820 4.881932 5.639829 5.649146 6.449643 6.562459 6.278919 7.276582 6.613067 7.062458 7.427641 7.629757 7.794170 7.495957 7.274713 6.581435 6.612840 7.197174 7.330260 7.540936 6.781303 7.403474 7.446500 7.816913 7.587438 8.301104 8.070142 8.598467 8.349327 9.268967 9.033770 8.597814 8.949440 8.988049 9.065765 9.032051 8.804494 8.094692 8.033332 8.385283 7.865823 7.327239 7.019878 6.523946 7.022532 7.002340 7.503767 7.839833 7.159585 7.428248 7.943503 8.674518 9.075346 9.107638 8.284907 8.063941 8.128201 8.611791 8.654388 7.809248 7.293788 7.881453 7.418636 8.115347 7.367185 7.173103 7.094309 7.220891 7.425835 7.015462 6.896356 6.987615 6.897440 6.691877 5.873881 5.928638 5.750805 5.675055 5.241868 4.419723 4.552737 4.545576 4.916350 5.447103 5.594944 5.971967 5.031876 5.124917 6.355556 6.601528 6.123010 5.234851 4.908569 4.702692 5.326758 5.384627 5.129719 4.706808 4.748433 4.641874 4.654471 4.681602 4.670277 4.993082 5.716432 6.460753 6.144076 5.674358 5.896950 6.934258 7.585674 7.474649 6.653228 4.604137 4.781232 4.965231 5.573889 6.189788 5.261871 4.673283 4.783589 4.602329 5.409357 5.388018 4.833992 5.047105 5.552515 5.303175 4.762694 4.157161 3.331086 4.292776 4.390842 4.598075 3.825786 3.199439 3.040732 3.812449 4.987596 5.259731 5.438420 5.099373 4.586993 4.654166 5.231612 5.451523 5.269031 4.744883 4.841429 4.857553 4.994297 5.562570 5.392249 4.925484 5.118730 5.678335 4.987102 4.340500 4.104060 4.082758 4.140385 4.216483 3.732026 3.858450 3.236515 3.257674 3.577313 3.492766 3.313733 2.195180 2.201740 3.065937 2.598183 3.484110 3.183423 3.639464 3.804166 4.289799 5.492920 5.618513 5.857633 6.012842 6.177888 5.488914 5.305997 5.888276 6.657075 6.578122 5.515174 5.390944 4.901368 5.318101 5.594958 5.608194 5.468868 5.613066 6.098561 6.050831 6.448969 6.663985 7.445630 7.335135 7.473856 6.925275 5.839762 6.079137 5.931108 6.191296 5.091575 4.886324 5.231354 4.993144 5.093680 4.954811 4.875456 4.245664 3.781211 4.198467 3.002839 3.179592 3.042945 2.629489 2.795476 2.084144 2.098232 1.751196 2.158406 2.872972 2.490459 2.235559 2.147953 2.065700 2.194860 2.153749 2.420033 2.406853 1.898876 1.973360 1.366839 0.327779 0.486743 0.195669 1.137027 -0.001502 0.111076 1.110146 0.805128 1.369195 1.031449 0.616495 1.222601 0.869584 1.483229 1.156787 0.657943 0.706770 0.876375 0.885776 0.649808 1.106477 1.652134 1.044771 1.315443 1.044380 1.510055 1.550497 1.086596 1.178127 1.342927 1.167399 1.335640 1.446335 1.459093 1.972693 2.893670 2.294084 2.090288 1.340814 2.325423 3.186382 3.251490 2.759879 2.399944 2.611222 2.979087 3.879343 4.462364 3.545184 3.367544 2.683004 2.867278 3.041836 3.228787 2.812382 2.675013 2.272877 2.815588 3.255868 2.557887 3.152657 4.403977 4.141791 4.382125 4.042554 4.592858 5.195088 5.910442 5.953604 4.719323 4.273371 4.102029 4.207836 4.279506 4.402080 4.438261 4.162449 3.978218 3.828059 3.850842 3.497523 4.187038 3.929782 4.087119 3.212856 3.332795 2.979784 2.550289 2.414735 2.126776 2.690702 2.644574 2.452159 2.471686 2.876713 2.857677 3.628615 3.281318 3.406351 3.584910 3.764794 3.438589 2.431705 2.210325 1.710955 3.028586 3.175026 2.637456 2.854917 2.020541 2.678654 3.595265 3.630306 4.107244 2.861701 2.661878 2.472511 2.509283 2.187028 2.109093 1.503655 1.613980 1.094269 0.899781 1.091244 1.216701 1.485532 2.152452 2.154546 2.411459 1.969949 2.240000 3.079967 3.220068 3.362063 3.175499 2.746449 3.053318 2.935198 3.856518 3.955576 3.919660 4.036756 4.123762 4.278653 4.732900 5.207525 5.021667 5.538180 5.209738 5.517680 5.228693 5.550225 5.185229 6.164224 6.601135 6.997057 6.687700 5.994115 6.026694 7.578565 7.329735 7.552469 6.555160 5.662527 5.533801 5.827785 6.407386 6.595207 6.807992 6.453328 7.141824 7.274878 7.717996 8.673776 8.840531 8.262208 8.230230 7.928561 7.673807 7.675687 6.898371 6.799190 7.471869 6.615116 7.294291 6.907643 7.548379 6.596718 7.004073 6.803417 7.196049 7.355897 6.520595 6.002662 5.469710 5.563033 5.700303 6.205299 5.932671 5.460296 5.096752 4.835522 5.166956 5.130066 4.905394 4.271376 4.211829 4.076614 4.733504 3.976911 4.236202 4.511489 4.232711 4.269564 3.751938 3.028217 3.494480 3.607042 2.873520 2.004529 1.506012 1.577130 1.493686 1.665637 1.222263 1.244515 0.888289 1.556545 1.790890 2.001358 1.345437 1.820999 1.746540 1.425342 1.411391 1.633302 1.320812 1.410772 2.179439 1.929800 1.441247 1.528716 1.880293 2.176846 1.824083 1.429089 1.902945 1.845398 0.869743 1.240222 0.893567 1.190267 1.360871 0.452175 0.767116 0.450087 0.150921 0.513893 0.330830 0.381604 1.034466 1.392372 1.959682 1.838044 2.039492 2.687924 1.801608 2.453194 1.475008 2.086042 2.178534 2.503688 2.385611 2.333294 1.848538 2.979362 2.766400 2.949090 3.648973 3.727373 3.432846 3.657460 2.676415 3.683080 3.500549 4.230332 4.806288 3.522203 3.513921 2.486107 2.373267 2.937238 2.473715 3.149906 2.460040 1.458535 2.345737 2.456876 3.264504 3.674316 3.542717 3.844794 3.855275 3.336559 4.171757 3.734225 3.713630 3.711915 3.338963 3.009803 2.889457 2.774924 2.771130 2.853542 3.195031 4.066895 4.306192 3.746997 4.689317 4.999716 5.205172 5.811439 5.241121 5.468405 5.526420 4.479979 4.690905 4.655413 4.338367 4.617479 3.662826 3.697620 3.682091 3.874342 3.983350 4.291502 3.499707 3.072449 3.242781 2.618356 2.611830 1.783057 2.137448 1.444945 1.379647 1.911938 1.354227 1.680495 1.556549 2.051390 2.428561 1.858978 1.884977 1.798842 1.740631 1.493743 1.532945 1.920879 1.202347 1.924376 1.747153 1.529897 1.774101 1.880210 2.186582 2.070916 2.229509 2.784513 2.531873 2.424117 1.653746 1.864123 1.680366 0.425779 1.170187 0.018645 -0.113882 -0.008131 -0.102307 0.614998 0.037160 0.837011 0.115063 -0.101899 0.138131 0.563991 1.237328 1.297425 0.782260 1.005020 1.601788 2.312135 1.452255 1.776076 1.672928 1.638415 1.409758 1.435913 0.956872 1.245072 0.305947 1.339756 2.398321 1.547775 1.908688 1.293167 1.323569 2.203032 2.750531 2.815607 2.826065 1.274036 2.012256 2.305352 2.384058 1.974625 2.375409 1.869007 1.450253 1.823882 1.232387 1.322396 1.919679 2.201121 2.313387 2.491998 2.099625 2.207546 2.972691 3.225864 4.080250 4.155181 4.253671 3.999082 2.814336 3.305277 3.149608 3.238242 2.119374 2.473360 2.114835 1.778042 2.233560 2.495055 2.586522 2.902197 2.555183 2.932101 2.787273 2.883226 3.636002 3.379894 3.735495 3.426379 3.932438 4.336299 4.023359 4.064175 3.267117 3.385461 2.886447 3.011490 3.234529 2.631057 2.944009 2.806222 2.736903 3.201890 3.248358 3.006548 2.373280 3.069280 3.499991 3.863705 3.372740 3.170483 3.137051 3.737724 4.497497 4.509741 4.594536 3.588273 4.065552 3.600780 3.586729 3.838694 3.458291 3.582580 3.642326 2.940974 3.360901 2.985211 3.777772 4.283570 4.308706 4.006232 4.335226 4.558373 4.999200 5.251189 4.943855 4.781139 4.727383 5.142602 5.615750 4.950477 4.550300 4.410735 5.137294 4.767979 4.116651 3.413582 3.541508 3.351539 3.117590 3.170502 3.486135 2.574363 3.357649 2.986088 3.203338 3.623830 3.030624 3.595034 3.249977 3.533677 3.313571 2.791293 2.815623 3.087106 3.111421 2.745508 3.422537 3.020250 2.779376 3.101140 3.020184 3.229016 3.380064 2.822130 3.119569 2.468945 3.553912 3.894149 3.761704 3.637312 3.978108 3.892410 5.048671 5.743913 5.623064 5.599739 6.360922 5.783803 6.435430 5.877933 5.656744 5.909451 5.562486 5.333240 5.108734 5.329932 5.469174 5.971660 6.454744 7.065565 6.967247 7.241791 7.178394 7.392992 6.943124 7.811881 7.480282 7.326615 6.687574 6.292040 5.929530 6.305319 5.234157 5.517905 4.446440 3.694712 3.181377 2.813594 3.138064 3.507319 2.947623 3.217693 3.544735 4.862700 4.940150 5.980348 5.523027 4.952116 4.929599 4.884165 4.784531 4.604144 4.519830 3.854982 4.175345 4.281123 4.561492 5.185307 4.973057 4.681467 5.123439 4.985582 4.977062 4.501205 3.617163 3.414345 3.509275 4.031775 2.696965 2.928109 2.240581 2.576783 2.443844 2.024698 2.299881 2.697201 2.391048 2.380950 2.260466 1.641891 1.735212 1.932352 2.375841 2.484621 2.803381 3.467324 2.695585 3.620302 3.121472 3.384847 3.292445 3.590284 3.583700 3.189849 2.678305 2.766067 2.883297 3.468704 3.571715 3.427632 2.756722 2.159671 2.528763 1.928309 2.272723 2.672398 1.882887 1.938835 1.598532 1.383165 1.850412 2.891422 2.543414 1.631730 2.469239 2.474277 3.206278 3.596790 3.212825 3.396871 2.996246 3.692217 4.823486 4.253011 4.474922 3.789075 3.641678 4.365995 3.700206 3.723379 3.379321 3.536187 3.681958 4.213115 4.363429 3.956919 3.991875 4.706277 4.924157 5.534932 4.977437 4.645732 4.429866 4.168319 4.192627 5.551320 5.766042 6.208324 5.362982 5.528505 5.397363 6.210548 6.335436 6.746315 5.434335 5.583184 5.552940 6.155608 6.268820 5.659632 5.076254 5.630974 5.304753 5.988142 5.996530 6.143547 5.612775 5.234058 5.853525 5.822471 6.768931 6.111727 5.243719 5.108371 5.010708 4.348475 3.863840 4.146630 3.831588 4.405988 4.456498 4.248868 3.560832 3.759264 4.469823 4.955892 4.907220 5.717653 4.650217 4.854211 5.536254 5.697185 6.528745 5.638010 6.016658 6.643589 5.961192 5.799983 6.316587 6.056483 6.303481 6.200057 6.063597 5.493166 5.556858 5.485447 4.825954 4.130324 3.206471 3.379927 3.641426 3.117049 3.424581 2.626544 2.263384 2.851717 2.729639 2.932096 3.183174 3.373083 3.810722 3.486076 2.182053 2.839512 3.239334 3.740971 3.712227 3.683590 3.164210 3.627473 2.851163 3.536294 3.705640 3.708344 3.680461 2.931836 2.842270 1.641121 1.771943 1.605542 2.086451 2.163116 2.535513 2.477448 2.456362 2.335015 2.252239 2.319185 1.975484 1.894728 1.838492 0.898981 0.645649 0.208888 0.145721 0.864222 0.845071 0.810990 2.136043 2.261483 2.227181 2.465758 2.128027 3.035308 2.715775 2.969870 2.242945 1.490145 1.857413 1.766116 2.259939 1.192845 1.440823 1.558891 2.218055 2.225331 2.224198 2.495042 1.697009 2.294811 2.769376 3.022621 4.090950 3.341218 2.814681 3.004300 2.579131 2.493702 2.207511 2.596231 2.366891 2.610438 2.370291 2.269331 2.085010 2.639080 3.866819 3.816553 3.246684 4.198153 3.322430 3.515107 3.179928 3.068172 3.687290 3.706078 4.170007 4.377453 3.337606 4.363784 3.997562 4.630905 4.984974 4.683130 4.559578 4.374447 4.822872 5.110139 4.514019 3.954765 4.130245 3.844719 4.000860 4.381551 4.220766 4.172026 4.015614 4.677235 4.709845 4.964410 5.265027 5.174024 5.233961 5.902881 5.599605 5.765745 5.269012 4.890091 5.824452 5.358200 5.186639 5.584575 4.555204 4.744767 3.780731 4.058596 4.735643 4.012019 4.054777 3.983533 3.871056 4.056671 4.266325 3.979499 3.885743 3.576596 3.183205 2.962996 2.340879 3.028262 3.901853 3.269980 3.416719 2.854595 2.975587 2.809543 3.045424 2.632690 2.837421 1.867109 2.312386 1.917043 1.907199 2.267773 2.629755 3.332075 2.988418 2.807306 3.228220 3.441004 3.682883 3.728624 3.947665 3.868577 3.712384 3.095109 3.456797 3.667769 4.389716 3.580256 3.883216 3.762782 4.536231 5.202053 5.712324 6.001911 6.018551 4.781918 5.375694 5.273424 4.535211 4.653316 4.455060 3.377453 4.072557 3.826815 4.239044 4.734750 4.263462 4.622555 4.213095 4.653238 4.964567 3.948672 4.518522 4.369572 4.396156 4.926492 4.988717 4.897231 4.619564 5.360462 5.193448 5.595393 5.172797 5.150517 4.662227 4.441539 3.737434 4.106574 4.298867 4.858372 4.396711 3.633226 3.649886 3.640463 3.922900 4.336136 4.665324 4.665692 4.001878 3.411321 3.063280 3.576295 4.290136 3.750807 3.782344 3.044668 2.698943 2.822936 2.631639 2.509895 2.362538 2.106671 2.001764 1.513506 0.474132 0.627169 1.348273 1.461398 0.669217 0.344514 -1.178562 -0.933846 -2.625710 -3.358093 -3.648600 -5.053337 -5.636865 -6.790156 -7.654484 -8.094341 -7.035728 -6.739447 -6.414579 -5.834183 -6.411848 -6.066997 -6.346901 -5.264336 -5.022415 -6.247200 -5.418887 -6.439005 -5.728375 -5.555854 -5.928271 -5.576522 -6.497399 -6.518521 -5.538410 -5.730554 -5.448548 -6.170394 -5.870541 -5.664547 -4.411323 -4.713601 -4.099106 -4.672694 -3.947131 -4.399364 -3.792383 -3.541956 -3.794002 -3.575494 -3.429783 -4.104706 -4.613899 -5.443251 -4.517179 -4.394296 -4.406059 -4.840625 -6.783874 -6.047436 -5.871327 -5.307378 -5.291434 -6.037622 -6.082850 -7.046972 -7.111754 -7.160646 -7.017196 -6.776690 -6.322724 -6.846917 -7.759483 -8.148603 -7.994098 -7.411473 -7.571336 -7.651669 -8.041427 -8.227684 -7.351823 -7.045042 -6.565998 -6.622747 -6.561906 -6.867987 -6.504765 -6.784702 -6.245913 -5.954063 -6.160148 -5.915450 -7.208647 -5.808786 -5.113795 -4.515394 -4.194881 -4.264932 -5.457070 -4.823557 -5.004112 -5.091032 -5.578826 -5.360486 -5.912221 -6.968220 -7.141203 -7.220693 -7.196976 -6.139612 -6.880499 -6.678962 -6.485160 -5.868429 -5.336782 -4.847210 -5.494123 -5.349805 -5.548997 -5.427686 -5.000835 -5.517037 -5.763930 -5.600516 -6.206666 -7.027419 -6.471065 -5.850793 -5.761394 -5.668589 -6.000711 -5.941999 -5.580222 -4.265712 -4.395624 -4.533469 -4.807823 -5.140262 -4.671199 -5.020005 -4.962297 -4.961522 -5.464500 -4.841619 -5.230735 -4.813604 -4.484487 -3.975425 -4.291059 -3.980680 -3.982643 -4.484695 -3.490836 -3.654964 -3.723652 -3.458084 -4.658633 -3.802819 -4.010005 -3.709538 -3.027409 -3.324149 -4.244766 -4.061652 -3.692253 -2.693091 -2.930560 -2.716337 -3.485126 -3.214529 -2.875914 -2.688580 -2.876507 -2.966614 -2.570448 -1.841088 -1.903441 -1.821875 -2.462077 -2.048458 -1.193503 -0.802536 -0.608905 -1.404506 -1.610390 -0.804964 0.734570 0.363277 -0.174837 -0.644486 -0.586200 0.231356 0.734361 0.706578 -0.088047 -0.294347 0.053397 0.513606 0.764538 0.572121 -0.366628 -0.739146 -0.524392 -0.046026 -0.257580 -1.041710 -0.620642 -0.048337 0.175130 0.130173 0.483621 -0.283274 0.026931 0.956206 1.010329 0.460512 0.269540 -0.119972 0.588420 1.408587 0.576023 0.114854 -0.694888 -1.132378 0.202922 -0.169265 0.011840 -1.175644 -1.259108 -0.577410 -0.431968 0.214845 0.096680 0.335505 -0.154845 0.063471 0.512097 0.377390 1.067534 0.492514 0.553767 0.217306 0.396150 0.203430 -0.340466 -0.172354 0.187977 -0.423319 -0.423174 -1.136590 -1.324634 -0.308087 -0.710722 0.201329 -0.679480 -0.407029 0.333168 0.089221 0.726594 0.642663 0.133906 1.019243 0.527349 0.030620 0.685891 -0.006041 0.186270 0.013078 -0.605768 -0.602348 -0.591033 -0.769584 -1.147237 -1.449580 -1.990574 -2.472491 -2.292120 -2.438422 -2.734397 -3.304591 -3.732249 -3.883446 -3.681308 -3.901880 -4.147249 -4.582306 -4.575268 -3.829621 -3.945508 -3.518318 -4.839476 -5.014640 -3.976436 -4.169294 -3.756816 -4.955248 -5.749658 -5.598851 -5.446055 -5.492870 -5.887262 -5.670845 -5.541790 -5.261331 -5.413474 -5.826109 -6.121973 -5.510728 -5.374631 -5.987373 -6.474798 -7.470487 -7.613692 -7.809292 -8.346983 -7.834276 -8.183665 -8.551520 -8.896522 -9.274766 -8.712614 -7.963963 -8.254818 -8.529881 -8.733167 -8.809548 -8.245596 -7.912229 -7.517974 -6.873668 -7.469844 -7.779256 -8.416561 -8.177379 -8.477730 -8.468818 -9.521193 -9.043806 -9.568484 -8.882321 -9.297055 -8.881959 -8.674481 -8.266798 -7.495938 -7.375579 -7.950204 -8.269720 -8.610238 -8.372843 -7.771267 -7.571786 -7.745937 -7.578181 -7.300594 -7.466193 -6.983139 -6.682838 -5.718056 -6.763775 -6.750533 -7.398358 -7.338904 -6.619697 -6.076843 -5.466019 -5.615508 -5.710430 -5.025790 -4.804676 -3.445603 -3.456883 -3.429604 -3.578425 -3.756332 -2.874960 -3.040589 -2.683560 -2.992789 -2.593918 -2.418006 -1.956004 -1.669128 -2.170765 -1.641315 -1.720240 -2.106635 -1.753276 -2.029988 -1.705778 -2.276725 -1.759418 -1.513098 -1.758548 -2.062879 -1.784550 -1.382773 -0.746091 -1.052627 -1.130744 -1.720773 -1.161043 -0.493983 -0.600913 -0.982655 -0.643337 -0.687726 -0.079671 -1.135147 -0.372655 -0.497074 -1.025601 -0.982238 -1.302416 -0.786370 -1.906032 -1.934957 -2.188960 -2.292657 -2.503606 -1.864272 -2.555689 -2.165805 -1.832401 -1.976015 -1.285505 -1.936303 -1.738109 -2.026863 -2.098572 -2.334820 -3.003034 -3.341467 -2.841851 -3.528626 -2.832221 -2.813392 -3.549378 -3.570487 -3.207279 -3.346114 -2.717384 -3.154588 -3.095406 -3.785337 -3.804676 -3.308135 -3.978262 -3.612027 -4.345919 -4.164080 -4.125833 -4.562226 -4.631711 -4.431052 -4.766200 -4.594464 -4.397476 -4.018913 -4.859048 -4.369165 -4.403224 -4.290878 -3.830437 -3.201630 -3.560093 -3.223109 -2.982373 -2.472840 -2.618908 -2.816708 -2.269102 -1.661717 -1.799195 -1.987340 -2.265273 -1.874338 -1.179473 -0.562527 0.146957 -1.012018 -1.722593 -2.126742 -1.523879 -2.646685 -2.869902 -3.152686 -3.924458 -4.008112 -4.169728 -3.591400 -3.475311 -3.744520 -4.167781 -3.795072 -3.442375 -3.398536 -2.638193 -3.913470 -4.867748 -5.190317 -4.731712 -4.008815 -4.385579 -4.690071 -5.530080 -6.132121 -5.359571 -5.447136 -4.425926 -4.251020 -4.725975 -4.735556 -4.376053 -4.443998 -4.755491 -4.304141 -4.668992 -4.783799 -5.273014 -5.119121 -5.369527 -4.853655 -5.022190 -5.280894 -5.492695 -4.749122 -5.085298 -4.565257 -5.049007 -5.593768 -5.144033 -5.261107 -4.456254 -4.493230 -4.568803 -3.773467 -4.278424 -4.036116 -3.713077 -3.387780 -2.718851 -3.744920 -3.928821 -4.300366 -4.407626 -4.443575 -4.547632 -4.979214 -5.371030 -5.273736 -4.537663 -4.381244 -4.015067 -4.259943 -4.108836 -3.884798 -3.744865 -4.062255 -3.767248 -4.637847 -4.661441 -4.740264 -4.696402 -4.077498 -4.037455 -4.383503 -4.242635 -3.575802 -3.650791 -3.860940 -3.691886 -3.771769 -3.991904 -3.622386 -3.281202 -2.523182 -3.563084 -3.595567 -3.301870 -3.205926 -3.309282 -2.700167 -3.360864 -4.079729 -4.096436 -3.860524 -3.968372 -3.914922 -4.792720 -4.948042 -5.237394 -6.104800 -5.511020 -6.328781 -6.112589 -6.461201 -5.984118 -5.896200 -6.335350 -4.793114 -4.862497 -4.260162 -3.850783 -3.540363 -3.013846 -3.436062 -3.820965 -3.361943 -3.739544 -3.565464 -3.412204 -3.886439 -3.350300 -4.457941 -3.759031 -3.087644 -4.000560 -3.200915 -4.092121 -4.082020 -3.981003 -4.086923 -4.051356 -4.096869 -5.048426 -4.442584 -4.504128 -4.429208 -4.976529 -5.220176 -5.032017 -4.216539 -4.484581 -3.604393 -4.625911 -5.082299 -4.328027 -4.152004 -4.435297 -4.447211 -5.528680 -5.491274 -5.568170 -5.397796 -4.942964 -5.323760 -5.072218 -5.476612 -5.618571 -4.456718 -4.313036 -4.755333 -4.808803 -5.704425 -5.480479 -5.714598 -5.121213 -5.228396 -6.503059 -6.414313 -6.771475 -6.872168 -6.708402 -6.938048 -7.153745 -7.337797 -6.990573 -7.327962 -7.163413 -6.740798 -6.794119 -6.091903 -6.087157 -5.395528 -5.121735 -5.039610 -5.404835 -5.130685 -4.960796 -5.122714 -4.841170 -5.272742 -5.263998 -5.622631 -6.165616 -5.639041 -6.032217 -5.419417 -5.663671 -6.297341 -6.130637 -5.576099 -5.279911 -4.536520 -5.472139 -5.857824 -6.403272 -6.193323 -5.634509 -5.945617 -6.046877 -6.085671 -6.675649 -6.259744 -6.355032 -6.199775 -6.995197 -6.700927 -6.828757 -7.036235 -6.696972 -7.323382 -7.131944 -6.926754 -6.800895 -6.331957 -5.481511 -5.910684 -5.943802 -6.242518 -6.380919 -5.752585 -5.545399 -4.769979 -5.604667 -5.906348 -4.679234 -5.088045 -5.340331 -5.049978 -5.197639 -4.798144 -5.308113 -5.470305 -5.938007 -6.128695 -5.180184 -4.459276 -5.159788 -5.644817 -5.275547 -5.175981 -5.265718 -4.761646 -4.808754 -5.294388 -5.135787 -5.711229 -6.015099 -5.920471 -6.050708 -6.607048 -7.205814 -6.277925 -6.827241 -6.360491 -6.495264 -6.308778 -6.293314 -6.833654 -5.854128 -6.396584 -6.136202 -7.103980 -7.393309 -7.517672 -7.098103 -7.262806 -6.907623 -7.166405 -7.461438 -7.102898 -7.009479 -6.770600 -6.923997 -6.549614 -6.638543 -7.364795 -6.659111 -6.570696 -7.105654 -6.346341 -6.236112 -5.728778 -6.442586 -5.864392 -5.946027 -5.779822 -5.672827 -6.102790 -6.478401 -6.513768 -5.792624 -5.999945 -5.538143 -5.430262 -5.227618 -4.504254 -4.692727 -4.567294 -4.648165 -5.301678 -4.852725 -5.108109 -5.621829 -5.460386 -5.718341 -6.410807 -6.330033 -5.586189 -5.566509 -5.958064 -5.827064 -5.395665 -5.311324 -5.604986 -6.290027 -5.952657 -5.960586 -5.648862 -5.589230 -6.044349 -6.309490 -5.937983 -5.735137 -5.971772 -5.979098 -5.870846 -6.344587 -6.023091 -6.555188 -6.823297 -6.729109 -6.413391 -6.245244 -5.845759 -5.934129 -5.089651 -4.339076 -4.846488 -4.514017 -4.679637 -4.917420 -5.747697 -5.425361 -5.461997 -5.965735 -6.831089 -7.073928 -6.642176 -6.183438 -5.558767 -5.478655 -5.934669 -6.626444 -5.615922 -4.595495 -4.691777 -4.810721 -5.154972 -4.714459 -4.296727 -3.722155 -3.373422 -3.543610 -3.379860 -4.114893 -4.104023 -4.098054 -5.058433 -4.199991 -5.174436 -4.896819 -5.273902 -6.110586 -5.569463 -5.443436 -4.590303 -4.100721 -3.969470 -4.402143 -3.477434 -2.985093 -3.081352 -2.576189 -2.965623 -3.490611 -3.904196 -4.121344 -4.807886 -5.006714 -5.198029 -4.321921 -4.606370 -4.590503 -4.805108 -5.153523 -4.773657 -4.026360 -4.325510 -4.287602 -4.702215 -5.319090 -4.771521 -4.874921 -4.709179 -4.821797 -5.427909 -5.602593 -5.333995 -5.828353 -5.031653 -5.278929 -5.744618 -6.073352 -5.464973 -5.028812 -4.989558 -5.432737 -4.981874 -5.499570 -5.882391 -5.063140 -5.257322 -5.505061 -6.024243 -5.867699 -6.468407 -6.547041 -6.659536 -6.534247 -6.606314 -6.601478 -6.691439 -6.351376 -6.160282 -6.103745 -5.456384 -5.910485 -5.703396 -5.716437 -6.274376 -6.057257 -6.004336 -6.504134 -6.418470 -7.073678 -7.011694 -6.822124 -6.759890 -6.526078 -7.411062 -6.812278 -7.112498 -6.126311 -6.618389 -6.975198 -7.017273 -7.241203 -6.995434 -6.649641 -6.955227 -6.978375 -6.503465 -5.742736 -6.552361 -5.639289 -6.076932 -5.331964 -4.944486 -4.860794 -4.671817 -5.112826 -4.685794 -4.239925 -3.746872 -3.111180 -3.483466 -2.870304 -3.480479 -3.395637 -3.321209 -3.201248 -2.882879 -3.388928 -4.001720 -4.389146 -4.626461 -4.746581 -4.247742 