0.391879 0.461812 2.093367 -4.214875 -1.041275 -2.638381 0.496901 3.614280 0.073386 -1.524636 -1.040907 0.929051 1.916617 1.229271 0.430324 -1.305800 -0.768199 -3.914140 1.271012 -4.391284 1.088259 6.672485 0.933907 0.990603 3.867236 2.864285 -1.022168 -0.984307 5.934073 -0.393089 3.466053 3.800326 1.317347 -0.314304 2.994433 1.671131 -0.590387 2.846164 1.726669 6.269767 -2.657897 -0.254595 -2.347717 2.895437 -2.627917 -2.220156 -2.107814 3.116438 -1.594942 5.322453 -5.554477 0.774435 -0.883672 -5.306086 -1.154451 0.201937 -1.251545 -5.323414 -5.222043 0.092384 -6.067663 3.576798 -4.309413 4.971804 2.535753 1.455673 8.998537 0.707755 -1.863411 -3.466238 -2.946466 3.204664 2.567577 -1.027225 -5.508429 -0.405461 4.448164 -2.623902 -8.431720 0.357804 1.483948 -0.894381 -0.343725 -1.102271 0.883414 1.669887 1.326961 0.327558 -2.760333 -3.425458 1.793966 -3.684247 -2.707583 2.259897 0.108394 -2.409009 -0.080664 1.060765 -0.720578 3.044929 -2.832479 -2.217814 -3.348815 3.691112 2.495506 2.311984 -4.419271 -3.386106 -1.106980 0.531946 0.148736 -1.983966 0.138769 -2.734303 0.001978 -0.436327 -3.770538 -3.139108 1.988924 -1.655574 6.974717 -2.465757 4.861469 2.055657 -2.581070 0.903639 -3.295903 3.773953 0.917793 1.345847 -2.376249 -3.078509 -2.364486 2.477823 -1.466144 3.427130 2.741269 -1.970444 3.752150 -2.072976 -3.176776 -1.502565 1.615888 4.251730 -2.511716 0.061018 -0.327768 1.919859 -1.644173 -0.096878 -2.248559 3.221032 -0.239175 -6.369060 4.147674 -1.779813 -3.816858 1.233916 3.796906 -1.434932 2.781531 8.274148 1.801791 5.666068 -2.068939 -3.430784 3.206898 -2.136130 -1.992724 1.002305 1.286764 -3.235626 1.168579 -1.056923 3.901413 0.318816 -2.780318 -1.002569 -0.597196 1.466087 4.075353 -1.395569 0.597988 0.798093 2.622208 -2.779608 -2.277617 -0.782782 1.069500 1.283665 -3.736661 -3.002183 -0.862587 -1.842035 3.140922 2.185102 6.844919 -1.948283 -0.753323 -1.107674 -4.106531 4.321376 -0.400003 4.758045 2.285319 -4.849164 -0.766806 0.659411 3.678233 -5.515960 -1.060625 -1.458459 -0.248109 -4.524809 0.601606 -3.162591 1.062827 -0.427192 -0.440896 -1.972900 0.242074 0.241818 -0.028298 3.208847 -3.896548 1.926632 1.259710 -0.180446 4.322501 -4.467273 -0.302626 -3.874096 -2.610965 0.246837 3.389786 -0.299704 1.505804 -1.431886 0.461901 0.416343 0.128230 -0.438242 -2.072818 1.751849 6.120707 -0.947978 -2.294638 1.012273 -0.680409 -0.439649 -2.248973 2.461014 1.899778 -0.656866 1.033601 2.120373 -1.107408 0.732622 -2.837480 -1.034125 0.717765 -0.699878 0.873226 -2.491959 -1.605739 3.257009 1.280758 -3.715267 -0.032097 1.521029 3.013482 5.852485 4.649251 5.372837 1.720522 -1.263984 -1.549461 -0.089284 -0.415654 -2.191325 -1.726420 -2.858293 -1.734014 -1.197945 -2.648621 -0.692946 2.611772 -2.340623 3.152064 0.909065 -0.469190 -0.435094 -1.964538 1.326448 -0.790808 1.367064 0.663524 0.970594 -0.592202 -2.001661 -3.283243 1.717526 1.311545 -2.011452 1.586380 -0.263528 1.868714 -4.828417 5.576483 -0.995564 1.435948 -0.563267 -2.081557 3.204514 4.040268 3.755299 0.878237 2.908863 0.787733 -2.242159 -0.482870 0.478379 0.386168 2.050192 3.468740 1.497359 1.738656 0.041034 -1.692431 -1.630211 -1.507650 -2.987720 -2.461243 1.315597 -1.901885 -2.642054 5.774320 -1.616380 2.456008 -1.456758 2.222382 -0.049367 -1.159718 -5.958614 -0.623403 -1.833869 -1.473084 3.551695 1.182301 -4.667354 -6.650578 0.859563 3.198377 -3.512065 -1.449494 -3.225559 -3.395277 -2.312589 0.904230 -3.238893 0.674927 4.055308 -1.296459 -0.697353 2.405679 0.240744 -4.694489 2.390564 -1.929314 -1.305067 -2.571648 4.095237 1.459223 -1.409340 -1.150609 0.128162 0.387877 -2.987770 0.446932 -3.454883 4.010009 3.194293 1.239087 4.019305 1.850312 -4.471866 -4.011467 -3.684660 -0.513256 -0.639917 -0.466190 2.723810 -1.931924 -3.959554 -5.178024 1.748221 3.942429 4.829965 -5.610948 -2.605082 -0.244410 4.835888 -1.467356 -0.293291 4.124455 5.583895 -0.908309 -1.040713 1.756222 1.323205 2.869736 3.330279 -6.965478 4.306700 -1.240307 -0.620409 -1.350791 -1.073224 2.297130 2.038141 -0.924337 0.292444 0.621533 -2.532762 -2.221940 2.566120 5.051197 -0.259009 -1.403547 -1.291926 -0.775511 4.173529 -0.308573 4.303806 -1.311472 6.293551 -2.949585 1.166300 0.225264 4.898189 -3.903196 4.823675 0.593316 -2.130640 -3.042062 -4.510531 2.519995 -1.425014 1.078009 1.829695 -2.426835 -1.373150 -2.900388 -4.082946 0.817872 -0.935777 -2.201830 -3.335667 -2.247859 -0.210691 -1.770347 -1.562970 -3.300785 -0.830834 -2.191555 -3.292625 0.218399 -0.030693 3.411222 4.275113 2.153426 0.230744 1.841487 2.938617 -2.756046 3.815209 0.917324 -2.013501 -6.402246 -2.179106 -3.752898 0.079522 -3.301602 0.280827 2.080691 0.786056 2.480267 0.020188 0.159285 1.332409 -0.500658 -0.731532 -2.429247 -0.304415 1.127222 2.632371 -5.798993 -3.143669 0.359040 -1.149150 0.534485 1.538316 1.452342 -1.631362 0.719179 0.097135 -6.456110 0.859646 -1.523487 -0.940898 0.644864 -2.388775 -1.826053 -1.595402 2.041489 -3.710385 0.283708 1.466579 1.483308 -3.343692 -1.333924 6.502033 -4.188065 -1.472503 -0.696602 -0.191882 -1.679451 3.224626 -2.491346 -0.359116 1.552204 2.773759 -2.629053 4.087936 3.109678 -0.349772 1.315600 0.692573 -4.098100 -3.597921 -0.097047 -0.497638 -0.239274 4.631601 -3.967861 0.492594 1.757859 -1.640779 -3.400402 -1.594656 3.391419 2.788085 2.834139 3.636837 4.888234 -3.468716 0.204496 -0.740973 0.833192 -1.214517 2.127726 -4.540338 1.567149 6.108149 3.450099 -1.875650 -3.254452 0.638600 0.414987 0.363605 1.104010 -3.799559 2.351507 3.637710 0.085436 2.904149 2.283976 -0.862044 -0.777782 -0.679242 0.688068 -2.719655 1.118917 0.623020 4.216563 -1.087519 -0.614139 4.046658 0.254031 -1.138055 -1.511115 0.490085 -1.162178 5.660016 1.225079 -1.758438 1.949827 4.901932 -0.621618 0.919633 -1.098342 -2.341774 4.594012 0.482851 2.172124 1.602201 2.115350 1.785734 4.729038 -2.524555 4.244271 3.320236 -3.088487 -0.977532 -1.047300 -2.117244 2.803826 -5.502909 2.077447 -1.592074 2.998398 -2.747669 -3.428757 1.806447 -0.221474 -4.285586 0.673860 -2.478545 3.243632 2.553753 7.241052 1.081607 -4.627853 -2.168289 5.480772 1.230407 -2.400645 1.007259 -0.370300 -0.859991 -0.853549 0.372470 3.199676 -1.691893 3.797911 -0.379527 -1.082440 2.023667 -3.289165 0.590687 -1.647942 0.879257 0.395108 -3.935249 1.717508 2.615834 1.219133 0.742401 -0.868309 -2.017092 3.075968 2.405754 1.872218 -1.661329 -2.464835 -1.946964 -0.071204 -0.322754 0.996022 -0.564552 1.644591 1.658216 0.034548 -0.082697 -3.470934 -1.204500 0.245037 0.363704 0.269801 -4.356522 -1.550808 -1.449344 0.598889 -1.525244 0.329407 -1.158655 2.624446 3.860686 1.608321 7.702784 -0.160631 2.187342 1.121498 -3.587502 -0.199965 -0.806916 1.265805 0.695169 1.291141 1.249145 1.307046 1.330976 -5.549682 0.190636 1.173013 4.529680 0.444478 0.819551 -2.222664 0.172101 1.576020 2.320065 -2.994486 2.498599 -4.068446 -2.667753 0.457527 1.813145 1.537735 -1.855082 -2.495090 2.660583 4.019272 4.803482 0.436228 -2.380009 -0.102988 -1.645966 -3.157127 -0.241155 -3.465575 -0.733958 1.091388 -0.174389 -0.055689 -1.612385 6.789268 0.462258 2.694032 -1.561414 -2.363629 2.693768 1.818346 -1.536176 -1.752092 3.807942 1.773989 0.283056 -0.068339 1.423741 -1.739178 0.290107 -3.391295 0.453144 0.285498 0.640680 2.087610 -4.500683 -1.504074 1.349395 -1.745577 4.640255 -1.312647 -0.070072 -5.094903 -1.988443 -0.726320 -4.113695 4.612912 3.235324 0.947775 -2.286880 -3.141661 -1.205374 -4.840523 -4.247553 0.363278 0.734679 1.422757 1.375290 1.515736 7.655028 -1.719070 -7.537716 0.664638 -1.290972 0.903514 2.959162 -1.889503 0.693956 -0.734940 -1.814276 0.664836 0.236550 -2.857045 -0.901515 -3.662950 -1.189687 -2.971189 2.350700 -1.657040 0.742122 2.148183 2.020088 -1.287885 -1.389842 4.980693 5.338991 1.603005 -2.063933 -4.766815 -2.184843 -2.294495 0.670660 4.615672 -3.590171 -3.447471 0.202742 -2.737670 0.516397 2.568671 -2.426858 -4.780723 2.697699 -0.988709 -0.766619 3.438917 1.212704 1.544461 1.276821 -0.328390 0.940410 0.571112 0.343595 3.057813 -0.487333 -3.180273 0.324683 -1.416237 -4.308686 0.709061 -4.375374 0.091831 -0.232491 -2.811060 5.486292 2.676673 3.118877 -2.807335 2.963043 0.398595 3.549726 2.373265 0.174666 2.236770 -2.918084 -0.354606 3.478667 2.952194 0.913502 2.384504 -3.877389 -2.779901 -1.272620 1.745878 1.032187 -0.520787 -3.004029 -0.495590 -0.169113 -0.375608 -0.807753 0.793873 5.764491 -2.828255 -3.239888 -0.211539 -0.074993 -0.141382 2.409733 0.575340 1.091653 -0.221416 1.478984 0.794074 2.152312 -3.144974 -2.485630 -2.132938 -0.065741 -3.367307 3.412674 -3.640207 -0.517146 -0.688701 -0.334493 1.259470 0.575163 2.513916 -1.372106 1.140297 0.524205 -4.221332 1.109793 -1.377343 -3.712310 6.089970 0.167578 -3.535064 -0.319729 -1.733151 0.330695 2.645019 -0.890435 -2.206264 0.055697 0.354599 0.046752 -3.483989 1.804344 -3.510375 0.987288 3.384777 -1.738473 5.298179 -4.148644 -0.734097 -3.361217 -7.239967 -1.682924 -0.767745 0.248667 -1.668748 -0.625143 -0.253129 3.015020 -2.473797 -2.371711 2.304136 -1.138478 2.598837 -0.160005 -2.746257 0.743600 1.943149 4.875480 -1.277881 -3.719871 3.055570 -2.335450 1.600213 1.567304 0.138065 -1.105678 -2.494755 -1.872423 -0.624899 2.585894 -1.321066 0.808465 3.933069 -2.613198 -0.343397 1.932934 -3.017257 -5.735574 -0.540549 -0.481529 -3.280883 -4.346214 5.698532 1.671548 2.289378 -0.256722 7.811345 -1.301910 -2.382067 1.723653 0.912488 4.592241 -1.724934 -2.378302 4.046975 0.559376 2.290425 -0.795091 -1.715505 1.832149 2.976267 2.644453 -2.964575 -6.764343 -2.535475 3.891655 1.481307 1.098495 1.043431 3.448534 -1.382969 3.432969 -2.916637 0.856849 3.473183 1.538944 -3.030700 -2.719876 1.204372 -0.892351 0.860460 0.135322 0.604354 -0.605362 1.297103 -0.704957 4.042312 -4.746852 -0.418367 0.703241 -2.146664 -0.117793 0.803344 1.349721 -2.101274 -1.413022 -1.456468 -2.762731 -0.802983 0.460022 -0.975133 -2.117966 1.562878 1.345321 -0.301945 2.668050 -1.157419 -5.286476 -1.533676 3.086437 -3.776244 1.580301 -2.256977 -0.894790 2.303545 1.703977 1.457085 0.757333 4.327141 1.830870 -2.987631 -1.255985 1.609237 -0.111225 1.258573 -2.433273 -4.654483 1.006404 -0.943709 2.425291 1.328921 -3.018735 -5.320254 3.345566 -0.553372 -2.166137 2.308084 0.506108 -1.758290 2.985978 3.860988 1.664940 2.876444 -0.901517 -0.478114 -3.868230 -3.322077 -0.319630 -2.060656 -1.304180 0.341329 -3.843082 0.324344 -4.957512 0.881980 1.501476 3.190803 -1.947808 1.645144 -4.692013 -0.696995 -1.380654 4.799361 -0.924808 -1.973125 0.244289 3.348977 3.124614 -4.533136 0.922768 -1.325685 -0.225984 -2.445913 -0.800719 -0.548175 -3.530784 2.066028 1.087391 3.127362 -4.013802 3.223945 2.298270 -2.453561 -0.783972 0.039044 -0.852844 -1.075894 2.190337 0.115886 -4.303288 2.721320 0.263174 0.681813 -0.021841 3.185196 -1.862567 4.870328 -2.598540 2.781675 -3.016419 -0.615083 2.313812 -3.150486 -1.921469 3.686923 0.772350 -0.885513 0.445145 -0.995512 0.905721 1.917926 0.026188 1.412336 1.297787 -3.274643 -1.365001 -1.553304 1.977223 2.809560 0.961081 -2.026381 1.625713 0.008209 3.000147 -2.920894 0.799973 -2.673211 -0.160108 -0.303134 -2.132702 -4.665848 -1.108912 -0.608331 -0.576876 -0.526612 -2.036108 -2.893430 3.847038 -1.652975 1.849479 2.538160 -0.499873 2.943155 0.296329 -3.994195 0.619528 1.910724 0.211274 -0.233491 -6.347789 -1.714647 2.818152 -0.625034 3.842262 -0.367564 2.544514 -1.319620 -3.976843 5.549719 0.538001 -0.271359 -2.700235 -1.530931 -1.069232 -1.301052 -4.415342 -1.082879 2.509532 2.511990 -0.932148 -0.762605 -0.480398 1.146755 -2.565480 0.578902 -1.439817 -2.297098 -0.323918 -0.477205 1.396328 -0.809356 2.814794 2.086917 -1.079045 -0.964272 -1.230265 -2.536784 0.583017 -2.953252 -0.720886 3.988836 -0.983748 4.221105 -0.230463 0.541736 -1.769570 6.369708 1.809001 4.630675 0.690793 -2.280749 -3.272629 -1.768376 -3.336775 -3.615717 1.848697 4.890901 -1.404919 2.397001 5.032332 2.968788 2.196203 -3.605500 0.259955 -3.394503 0.711864 2.952341 0.972584 -1.709247 1.787610 6.678134 2.251650 1.864521 1.033663 5.974897 -1.274383 -1.016392 -3.164733 -0.960890 5.629493 -1.953230 2.128423 6.140932 3.215018 4.445803 1.519519 -1.525247 -1.734225 0.101600 -0.186345 -0.431737 4.767155 4.319575 -0.372029 -0.038292 -1.738984 1.782899 -0.638752 1.021567 2.281230 -5.367855 -2.116822 -0.711745 -0.190178 0.988414 -5.560475 0.763637 2.109629 -1.995723 -2.021252 2.616151 -3.561051 -1.311384 -4.558633 -2.030508 -0.335789 1.502621 -3.317688 1.923911 2.111915 -1.086868 -1.044548 -2.913038 0.921263 -1.284587 -2.331770 -0.773414 -8.364458 -3.308898 4.366222 -2.399622 -1.960763 -6.724513 3.301668 -0.891432 -3.609012 -2.255643 -0.669943 -4.350093 0.618276 -1.268648 3.656391 -1.753947 -1.069328 -2.794920 2.269408 -4.545517 1.939172 2.828880 -2.076614 -4.553713 -2.735763 -0.504569 0.396377 -2.975398 0.350097 -1.146887 -0.249447 -2.085287 -3.739647 1.371522 -0.912550 1.159960 1.988779 0.489666 -5.750942 1.238671 0.540656 3.390707 -4.027059 1.538879 -3.493140 2.259681 4.574637 1.682543 -3.107860 0.233198 3.837587 4.354832 -1.315901 -3.148050 2.081792 0.339116 -1.202833 -0.367370 2.830791 -6.799996 2.531871 1.420762 -0.008428 1.300776 -2.237113 0.264110 5.911964 3.874901 -1.942426 -0.174380 -1.471453 0.392057 -0.295141 0.964667 6.946625 -1.629864 2.698839 -1.557335 -2.355783 2.065270 2.640584 0.902543 3.579866 0.729970 -2.207369 2.714308 1.918628 2.982454 3.651970 -1.214991 -0.676373 4.159544 0.451314 -1.626469 7.726088 3.566569 0.574133 -2.820968 -0.615394 -3.921983 1.210776 6.857238 -0.663256 0.582291 2.292121 -5.150285 -1.453268 -3.780929 -0.008866 -0.500816 0.395277 -5.478964 3.603609 -1.357081 0.529751 -3.290003 3.625821 3.293663 -1.776773 -1.114017 1.578756 0.480874 -6.329493 -0.786175 -1.103472 -3.472916 0.228390 3.206318 1.630245 -4.723100 1.079589 2.041563 1.933441 2.871338 -1.044788 -3.560757 -6.095967 1.288129 -4.518919 2.503747 0.225058 2.642951 2.724871 -0.617569 2.850793 -1.718606 -4.270375 -1.337747 0.438099 2.131260 -1.490071 0.846636 2.325078 -2.397750 -5.259454 2.730923 3.749478 0.163930 0.116774 -1.291019 -5.319895 -1.464101 -1.890293 1.064933 -0.838546 1.547179 3.238633 1.504610 -0.091714 -2.317321 1.085298 -5.911397 -0.191214 2.414986 2.459860 -2.378954 1.259252 -3.430562 0.198128 -0.294079 -0.685774 0.885738 0.872389 -1.756454 -0.188568 -1.671657 3.094765 2.219720 0.449025 3.525920 -3.235735 4.090596 2.562907 2.430240 1.450660 -1.869648 2.033664 -0.398853 -3.149840 -1.860904 3.155679 -3.380571 2.041815 -1.576004 -0.794067 -0.847051 0.865859 0.629661 -1.350231 -0.633315 0.791190 0.963475 -0.878870 3.894042 -6.302633 3.034879 3.523535 1.921148 -0.304808 2.880418 1.366364 0.878422 2.403433 -3.295620 5.322262 -3.684168 -0.874378 -1.511587 -0.782578 0.923045 2.029981 2.330313 0.156123 4.011922 -1.544237 0.376683 -0.177417 3.031877 0.807041 -8.663583 0.945996 -1.231915 2.887655 -1.545264 -4.003380 3.303078 4.477121 2.871658 -3.230566 -3.905322 -3.290455 -1.253845 -3.001572 0.175740 1.973796 4.035855 0.738878 -0.747682 -2.326034 4.079968 3.015579 -0.843864 -0.737176 2.807962 -1.916366 -0.158690 -2.216947 -0.386027 2.802030 -2.178900 -1.546412 -1.583324 2.408880 0.067672 1.641701 1.284984 -0.295709 1.700032 1.152176 0.953324 2.027366 0.234038 -1.316567 1.992217 3.280591 -2.032411 -1.738206 0.056074 -1.403605 0.356701 -1.486044 0.480653 -4.319036 1.630476 2.649615 0.773393 7.058099 -3.645865 2.485234 2.929890 -0.238823 0.714610 3.390334 0.233485 -1.605317 -0.903714 -0.985398 -2.545142 1.019276 0.707916 4.000865 -2.621220 -3.269860 0.257369 1.700363 -0.274768 4.114735 0.598720 -2.113318 4.851933 0.723098 -1.027879 3.318796 -3.289602 2.167675 3.115896 -4.735956 2.038462 1.591342 0.449223 -1.816302 0.511945 -2.791640 2.410543 -0.999062 -0.930679 -3.964644 3.420080 -5.113527 2.201976 1.529497 -4.664797 -0.535805 2.461031 2.614344 1.583882 1.826638 3.076055 1.156599 4.375195 -1.650002 1.769347 -3.537360 3.620593 -3.692246 0.347440 1.707065 -3.095017 1.038289 -1.234180 -0.287409 3.868254 0.491828 -2.594659 -0.781720 -1.848725 2.988904 0.560836 2.342967 -4.500938 -1.514469 -2.917709 -1.093727 3.527354 -0.502606 -6.037680 4.529743 -0.575772 -0.326478 0.602079 2.233711 1.939053 3.301891 -0.004690 -3.611607 0.344294 -0.022272 1.371861 -5.495922 2.131078 4.901814 -0.059794 -3.151296 0.197248 -1.160631 5.133808 0.948466 -2.344493 -3.483322 -0.839079 -0.733925 3.500489 1.311814 -0.311867 5.030960 -3.395271 -4.203169 0.371614 1.779631 -0.360013 -5.007052 -0.467910 -3.628920 2.289041 4.483949 0.491991 -0.826904 -2.018426 0.321690 1.184521 0.789533 -1.291489 -2.553498 -3.249509 2.068733 -0.110619 1.411664 1.030928 1.282880 2.892990 -2.394584 -3.563821 4.287940 3.518305 -1.777035 1.625802 6.393227 -0.708870 -2.106634 -3.800369 -6.652357 0.548127 0.190407 1.853066 -1.597927 -0.232253 0.040804 1.513863 -0.594700 -1.079217 3.905930 1.743753 1.885113 -0.167385 1.618492 -0.463883 1.106832 -2.538914 -2.267588 1.346276 2.757575 -0.691612 -2.164596 1.620825 1.338833 1.196434 -0.881258 -3.907531 1.584962 -0.257437 -3.270320 4.806602 0.967186 -1.776599 4.686397 -3.793580 1.606053 0.721584 -0.519469 2.159097 -5.886398 0.439053 -0.448221 3.515790 2.323889 -0.924858 -3.436306 3.332274 1.361237 -2.494971 2.423733 -4.256998 -1.425261 -1.515396 -1.009001 0.227495 -2.840658 -5.037668 -1.293712 2.387545 1.765607 -0.162589 -3.019242 -3.843933 -0.031819 1.177203 -1.104484 2.136650 3.695491 0.422093 2.059400 3.077878 -4.042889 1.073586 -1.066241 -0.873299 -1.070954 0.985876 -2.308294 -3.502969 5.202604 2.305048 0.654347 0.386870 0.624661 2.061071 1.478229 -3.704735 2.809877 -0.779056 -0.272025 0.962412 -3.786740 0.075644 1.347400 1.485466 -2.386036 -0.048442 -3.143175 2.124175 -0.012657 3.070255 0.825728 -2.030172 1.663166 -2.065141 1.545076 0.528104 2.345951 3.422121 -4.704960 1.168653 -4.358390 -1.749003 2.404639 -1.049837 -0.602860 -0.428275 2.026758 2.862284 -0.702453 0.830554 0.417279 -2.449225 0.894302 2.071816 -1.359292 1.989909 -1.325877 0.713143 3.499838 -0.079084 -0.228595 -0.327408 0.105808 -0.217722 -1.751742 -3.153524 2.011351 3.467673 -0.134966 -4.801413 -2.213221 -0.265114 -0.393649 -2.264669 4.281124 0.743827 1.334192 -2.055319 1.462037 5.576788 1.317225 2.705159 -1.170250 -3.432738 -1.544492 -4.729740 1.960146 1.141807 -3.053190 -0.772125 2.995528 2.784523 0.355178 3.429032 -2.086974 -1.390192 -4.468774 -3.911291 -0.587800 1.061756 -3.676355 1.881430 3.634487 8.137277 -4.434693 -3.518805 1.295017 2.693802 -2.882012 1.826287 1.716011 3.580128 4.983958 -3.897044 -0.225855 -3.663409 -1.231402 -3.516712 -1.210165 -2.585361 3.013126 -0.232026 -1.648900 0.247711 0.199219 3.279532 0.807377 -0.732110 2.408946 -0.842991 -0.659957 -1.017136 -2.420147 -0.640174 -0.497349 -1.865908 -0.059227 3.374533 -0.280775 1.436367 -2.016104 0.037342 -3.425645 -4.422770 3.776521 4.555098 2.646279 0.703530 1.183767 -3.715530 -3.192129 -1.847838 -3.827341 -4.800219 -0.565795 -3.314550 5.523822 -1.711665 3.717913 -2.072166 2.020674 -2.039479 -1.763573 -0.309530 -3.716735 0.365514 -3.205830 2.545104 0.144682 -0.985694 0.534223 2.071011 3.323995 -2.294787 -4.946626 -2.878441 3.942813 1.339664 -2.234129 -1.796102 -4.209467 -0.000255 -2.087023 0.974961 -1.295590 4.297582 -2.599699 -0.193114 2.689163 2.091164 4.577075 -4.390262 1.445601 -2.354662 0.127296 -2.408189 -5.244798 -2.890365 -0.776911 2.832488 -1.197349 -0.576238 -0.445752 1.518824 1.042453 2.054787 -0.147695 -0.067161 1.677481 1.308562 0.876282 3.679339 -4.882726 0.807707 0.415405 -4.309405 2.255850 6.581112 2.509409 -2.553925 -4.680454 2.240813 1.489197 -2.250417 -2.606269 -3.424670 1.013226 -0.684808 -2.256180 3.974097 0.407440 0.767488 2.024323 1.908698 1.333149 1.075018 -3.983899 -0.397516 1.254250 -3.765780 4.548083 5.370551 -1.374284 -4.199799 -1.579600 3.123282 0.535559 1.830861 -1.994501 -2.403484 1.641560 -1.915652 1.095719 -1.145922 1.079271 -0.712832 -0.123908 -0.227508 -0.267668 -3.402041 1.749965 1.407227 -3.458162 1.900877 -1.503395 0.571822 -3.008440 2.434760 3.150243 -0.206363 -0.088274 -6.444734 1.301765 0.554680 1.998479 2.619362 -0.431422 -1.377352 0.611891 2.037663 -0.614018 0.909540 0.724345 -3.825248 1.807346 -0.232125 -3.424392 0.022270 3.351956 -0.331595 -0.114910 6.392931 -2.607126 -0.315382 0.963177 0.779270 -1.286272 2.255018 1.751662 1.654340 -4.586733 0.892078 2.063827 -2.901452 -1.156008 5.336200 -4.716967 2.725126 0.600828 -0.925740 5.257106 1.523227 -0.459650 -0.451879 -2.946118 1.822904 2.966260 0.828319 5.250110 -4.476225 1.536834 4.153164 2.055793 -3.815878 3.371558 -6.517254 -1.876602 -0.192852 -3.394030 6.375449 -0.600071 1.743122 -1.862310 1.011029 0.124720 -4.710311 2.054114 -0.143574 5.363215 1.126829 3.187233 -2.211265 -1.379908 0.033619 1.196312 7.055408 -3.626565 7.157326 2.926415 0.178582 2.565754 -4.209399 0.955008 0.517413 2.502317 1.566237 -4.203946 1.558530 1.356433 -0.169856 -3.940490 1.702017 -3.214450 -2.183669 5.981267 -1.311862 -0.774664 -5.271102 4.026695 -0.253764 0.156566 4.241507 2.403841 -0.510179 -0.327662 -0.236343 -6.934531 3.712052 2.690387 2.512887 0.678043 -1.724072 -1.253801 0.608666 -2.994939 1.521750 -1.775622 3.856952 -1.350370 -0.480549 -2.263182 -0.044638 2.842488 3.790876 -4.614400 1.168509 1.390198 -3.322131 1.492140 -2.135463 6.300810 3.696692 -0.883863 -1.068386 -1.932813 -0.013080 -2.263609 2.724902 0.388333 5.922753 -1.061883 -0.361883 1.097135 -0.583736 0.669611 4.967740 -3.554967 -2.621456 -1.816773 0.304471 1.417340 1.156590 -2.221809 0.188577 2.377839 1.975926 1.389465 -3.675891 0.291015 -2.832707 -2.140165 0.868297 -2.299743 3.044336 4.315908 0.990110 2.321534 -0.960675 -0.776233 0.524725 3.542656 -2.212276 0.042663 -1.315914 2.486103 1.940406 -1.560878 3.288884 -1.832572 -4.182711 -0.681307 1.095329 2.282031 0.325066 0.632451 0.768022 2.782875 -1.028589 1.996879 -0.142795 1.726888 -0.188212 -1.515345 1.869517 -4.695449 2.602176 -1.401877 2.515382 0.214754 0.783841 0.635188 -0.862510 0.955455 3.612174 -1.586978 1.859733 1.663359 -2.983689 -0.991348 -0.882007 0.840034 3.715202 1.801596 -1.501727 0.744288 5.686607 4.519469 0.371678 -2.943155 -3.714622 -1.208345 -2.813978 -2.780792 2.296781 -0.682869 1.715311 4.820269 1.187493 -0.609939 -0.564375 -3.697602 -1.709803 -4.708631 -5.527862 -4.618062 -0.191964 -0.014368 -1.365672 -2.441504 -1.717616 5.168006 0.928038 0.625685 -1.318577 -2.197040 2.916411 -1.026464 -2.698016 -2.593586 -0.078677 1.518484 1.221803 -2.225412 2.946843 -0.462007 -0.247882 0.913871 0.719367 -1.086091 -2.459117 -1.999312 -3.406381 2.007299 -1.772400 0.206766 4.937846 1.375137 1.256784 4.045207 -2.912006 -1.085819 -4.361362 -2.147603 -2.243632 -0.048790 -0.111685 -2.963305 -1.972820 -0.055894 1.588919 -0.606106 -2.188782 -1.775984 -1.247021 0.590847 1.752033 -0.293931 -3.318792 -2.511763 1.127269 -2.455126 0.846769 0.414514 0.673495 -2.439465 1.320132 0.829420 2.140560 -1.601880 -1.397548 0.460600 -1.106077 -1.068313 -2.837546 -0.687424 -0.595694 -5.092727 -4.351310 -2.107071 1.534514 -2.105333 -0.130275 -0.084055 1.944641 3.182633 -0.813696 0.662830 -1.194907 -4.031589 -3.767893 2.952801 -2.571470 -0.506900 -1.991156 -1.251377 -7.396024 1.725796 -0.799502 -3.882741 3.033637 -0.507631 3.098608 0.733225 -0.861470 -2.864569 2.420297 1.624808 -2.221354 -0.320643 2.921293 -3.709218 -3.192880 1.695377 -3.505355 0.215740 -0.073929 3.248559 1.062979 1.202766 2.302820 -1.339878 0.455181 -0.141354 1.352610 -2.327420 -0.214115 -1.854191 -2.982411 -2.581183 2.433318 -1.271663 5.369244 -0.301703 1.731736 1.339794 -0.360012 -0.771853 -2.573169 4.142467 -4.774100 -3.555683 4.689015 1.031454 -0.736416 0.738655 -0.748418 5.793861 3.189615 -0.825206 -2.541371 -0.028996 -3.271662 -3.019948 1.828531 3.008874 -0.282475 3.255330 2.886826 1.046917 2.301467 3.130951 -0.831500 -0.638482 1.064843 5.593518 -0.172804 1.567638 -1.952237 0.453324 0.265089 1.642544 1.035636 1.054745 2.853138 -0.622654 2.858352 -1.014011 -0.722289 -0.798827 2.663531 0.571408 -0.921642 -5.348807 -2.560011 1.136975 -0.777501 2.315358 -2.740897 3.222391 2.866289 -3.701283 -1.859000 -4.815192 0.942286 1.989690 1.773709 1.419267 1.828508 8.313825 1.964568 -0.015374 -0.467656 -6.528407 -5.468401 -1.754290 -0.072229 6.192530 0.828474 -1.738279 2.250397 0.667128 -1.497735 2.781940 0.466475 -0.968570 -0.424598 1.466162 4.332476 -1.199669 5.299912 -2.064298 5.197929 0.854339 0.882649 0.384896 -2.636652 -6.824749 0.562762 -2.689968 2.459013 3.623918 3.560352 1.808504 1.999442 1.682380 -0.538382 0.903321 -1.203847 -0.860471 2.597700 2.399530 -4.185267 -3.283186 0.611584 -1.003452 -1.002429 -2.592008 -3.380392 0.835464 4.091607 0.048318 1.619447 -1.551739 0.708200 -2.715043 0.774666 -2.996306 -5.456039 -2.842419 -3.761555 -2.963602 2.139620 -1.246235 -2.377734 -0.124348 -1.440312 -1.332010 3.350776 -2.203066 -3.365019 -1.108429 2.391605 0.164052 -0.051514 2.955147 1.060026 -2.006637 1.234542 -2.427416 -2.109672 -0.448230 -0.453202 1.160686 -0.488383 1.342156 2.637025 0.743823 -2.763810 0.705650 -1.095072 -0.990888 3.639097 2.963050 4.215168 0.455001 0.628665 1.919261 -0.097104 -3.689960 -1.815982 0.156268 -1.329772 0.542079 0.459506 0.655986 3.888767 6.427097 3.631798 -0.150187 -1.608424 4.987508 -5.623922 -3.326998 -3.294549 2.505269 -1.039397 0.980643 -3.882802 2.052736 3.486959 2.732142 0.321456 1.960191 3.549728 3.005699 -0.821599 -0.959056 -0.753048 2.661817 -2.718625 2.472181 -5.867270 0.496108 -1.331635 2.311815 -3.178371 -0.750710 -0.441331 4.638286 0.706511 0.460357 2.015758 0.366925 -4.319367 4.030935 -0.052491 3.238659 4.171336 2.264632 0.499481 -0.964128 -7.177035 1.565717 -2.129397 -3.376619 1.845628 -2.580205 -4.731596 -2.292457 -1.811553 1.339933 -2.117020 1.549111 6.168426 2.538843 2.114959 -1.645909 0.329860 3.100560 -0.848155 -2.692391 -3.813143 2.092688 0.138370 -1.487928 -3.063297 -0.645189 1.341481 2.619571 1.941292 -4.724381 -0.359048 -0.268270 2.898005 -4.528784 -3.727484 -1.413054 -2.308013 1.129220 3.664205 -1.531674 2.181432 2.056691 -1.358123 1.647603 -0.522746 -2.139672 1.226173 1.130277 -3.844634 -4.758567 2.425952 1.938999 -3.168977 1.896950 1.728531 0.372494 -1.468597 4.843403 -4.132662 -1.624158 -1.739536 1.831352 -1.817502 -1.482243 -1.314240 -0.828439 -2.116239 -0.478252 4.185849 -1.244566 -0.842391 -3.987631 1.684134 1.066637 -0.915217 -1.158568 0.850288 -0.498013 1.065710 -1.004564 2.196522 0.200749 1.846077 1.327949 2.750828 2.216753 -2.985229 2.165599 -3.167358 -2.546591 -2.597028 4.259598 3.509081 -1.595838 1.987549 -4.490488 2.922812 -1.464181 1.731497 2.600904 -0.478507 -3.296007 2.028312 1.688788 2.655234 -1.236869 2.265385 -2.609237 -3.447062 4.638585 -2.752323 0.954910 0.590982 2.683631 0.641279 2.234764 4.811144 0.790747 -2.366849 -2.201003 1.410184 -0.560661 0.912787 0.626350 4.159490 -5.674297 0.227108 -1.757416 3.449152 2.411759 -1.058497 -0.642943 -3.231114 3.921758 -2.097476 2.936916 3.710550 -0.987053 -0.647439 4.255336 5.117085 -0.798354 -2.335432 1.268252 -6.487440 0.899724 -1.429670 0.642612 2.172132 2.405868 0.621649 -7.204939 -1.165304 0.194085 0.130411 1.242664 -3.433326 4.114569 -0.994276 0.900126 0.057695 0.213217 1.671484 -0.142210 -0.065422 1.446712 1.422320 7.397873 1.330692 -1.902738 3.116118 1.260516 -5.486997 -0.282224 1.301767 -4.955145 -2.433939 1.213146 -0.247833 -1.651178 3.365980 6.021446 -0.998425 -0.781485 -5.563200 -1.279085 6.482816 3.509862 -3.594360 0.646545 -1.828436 -1.373512 1.342062 -0.952018 2.368620 -2.345049 0.104893 -1.597527 -1.141355 -1.336989 3.544882 -1.759696 -2.838107 4.096398 0.445148 -1.248164 -2.985433 2.411243 -2.750732 -0.602331 -2.458198 -3.407681 2.026364 1.717608 -1.767685 0.015405 -1.220421 5.376750 1.070790 2.380830 0.104484 -1.048640 2.191964 -1.585628 -1.532026 -1.576385 -4.137814 1.270291 1.093507 -0.553425 1.001674 -1.965010 1.638939 -0.381096 1.228876 -4.113047 -1.626689 0.186402 -1.338486 5.054989 -3.784464 1.916652 1.515588 -1.505897 -3.410201 -2.939856 -2.455364 2.537447 -0.966964 2.289307 -1.066343 -0.426635 -3.738357 3.070454 2.182244 -6.217923 -0.531414 -0.246891 1.710441 -0.642210 4.160816 -4.518742 -0.255770 2.827434 -0.936820 1.963681 -1.628765 -1.122926 -1.049750 -2.268938 -0.752551 4.009993 1.887561 1.531849 -0.166429 1.607172 1.202473 -7.169698 -0.117632 -0.213300 1.689179 1.118987 1.188748 1.173259 -0.352927 2.777559 5.021847 -0.627505 -2.281674 4.476054 -0.800270 -0.824235 3.678329 1.630691 -4.865126 -3.986911 -0.154918 -3.274119 0.334476 1.641270 3.308113 -1.590362 0.552408 0.324163 5.003340 2.274833 -1.485111 0.328353 0.626507 -2.535161 0.662647 0.410497 2.014135 -1.321191 -2.448352 4.315240 3.774537 3.058950 -4.068446 -3.094539 -0.846446 -3.805773 4.243168 -1.425861 -0.711506 1.276383 0.109433 4.617314 -1.082934 -2.542428 -2.332940 0.084051 -0.145503 -0.275371 1.394409 -1.781279 2.051254 -1.445622 0.334412 0.048633 0.155350 0.028917 1.699266 -3.223497 2.021277 -1.409270 2.000979 1.459728 1.420430 -3.635400 1.871011 -4.693673 -2.522604 0.867242 -2.336177 -0.405565 1.457332 0.000910 4.615804 0.883819 -2.576431 -2.349490 1.410371 -0.692043 3.907348 0.081484 0.258191 0.483164 0.638899 0.210326 -0.085702 -0.107586 -3.303079 -0.960059 -2.360199 1.228144 -2.235630 -3.343245 -1.143415 -0.675985 -2.149140 1.172569 -0.500125 5.952846 -1.233524 -2.571198 -0.746305 -0.425608 -0.725795 -0.998221 -2.347192 2.864126 2.793601 2.270171 -1.478933 -1.086826 0.654988 0.405741 -1.586225 -4.731143 -0.569414 -0.266412 -0.176137 -3.544772 0.322251 2.050287 -1.346036 3.406859 2.794909 2.458947 -1.279489 0.580125 -1.311262 -4.394151 0.832421 2.161638 -1.258819 2.108961 0.563342 0.599223 0.377642 3.427262 2.542228 0.514217 0.483824 -2.710368 -2.195854 -0.425573 2.697131 2.087331 0.327782 -2.575325 2.911896 2.523364 -1.369620 -4.696454 2.584529 0.877707 -2.459921 -3.850081 -1.411138 -2.459842 -0.472788 1.021405 -2.294002 -1.634718 -1.096289 2.326619 3.328525 2.686384 3.740939 -1.402944 0.534763 0.268677 -3.163344 -3.095855 -0.975398 -5.387131 1.902017 1.845111 3.235888 1.123271 -1.912677 -1.599349 0.237511 1.523717 0.787634 2.269467 -1.005732 -3.694645 0.128081 0.013816 -1.889166 -0.218380 -3.100960 0.825309 0.889927 0.738439 6.707896 -0.518017 -2.026827 -3.322360 -1.014462 -1.257151 -2.919487 -0.984960 -2.094420 -1.260293 -1.025252 3.903879 3.198072 -0.517081 2.688972 2.436694 -1.137677 -1.387084 -1.334570 0.390475 1.899162 -6.324106 5.706406 2.048041 -1.307271 0.013920 -2.839983 0.783928 -2.679011 5.571894 -1.915212 -2.859910 0.809394 -0.595202 -0.734802 3.688977 3.220823 -2.140023 -0.101954 1.581385 1.170552 2.106747 -3.295045 -6.026019 2.983173 -2.109441 -0.756140 -1.028288 -3.674240 -1.532139 0.268084 -0.048796 4.192408 0.410212 1.767746 -1.795766 -0.037146 -0.544317 -2.465609 0.655947 2.000597 3.342759 2.606081 2.170489 1.670707 1.237635 5.453480 -2.134214 2.616084 -4.146959 -0.202631 -3.487742 0.252794 1.690821 4.775679 -3.610407 0.216329 3.837584 -4.554090 -4.285996 -2.099206 -4.437068 2.633282 2.551456 -2.401196 2.988911 6.461647 -0.762037 3.664456 -1.530797 0.408615 -1.216748 3.875439 -1.562103 0.475319 3.971485 -1.012008 -0.764007 -0.599541 3.014137 -2.205693 -4.922866 0.723151 2.799072 -2.173258 4.268762 0.897100 -0.411645 1.314737 -0.292220 -1.989719 -1.684970 0.394564 -5.931512 -3.201019 -2.438537 -4.871879 -2.533390 -3.483807 -1.063854 -2.295592 3.100358 -0.539613 1.215977 2.591346 -2.465458 5.581089 -0.141385 1.306176 2.298696 2.281350 -3.093642 -1.173026 2.219885 0.234280 -1.587210 0.104862 0.454585 -2.607033 0.810374 0.604961 -1.041913 0.630310 -4.077671 2.903705 2.542302 -1.049340 0.282824 0.586772 0.676272 -1.255199 0.369557 -1.404562 -2.622645 -2.229196 -1.837019 3.245819 -0.412996 -0.401678 1.317248 3.103350 -2.283275 7.221656 2.911849 -0.810310 -0.924996 -2.051627 1.322440 -3.890337 2.776836 -0.835836 -0.162692 1.440861 -1.640634 1.651714 -0.253396 -3.374118 0.062510 2.001391 0.099494 -0.120259 0.088492 -2.904978 0.757568 0.577711 0.300921 4.885469 1.255383 -0.490779 -1.985168 1.667895 1.155491 2.261292 -1.471844 -1.031278 -2.042602 -1.582924 3.175210 -0.615751 -2.162535 3.094490 0.020091 -1.721089 -0.102249 1.639245 -3.452814 1.757566 4.766898 -0.588047 -0.670290 -3.586150 -1.243522 -1.195023 0.402441 -1.564081 -1.041078 -3.623489 1.885321 -3.140193 3.445423 1.192085 1.205260 -3.828416 0.162763 0.159324 6.198407 -3.035994 -1.190605 -3.797003 0.449103 -1.567352 1.433884 -2.105986 0.064226 -1.134996 -4.056351 -0.446471 1.136592 0.884419 -1.101313 -0.681657 2.811913 4.039736 -1.675472 -3.423450 0.437065 -5.724833 1.089734 2.257955 2.033889 1.624507 -1.354537 2.163741 0.150690 -1.723112 -2.104123 -0.051744 -1.508088 -1.316350 -2.648745 1.021555 -0.589509 4.194781 -1.340919 -1.076194 0.711719 -3.979225 2.584306 0.372864 -1.235554 0.302372 -3.982052 -0.249539 2.821873 0.791667 -1.424669 0.619944 2.453367 3.576311 -0.422674 -0.698457 -3.675979 3.389647 -2.090609 -0.533047 2.582700 -3.663616 3.203212 4.345362 2.131880 -1.892452 -1.308999 3.723331 1.447957 -0.743746 -2.573047 3.053660 -1.890665 -3.388550 1.612536 1.648390 -1.759245 -0.036047 5.014064 -1.940751 -0.197707 -0.274045 3.081712 0.871987 -0.954057 2.276355 -0.929884 0.928904 2.088532 -1.345429 0.295303 -1.128681 0.771434 0.513388 2.133896 1.734911 -1.557427 -4.329380 2.731129 -0.741797 -0.961321 3.769045 0.515926 0.592263 2.169456 0.412325 1.614319 1.370539 -0.478763 1.096432 1.197290 -2.143137 -3.490302 1.971941 -1.360219 1.927960 -1.516761 3.795558 -1.321160 -2.546677 0.822209 2.420271 0.397143 -3.092298 -2.324496 1.515580 1.497471 4.077997 1.703087 1.740661 -1.399426 2.127535 -1.604015 -0.100294 4.500428 -7.074981 -1.206706 -0.658428 -0.148318 0.894399 0.921994 7.278497 -1.491507 -1.045743 -1.122955 -2.239059 2.368604 0.156209 1.719867 0.022197 0.703923 -2.587738 0.906784 3.808672 4.599328 -2.553882 -0.475090 -1.466265 -2.683203 2.012151 -0.120876 -1.711798 -1.228468 1.204711 -2.112425 -1.954605 -1.737219 1.752943 1.586742 -0.268190 -1.797979 -1.248952 -5.621878 -1.875838 -3.321027 6.610296 0.909970 2.503721 0.737344 -0.445659 2.563216 1.651206 -2.196789 -0.713325 -1.669859 -2.922816 0.575041 0.535241 -1.260566 0.537859 -0.774289 -0.638892 -2.191366 -3.519594 1.590264 -0.122874 2.952122 -0.722989 -1.930174 3.181808 -0.344526 -0.770255 0.514752 -2.418062 0.974416 2.525764 -2.648522 -1.025992 -0.512302 -3.504039 3.002613 -0.509807 -2.234803 -3.493648 2.281343 -2.848482 1.912554 -4.718164 0.695102 -2.286699 -1.953881 1.259589 2.631355 -0.874258 2.099072 -0.968878 0.548600 0.314939 0.038548 -1.884776 -3.216995 -0.997524 -2.466749 -2.158385 -2.005691 -3.135214 -1.023332 -3.934640 4.527183 0.650929 0.405456 1.779289 0.202794 1.588744 -0.673788 -0.769960 -1.055941 2.406686 1.919654 -4.942300 -1.072216 4.127558 5.115788 0.494818 0.200882 -4.180563 -1.752948 -1.634829 -5.190060 -0.116152 -1.330952 -2.357140 1.184075 1.448827 -0.522648 2.446161 -2.557636 -0.919523 -2.371659 -0.470225 0.828014 -2.509795 -3.760694 -1.530232 -0.918585 -1.135006 -1.208625 -2.628923 -0.555199 2.869049 0.735428 3.380968 1.286816 2.692090 -2.633277 -0.881120 2.150767 -1.583795 1.422928 -0.434253 -4.824240 -1.055266 -2.209492 -0.608489 -0.910932 2.571584 0.656844 0.673829 2.254820 4.941042 5.594294 -0.456096 0.974645 0.939536 -3.930551 0.827680 0.575025 1.998706 3.200337 3.141260 2.767648 -0.771195 5.703197 1.400781 4.026356 1.624950 -0.054391 4.815339 1.058416 -0.826005 0.540990 0.970071 5.493636 1.540073 -0.245910 -0.094942 -1.064475 2.223291 -3.106767 2.031799 -2.803596 4.409549 4.019151 -2.807693 -2.435224 -1.738625 -1.038077 0.141231 -6.118248 -2.066860 5.292142 3.540871 0.999485 5.667024 -0.833349 5.468484 -4.826785 3.308883 -0.476753 -1.858893 -3.253392 -0.983073 -0.189323 -3.648609 1.982135 -3.026666 2.494621 2.305869 2.104323 -4.676728 -2.336132 0.024458 1.328028 -0.651415 -3.998011 3.429323 -4.451269 2.481591 3.507341 -0.145292 1.214685 2.891243 -0.362303 -8.781222 -2.579409 -5.340879 3.179334 -3.730382 -4.798060 -1.936407 -0.843654 -0.646015 1.846195 -1.429538 -1.470307 0.771164 -0.859160 0.444700 0.160843 1.663731 2.848836 0.920071 -2.542835 2.459623 -0.917660 -6.027655 0.864627 4.186758 1.868414 -1.919299 1.857554 0.318243 1.755285 -3.624639 1.098350 -3.635577 3.246824 -1.883041 -3.457731 0.387959 2.157577 -1.324140 1.412773 0.075312 -1.683793 1.820725 -0.035134 -0.385572 -0.492669 -3.345502 3.307000 -1.763044 -3.344393 4.884310 3.093617 3.884022 1.458452 0.002092 -0.180086 -0.111172 -3.608135 1.042674 -0.369946 -1.934319 0.051873 -1.148193 2.238717 -1.367311 0.388601 3.368217 1.530016 -2.031613 -1.898090 0.300747 1.665588 1.214467 -3.958964 -1.715686 0.654073 2.252898 3.067378 -0.724747 -5.230104 0.566346 -0.695449 0.380907 -1.681284 0.290212 2.195853 2.125704 0.196937 -0.175273 -3.124032 1.916544 -1.513590 1.489307 -0.312305 -1.670859 0.340346 1.964018 -3.068380 1.609907 0.182502 0.019413 -3.207509 -1.085665 0.782478 3.707270 -3.212139 -1.530887 -0.736822 1.120690 0.702282 1.783541 -1.582230 1.837601 -2.726715 3.661970 -1.651104 -1.763762 -3.045852 0.727606 0.818462 1.830666 0.159580 -1.592146 -4.097284 2.783781 -2.355473 2.057721 0.260596 1.956746 1.869127 0.033705 4.754339 -4.188909 -0.538703 -3.739169 1.682929 1.249065 -2.269381 -4.999005 -0.886028 1.547367 3.905875 -0.058673 2.916269 -0.157527 -1.572013 1.653861 2.712484 -2.789799 3.551209 -1.088058 -1.109039 0.714833 2.356154 -4.636009 -1.089591 -0.331094 4.278800 0.524074 3.374077 -0.031877 1.668440 1.647363 -3.756197 1.252812 -2.072014 3.074192 -3.838581 1.624183 -1.463787 -1.203576 2.224770 1.752456 -0.006253 -3.447467 0.769437 2.224634 -2.930271 0.255323 3.612825 1.799181 -6.612039 3.908030 2.226705 -1.676391 2.986713 -3.517546 1.782339 0.115438 3.430779 -2.419659 -3.544652 -1.025755 -0.880827 -0.687380 0.524603 0.796465 3.929712 2.135140 0.150270 -0.006413 1.660279 -5.054627 -3.209796 -2.526839 1.060107 -2.239292 1.240265 -3.263432 0.477592 3.976766 1.547151 -0.661801 2.491607 -3.666804 -2.020343 -1.572620 -1.552435 -1.644240 1.890125 5.132146 1.125935 1.103445 -3.772179 -3.199841 -2.931242 0.341719 -3.234931 0.231805 4.044453 3.758318 -1.538254 0.056445 -1.273640 0.102838 -0.194367 2.615989 0.668021 -0.913114 1.164181 2.613445 -4.210277 -0.967452 2.598640 2.182724 4.753930 -2.151995 3.001854 -1.920177 -1.613267 1.232652 -2.233459 1.168287 1.014266 -1.702091 1.409859 0.107094 -3.191255 3.219942 3.196586 2.380798 3.469664 1.873843 -0.074752 -1.703863 0.167535 -5.060537 0.248065 2.071288 1.850588 0.083818 0.416147 -2.343163 -0.635001 -3.598507 -0.413372 2.878529 -0.538356 5.930030 0.724919 0.824557 0.516599 -0.961936 -1.269550 -1.465569 -2.516395 2.324873 0.977723 0.783567 -2.417275 1.405138 -0.194445 -3.689943 -3.250614 5.138161 1.646827 0.919198 -2.081883 1.710631 1.744410 2.667088 0.403817 3.122782 0.090997 1.535013 -1.686859 -3.321399 3.541107 -3.304177 -1.405321 0.425249 -0.541640 -2.213212 6.077712 -2.264069 3.700030 -0.982630 2.294867 3.475883 4.416371 -0.915721 0.198061 -2.076329 2.498981 3.878588 -0.284962 1.352935 -0.037981 -4.245936 3.957002 -2.666892 -1.231639 2.232115 -2.189900 2.809478 -2.160238 -1.498003 -3.236170 4.022163 -1.299643 1.556465 1.982162 1.734910 3.360965 -2.061080 -1.726722 -0.158124 -1.360747 1.577777 -0.135662 1.719033 -1.521074 0.628356 0.627030 0.336024 0.272521 -1.487873 -4.156725 -0.383266 1.613457 -0.422322 -2.066645 3.301936 0.115043 -3.257845 -1.209055 3.811975 -1.547472 1.450798 0.028035 1.673112 1.588644 -0.285755 1.177328 -3.923671 3.209984 -2.100258 -0.309979 1.300258 -1.805665 -6.233020 -2.305100 1.814143 2.617524 0.623156 -0.979333 -3.553897 5.161020 2.882053 0.019781 -3.455663 -2.570068 -0.227653 1.114184 3.925705 -3.398372 -2.586844 -3.307414 3.704287 1.218435 -4.298060 1.132592 -1.682704 -1.173085 0.108807 -1.403072 1.640467 -0.063499 0.158323 -1.746302 1.861648 3.131446 0.706791 -1.110026 5.317335 3.290122 -5.601261 1.237829 -3.373976 3.170544 -2.374503 1.108025 1.001594 -3.643544 -1.273601 0.069165 -1.244987 1.341926 -0.095491 3.032535 1.049586 5.735581 -1.652346 -0.285275 -0.168791 -0.468208 