2.275714 2.275714 2.275714 2.275714 2.275714 2.275714 2.275714 2.275714 1.996341 1.993616 1.990894 1.988175 1.987649 2.096903 2.094040 2.091180 2.088326 2.823147 2.819847 2.816014 2.812168 2.811888 2.813367 2.820687 2.839981 2.837859 2.856138 2.860079 2.856173 2.862268 2.858360 2.854486 2.858200 2.859372 2.858489 2.855463 2.851597 2.847704 2.846533 2.842672 2.840574 2.837759 2.838972 2.843968 2.840088 2.842422 2.839093 2.835972 2.850263 2.848809 2.847294 2.845627 2.843737 2.840085 2.837146 2.837893 2.843293 2.839415 2.838508 2.841456 2.853921 2.850158 2.846659 2.845425 2.842109 2.841295 2.837419 2.834346 2.834289 2.830614 2.829146 2.826523 2.824332 2.827735 2.826166 2.823927 2.820582 2.818588 2.825270 2.823053 2.822122 2.818728 2.815222 2.811460 2.808777 2.806706 2.805304 2.801488 2.803990 2.800824 2.797448 2.795649 2.804110 2.804643 2.803567 2.805092 2.806327 2.803492 2.800809 2.798995 2.795878 2.796916 2.793956 2.800712 2.802989 2.803219 2.801192 2.803275 2.800322 2.798193 2.795862 2.796957 2.793899 2.791851 2.789641 2.786722 2.790360 2.794645 2.791527 2.790745 2.789213 2.789542 2.788240 2.785249 2.784769 2.785688 2.782070 2.781387 2.778539 2.776038 2.773260 2.778477 2.778043 2.778324 2.777714 2.780672 2.779747 2.776477 2.773295 2.770175 2.767369 2.764508 2.766197 2.767027 2.763607 2.760310 2.764995 2.763329 2.762660 2.762622 2.766358 2.767019 2.766119 2.764008 2.763499 2.763029 2.759879 2.759939 2.757806 2.754816 2.752515 2.753531 2.752928 2.756990 2.756628 2.754409 2.752216 2.750836 2.750013 2.747696 2.750550 2.749627 2.746696 2.750240 2.747300 2.745366 2.745350 2.744445 2.741541 2.739517 2.737474 2.740474 2.740088 2.738690 2.735520 2.733543 2.733661 2.731732 2.729105 2.727900 2.726525 2.728505 2.727746 2.727435 2.725557 2.724941 2.724073 2.722358 2.722063 2.718756 2.719986 2.717204 2.716772 2.717325 2.716287 2.716415 2.716046 2.717101 2.718523 2.721151 2.719487 2.717426 2.717365 2.714826 2.712156 2.713201 2.710904 2.708677 2.708918 2.708346 2.709069 2.709052 2.707418 2.708872 2.706769 2.707335 2.708263 2.708076 2.706867 2.708132 2.706135 2.705857 2.705568 2.703568 2.701483 2.702023 2.700886 2.699554 2.696371 2.696762 2.694173 2.691739 2.689813 2.687366 2.686221 2.686187 2.691147 2.687818 2.687631 2.687998 2.689466 2.686968 2.684578 2.685331 2.685198 2.685452 2.683092 2.681335 2.681427 2.682214 2.681620 2.680595 2.677096 2.674281 2.672654 2.671537 2.668230 2.674285 2.674615 2.675975 2.675994 2.679926 2.678216 2.676750 2.674998 2.672462 2.670489 2.671497 2.670853 2.667962 2.667081 2.665629 2.666385 2.665228 2.666862 2.665787 2.663823 2.662437 2.662463 2.660844 2.659235 2.659315 2.658056 2.657907 2.660526 2.660275 2.659562 2.657480 2.660818 2.659640 2.662879 2.660170 2.663629 2.665201 2.662093 2.661409 2.662208 2.661359 2.660872 2.660857 2.663176 2.662788 2.660153 2.661175 2.659700 2.659562 2.661610 2.660595 2.661065 2.664645 2.664652 2.664099 2.665281 2.663738 2.662155 2.659435 2.659767 2.658919 2.657578 2.658432 2.656878 2.655111 2.653559 2.657062 2.656141 2.653080 2.651104 2.649813 2.651815 2.652411 2.651365 2.652467 2.654250 2.651211 2.650682 2.648599 2.648140 2.646038 2.643885 2.642486 2.645369 2.644582 2.643353 2.641425 2.639942 2.637940 2.641422 2.642803 2.642632 2.641406 2.640059 2.637921 2.643142 2.642035 2.640259 2.639427 2.639540 2.641228 2.639345 2.637444 2.640608 2.640244 2.639819 2.637905 2.638465 2.636620 2.636122 2.636815 2.639105 2.636219 2.635664 2.636483 2.641123 2.640590 2.640013 2.637821 2.643358 2.642271 2.641698 2.642380 2.639440 2.637071 2.637510 2.638077 2.638873 2.636747 2.638453 2.638977 2.637882 2.637008 2.640572 2.638996 2.640309 2.639105 2.638691 2.638046 2.639220 2.639622 2.639300 2.644060 2.642099 2.640968 2.641342 2.640264 2.640877 2.639233 2.637935 2.640765 2.639575 2.637941 2.638083 2.639472 2.640991 2.641963 2.641154 2.641467 2.640980 2.639627 2.638432 2.639453 2.639639 2.640937 2.639631 2.639279 2.637191 2.635844 2.635425 2.636405 2.634011 2.633688 2.632971 2.635302 2.633187 2.634219 2.632975 2.638249 2.636491 2.638787 2.637228 2.634837 2.631998 2.630710 2.632241 2.630955 2.629306 2.628725 2.629054 2.631327 2.630898 2.629306 2.632645 2.634188 2.634678 2.635872 2.636457 2.634428 2.640773 2.645766 2.646774 2.648095 2.648918 2.647953 2.644902 2.644025 2.641070 2.639674 2.639643 2.637381 2.636734 2.636813 2.634871 2.633976 2.636717 2.638012 2.637280 2.638688 2.636903 2.636398 2.636001 2.634156 2.636045 2.636535 2.635062 2.636373 2.634908 2.634739 2.633824 2.632652 2.630516 2.629341 2.628802 2.630301 2.628812 2.630404 2.631235 2.629955 2.632437 2.632100 2.630318 2.634969 2.636840 2.634852 2.632359 2.632064 2.631702 2.631113 2.631941 2.628973 2.633785 2.631996 2.630944 2.630150 2.628975 2.630593 2.628153 2.626046 2.625332 2.625484 2.623442 2.631099 2.629863 2.628803 2.630000 2.629895 2.627972 2.629635 2.628089 2.628676 2.627625 2.625414 2.625572 2.627150 2.626123 2.627269 2.627357 2.628083 2.626780 2.628635 2.628779 2.627605 2.626583 2.630246 2.629728 2.631974 2.633294 2.632841 2.630731 2.629905 2.629484 2.631453 2.629197 2.627987 2.625803 2.623283 2.624458 2.624024 2.626033 2.624816 2.626030 2.623067 2.626670 2.625990 2.631353 2.632310 2.629970 2.630103 2.629382 2.627890 2.626770 2.626219 2.627464 2.630124 2.629506 2.628122 2.628233 2.630762 2.630945 2.630333 2.628051 2.626317 2.625132 2.624338 2.626855 2.624394 2.622730 2.621947 2.621501 2.621754 2.622562 2.622728 2.619921 2.618611 2.619576 2.619397 2.618603 2.618261 2.619511 2.618102 2.618871 2.617537 2.617392 2.620122 2.621786 2.620634 2.619863 2.620655 2.623669 2.622584 2.624417 2.624348 2.623780 2.621930 2.620095 2.617931 2.616108 2.616042 2.614937 2.618134 2.617853 2.618815 2.619394 2.618765 2.616199 2.616165 2.615915 2.614158 2.612986 2.613377 2.614496 2.617506 2.617843 2.617808 2.615750 2.616925 2.619550 2.622148 2.623303 2.622902 2.622362 2.619695 2.618659 2.619041 2.617488 2.615798 2.615328 2.615882 2.615249 2.613688 2.614119 2.614996 2.613242 2.615239 2.614616 2.618396 2.616842 2.616217 2.615845 2.615567 2.613548 2.615017 2.614535 2.613765 2.614210 2.611771 2.613012 2.613646 2.613696 2.616942 2.618532 2.617325 2.616293 2.617360 2.620681 2.619523 2.617674 2.616303 2.615251 2.614669 2.613328 2.614535 2.614357 2.614509 2.614397 2.613378 2.612071 2.610754 2.612185 2.612003 2.611384 2.613178 2.613388 2.611361 2.609329 2.610363 2.610904 2.607875 2.605963 2.605654 2.604954 2.604435 2.604011 2.604092 2.604654 2.603041 2.601836 2.600955 2.600646 2.603203 2.604396 2.603599 2.603538 2.602207 2.603849 2.605473 2.607694 2.607223 2.607091 2.608845 2.608725 2.606175 2.607905 2.608916 2.607775 2.606441 2.608420 2.610110 2.607978 2.608494 2.609799 2.607789 2.605698 2.604542 2.604778 2.604208 2.603168 2.604840 2.605660 2.605670 2.606682 2.605889 2.605272 2.603786 2.605834 2.604037 2.601672 2.600220 2.599521 2.598089 2.597090 2.595166 2.593767 2.595123 2.598084 2.598778 2.599873 2.600778 2.599756 2.598167 2.599331 2.599877 2.597951 2.596067 2.595639 2.595965 2.597179 2.595260 2.593768 2.591420 2.589974 2.587750 2.586372 2.588213 2.588808 2.586189 2.587009 2.585829 2.584086 2.584097 2.584123 2.585006 2.587300 2.587127 2.587750 2.585522 2.584249 2.582990 2.581084 2.580253 2.578582 2.580305 2.579715 2.582804 2.582769 2.582948 2.582824 2.581618 2.580545 2.579717 2.578701 2.577192 2.576907 2.575266 2.574905 2.573366 2.573332 2.575231 2.573992 2.575954 2.577858 2.576860 2.579419 2.583983 2.582706 2.581121 2.579956 2.579897 2.579790 2.579328 2.579890 2.579619 2.581130 2.581781 2.583467 2.581985 2.583068 2.584061 2.583317 2.583672 2.585340 2.585717 2.583652 2.582946 2.580856 2.583898 2.587180 2.587969 2.587825 2.587448 2.586942 2.584603 2.584505 2.585287 2.583879 2.582671 2.579584 2.579102 2.578709 2.579983 2.581504 2.584127 2.582287 2.583970 2.582987 2.581072 2.582025 2.581891 2.581924 2.580871 2.580453 2.580542 2.579308 2.578665 2.577435 2.581297 2.580726 2.579210 2.579918 2.577616 2.581298 2.581513 2.582378 2.584140 2.586816 2.588451 2.587038 2.586336 2.584987 2.585313 2.583619 2.585576 2.588921 2.587771 2.587928 2.589595 2.591267 2.591682 2.590578 2.591206 2.591148 2.590842 2.592389 2.590708 2.590088 2.588700 2.588224 2.586805 2.584743 2.586381 2.587930 2.587936 2.587770 2.589046 2.589405 2.588701 2.586428 2.586101 2.585907 2.585899 2.588552 2.590077 2.590068 2.589864 2.593021 2.592821 2.593373 2.593131 2.596041 2.595343 2.599195 2.596441 2.596857 2.597232 2.597478 2.596586 2.599127 2.597144 2.595576 2.593974 2.595651 2.593709 2.591841 2.593254 2.593904 2.596050 2.595581 2.595917 2.595535 2.598375 2.599244 2.598236 2.599055 2.598495 2.597543 2.599763 2.598774 2.599276 2.598005 2.596381 2.596322 2.596094 2.593624 2.594858 2.593145 2.592520 2.593990 2.592598 2.591191 2.591895 2.592848 2.593184 2.593292 2.593639 2.592125 2.591046 2.590548 2.590852 2.589647 2.589506 2.590039 2.589072 2.589460 2.591565 2.591701 2.590365 2.589620 2.588490 2.586732 2.588553 2.586014 2.584367 2.582685 2.582281 2.582569 2.584048 2.583813 2.582866 2.582299 2.581846 2.581125 2.581508 2.579523 2.582067 2.581650 2.583138 2.582390 2.581299 2.580291 2.578616 2.577747 2.577616 2.576998 2.576720 2.575041 2.575673 2.573032 2.571479 2.569952 2.570185 2.569868 2.569695 2.570028 2.574814 2.574401 2.573723 2.572779 2.574799 2.577029 2.574781 2.573296 2.575163 2.574115 2.571995 2.576065 2.574889 2.577926 2.579483 2.580057 2.580996 2.586074 2.586836 2.586499 2.586315 2.588592 2.589410 2.589410 2.591711 2.592384 2.591238 2.591593 2.595789 2.596430 2.594112 2.596466 2.595773 2.594573 2.593052 2.594842 2.598758 2.598486 2.596299 2.597914 2.598850 2.599498 2.597320 2.598086 2.597061 2.595843 2.595176 2.594326 2.594654 2.592272 2.591186 2.588845 2.591439 2.589848 2.589160 2.590513 2.590788 2.590685 2.590219 2.592258 2.591659 2.591941 2.592885 2.593884 2.593012 2.593119 2.591435 2.590543 2.590241 2.591122 2.589831 2.593740 2.594782 2.594754 2.597955 2.598530 2.605295 2.605049 2.603181 2.601971 2.602219 2.601678 2.600936 2.599984 2.597946 2.598843 2.597412 2.599966 2.600722 2.601267 2.599252 2.604143 2.603306 2.604024 2.606733 2.604941 2.608497 2.609924 2.616334 2.615669 2.614584 2.614893 2.615590 2.614090 2.615303 2.617114 2.615913 2.615099 2.614985 2.613050 2.613762 2.614805 2.612308 2.613541 2.612527 2.612546 2.610472 2.608503 2.610483 2.611098 2.610813 2.614842 2.613483 2.613189 2.611200 2.609943 2.610900 2.611342 2.611620 2.613751 2.616474 2.615452 2.618577 2.616921 2.617747 2.617170 2.618039 2.619647 2.620042 2.622891 2.623738 2.621143 2.620520 2.619767 2.618537 2.617671 2.616534 2.619970 2.620072 2.619032 2.618004 2.617170 2.615344 2.617536 2.616526 2.616471 2.615996 2.618032 2.617322 2.619086 2.619518 2.620497 2.620420 2.620136 2.621919 2.622145 2.620376 2.618683 2.620994 2.621683 2.624413 2.624471 2.622907 2.621587 2.623856 2.626023 2.624186 2.623305 2.622634 2.623809 2.625239 2.627139 2.626876 2.628618 2.627220 2.627336 2.629264 2.630843 2.630946 2.632787 2.632903 2.631356 2.630710 2.630368 2.631806 2.636429 2.636306 2.636372 2.635301 2.638397 2.636149 2.638192 2.637996 2.639909 2.640138 2.641555 2.639984 2.640916 2.641282 2.640960 2.639567 2.640133 2.638730 2.639215 2.643520 2.642334 2.642668 2.641644 2.641294 2.642659 2.643024 2.645224 2.644543 2.645902 2.647421 2.651113 2.649074 2.649849 2.654781 2.655969 2.657996 2.656755 2.655942 2.654377 2.656588 2.657089 2.655383 2.654793 2.655463 2.655054 2.655272 2.654047 2.652518 2.653473 2.655500 2.655121 2.653701 2.656270 2.655792 2.654182 2.655253 2.656404 2.655370 2.655116 2.654253 2.654166 2.657659 2.659248 2.656582 2.655868 2.655384 2.655313 2.656430 2.657425 2.659267 2.657129 2.657375 2.657332 2.655165 2.653481 2.654223 2.654095 2.652206 2.651826 2.652582 2.656431 2.656418 2.655783 2.656742 2.657210 2.655697 2.657528 2.657295 2.659374 2.661547 2.660204 2.658712 2.656312 2.658683 2.660334 2.660758 2.664657 2.663533 2.662263 2.661247 2.659976 2.658610 2.658343 2.656454 2.654094 2.656383 2.661088 2.663094 2.665108 2.665376 2.663590 2.662676 2.663461 2.664807 2.664258 2.664719 2.663881 2.665010 2.666095 2.663112 2.664426 2.664307 2.662745 2.661121 2.659966 2.659777 2.660788 2.663226 2.662697 2.660734 2.658290 2.658011 2.656545 2.654943 2.655387 2.655351 2.653982 2.653979 2.655111 2.655383 2.654780 2.653677 2.652557 2.653346 2.657246 2.658203 2.656172 2.655496 2.655133 2.653921 2.654970 2.656634 2.655059 2.657566 2.655336 2.655705 2.653852 2.651699 2.653032 2.653201 2.653594 2.652649 2.653110 2.652128 2.650718 2.649622 2.650022 2.649033 2.648948 2.648650 2.648095 2.648974 2.650891 2.649863 2.650567 2.648236 2.648625 2.649110 2.650197 2.648379 2.645914 2.643315 2.643520 2.644462 2.642348 2.641898 2.639952 2.638602 2.637216 2.638492 2.639112 2.639487 2.640162 2.638646 2.636729 2.634890 2.635015 2.634792 2.634132 2.632538 2.631189 2.630393 2.629820 2.629250 2.629437 2.629223 2.629744 2.628568 2.627987 2.626368 2.626015 2.625867 2.627716 2.627931 2.629672 2.628542 2.627268 2.626384 2.625023 2.624577 2.622939 2.622488 2.621542 2.623910 2.624649 2.624947 2.626976 2.628297 2.627577 2.626622 2.628153 2.626306 2.623999 2.625089 2.625514 2.625060 2.625184 2.624165 2.624856 2.623266 2.625696 2.630381 2.629405 2.628660 2.629586 2.631664 2.631936 2.630238 2.629837 2.628898 2.629396 2.628367 2.629212 2.628813 2.632015 2.631056 2.628547 2.628415 2.627494 2.625994 2.624778 2.623088 2.624962 2.623389 2.625240 2.626120 2.625722 2.627460 2.627940 2.629109 2.629012 2.631505 2.632052 2.629716 2.630549 2.629962 2.627453 2.626465 2.625609 2.624804 2.624357 2.623629 2.624257 2.625274 2.624760 2.625536 2.623985 2.623557 2.623392 2.621425 2.621956 2.621352 2.620656 2.623713 2.622621 2.620922 2.621930 2.621048 2.621937 2.621552 2.621488 2.625440 2.624076 2.622607 2.622528 2.622334 2.622161 2.619929 2.619579 2.619241 2.617887 2.622360 2.620791 2.619527 2.621354 2.620322 2.620086 2.620669 2.620810 2.620087 2.618161 2.617043 2.618018 2.615153 2.614744 2.614238 2.612514 2.612752 2.614983 2.613512 2.613152 2.611529 2.610688 2.610689 2.610641 2.610073 2.612450 2.612040 2.612174 2.611284 2.611017 2.609570 2.608634 2.607186 2.605759 2.606666 2.606791 2.607700 2.608874 2.607685 2.608181 2.614052 2.613514 2.614946 2.613726 2.612799 2.612183 2.610702 2.613445 2.616206 2.615711 2.617177 2.615571 2.614624 2.614395 2.612579 2.611231 2.610234 2.610422 2.613767 2.615626 2.616797 2.616085 2.615147 2.614614 2.615875 2.613899 2.613192 2.613032 2.616332 2.617908 2.617746 2.617499 2.616000 2.617218 2.617286 2.617711 2.615494 2.617611 2.616308 2.618049 2.620317 2.620050 2.620831 2.618848 2.620259 2.619242 2.617134 2.617825 2.615626 2.618850 2.617484 2.618338 2.616790 2.614427 2.613833 2.615528 2.613499 2.612600 2.609868 2.608297 2.611307 2.609730 2.610958 2.609725 2.608754 2.609196 2.608957 2.609217 2.607813 2.611254 2.612260 2.614009 2.614547 2.613723 2.613839 2.615129 2.617177 2.618239 2.619190 2.618981 2.618339 2.617527 2.617706 2.616612 2.616806 2.616858 2.615701 2.615347 2.614826 2.615694 2.613157 2.614072 2.615278 2.615743 2.615830 2.614794 2.613068 2.613550 2.615526 2.616250 2.614725 2.613913 2.614636 2.613260 2.616487 2.616821 2.617349 2.616100 2.614902 2.613088 2.613697 2.614349 2.615891 2.617798 2.620370 2.619634 2.620182 2.618407 2.615875 2.619161 2.618461 2.617671 2.618010 2.618508 2.615968 2.614437 2.616499 2.618449 2.617979 2.618946 2.618958 2.622280 2.620130 2.622380 2.620574 2.621850 2.621090 2.619346 2.618766 2.618301 2.617677 2.619125 2.617434 2.616639 2.617496 2.616889 2.616506 2.614679 2.613136 2.611887 2.610533 2.613175 2.612096 2.610510 2.610356 2.610696 2.609586 2.610221 2.612731 2.610923 2.612513 2.613004 2.611568 2.612986 2.613798 2.614892 2.619544 2.620556 2.618849 2.618244 2.616968 2.617803 2.616532 2.616353 2.615274 2.613063 2.612399 2.611082 2.611759 2.610145 2.610564 2.608398 2.608094 2.608386 2.611787 2.610002 2.610098 2.612792 2.613349 2.612908 2.614780 2.612909 2.611907 2.617534 2.616815 2.615624 2.616492 2.616240 2.613317 2.612418 2.614212 2.615564 2.614312 2.614484 2.615506 2.613555 2.611542 2.611250 2.611356 2.611442 2.610272 2.611105 2.610662 2.610946 2.610015 2.607920 2.606660 2.606070 2.604644 2.602717 2.602903 2.605690 2.604779 2.602754 2.603420 2.602423 2.601659 2.601502 2.599666 2.599513 2.598022 2.597824 2.598934 2.598692 2.597997 2.599672 2.598895 2.598967 2.598982 2.599621 2.598768 2.597147 2.596141 2.596579 2.596066 2.597251 2.594409 2.594123 2.592665 2.595130 2.593551 2.594902 2.593395 2.593314 2.592899 2.593573 2.596344 2.595635 2.593720 2.594867 2.594765 2.592942 2.594663 2.593862 2.593695 2.594955 2.595825 2.595779 2.594068 2.591896 2.592543 2.592351 2.592918 2.591711 2.593293 2.593628 2.591829 2.589966 2.588236 2.585972 2.590218 2.589659 2.589147 2.591864 2.591402 2.590726 2.589349 2.590617 2.588646 2.590204 2.589809 2.593652 2.591766 2.598420 2.597927 2.595519 2.594999 2.592839 2.593676 2.593558 2.594711 2.593347 2.592488 2.592426 2.590636 2.591201 2.591364 2.593904 2.595667 2.595958 2.595656 2.595729 2.601134 2.601973 2.601140 2.603741 2.602816 2.602531 2.602001 2.601734 2.604852 2.603471 2.604546 2.603418 2.606906 2.606501 2.606621 2.607666 2.609192 2.611512 2.612440 2.613223 2.613849 2.613368 2.612423 2.611141 2.615029 2.613119 2.614648 2.611982 2.610055 2.608850 2.609489 2.610208 2.610542 2.609974 2.610489 2.611414 2.613697 2.613490 2.612523 2.614537 2.613872 2.613114 2.614763 2.613580 2.613189 2.610685 2.616238 2.619470 2.623784 2.624144 2.624443 2.625075 2.624733 2.623016 2.624863 2.626893 2.628182 2.628598 2.629971 2.629475 2.631298 2.629849 2.630261 2.631097 2.628476 2.627160 2.628280 2.626193 2.629043 2.628350 2.626666 2.628147 2.627629 2.628102 2.627867 2.627922 2.627912 2.629704 2.629017 2.631886 2.632819 2.636038 2.635118 2.633639 2.635904 2.637670 2.636446 2.638481 2.638396 2.635887 2.637644 2.638593 2.637262 2.635985 2.637130 2.638103 2.637696 2.637817 2.637888 2.637795 2.637429 2.635525 2.634488 2.633721 2.633309 2.634190 2.635803 2.634218 2.632814 2.630342 2.630327 2.629986 2.628698 2.626971 2.626600 2.626979 2.627774 2.627523 2.625340 2.624033 2.625571 2.624965 2.623474 2.622335 2.622632 2.627664 2.626641 2.626445 2.626291 2.629485 2.627917 2.626978 2.625916 2.627088 2.626609 2.625484 2.626179 2.627086 2.627898 2.629665 2.627933 2.627604 2.629972 2.627168 2.626145 2.625680 2.627486 2.630535 2.629920 2.629579 2.630466 2.627977 2.628382 2.627333 2.625622 2.624569 2.624391 2.623125 2.620635 2.619324 2.618341 2.618463 2.619797 2.618743 2.618782 2.618771 2.621815 2.619087 2.620034 2.619251 2.620337 2.622170 2.621008 2.623659 2.622606 2.625124 2.625707 2.626238 2.629025 2.627540 2.628629 2.628322 2.630793 2.629777 2.628896 2.629706 2.629238 2.628747 2.631534 2.630438 2.634770 2.632399 2.634004 2.632761 2.631759 2.632335 2.631101 2.629006 2.627142 2.626253 2.625366 2.626486 2.628210 2.627505 2.627541 2.626147 2.628141 2.627908 2.629220 2.628320 2.629382 2.626832 2.625701 2.624465 2.625556 2.624141 2.623794 2.623037 2.622836 2.622258 2.622186 2.623312 2.624197 2.625241 2.623677 2.623269 2.625700 2.625584 2.626324 2.624401 2.622974 2.622480 2.623531 2.623417 2.623072 2.623592 2.623048 2.621913 2.626191 2.623939 2.622595 2.624517 2.623605 2.623009 2.626128 2.627034 2.628573 2.628461 2.627000 2.625261 2.625684 2.624237 2.624803 2.624557 2.625084 2.623987 2.624561 2.624707 2.623350 2.622176 2.622204 2.620968 2.619759 2.622365 2.623041 2.622452 2.621862 2.620600 2.620373 2.619833 2.621426 2.619500 2.620774 2.617858 2.617328 2.615964 2.615186 2.613244 2.611780 2.610420 2.611361 2.612273 2.609988 2.614461 2.615545 2.615691 2.613994 2.614551 2.615084 2.613786 2.614250 2.617102 2.615431 2.614719 2.613901 2.614172 2.614330 2.613991 2.614128 2.611719 2.613062 2.611846 2.610788 2.609438 2.609265 2.609958 2.610305 2.610481 2.609792 2.608647 2.608216 2.605893 2.604822 2.607255 2.607638 2.605385 2.603516 2.601548 2.600665 2.601741 2.601178 2.600529 2.598689 2.597070 2.597017 2.596120 2.595680 2.595681 2.593246 2.591600 2.590411 2.589627 2.587688 2.589839 2.590761 2.591255 2.593543 2.592034 2.591303 2.590424 2.589821 2.589558 2.588782 2.586737 2.587062 2.585425 2.585062 2.585131 2.586089 2.586023 2.585709 2.584006 2.590253 2.590053 2.588483 2.589544 2.593399 2.592685 2.593691 2.592570 2.592090 2.590285 2.590210 2.590658 2.588496 2.587583 2.589283 2.589624 2.589748 2.589801 2.590498 2.590649 2.592151 2.594668 2.593744 2.594091 2.592255 2.593779 2.594710 2.596656 2.599285 2.599982 2.597921 2.597161 2.596228 2.594971 2.594044 2.593727 2.594619 2.596320 2.596255 2.597661 2.599103 2.600482 2.600407 2.600433 2.599652 2.597502 2.596760 2.594613 2.593881 2.591968 2.590763 2.589646 2.590143 2.586942 2.584705 2.585447 2.586059 2.585690 2.586584 2.584632 2.584094 2.582524 2.581392 2.580157 2.580346 2.579502 2.580345 2.579172 2.578304 2.580778 2.578469 2.576422 2.579549 2.579756 2.580771 2.581394 2.581345 2.583939 2.583599 2.582565 2.580791 2.581721 2.582610 2.580799 2.582725 2.583057 2.583507 2.582372 2.579591 2.579201 2.578651 2.577238 2.576288 2.575463 2.574354 2.572695 2.573016 2.571361 2.569872 2.569795 2.568735 2.569922 2.569683 2.569536 2.568596 2.568790 2.567812 2.569210 2.568999 2.571946 2.572410 2.572273 2.571697 2.569082 2.568456 2.571915 2.570909 2.573497 2.575421 2.573950 2.575383 2.575885 2.576383 2.575915 2.576997 2.580076 2.579251 2.579869 2.578872 2.579482 2.580551 2.578025 2.577052 2.576515 2.577647 2.577959 2.579041 2.579127 2.580936 2.580890 2.581749 2.581369 2.582559 2.580048 2.579096 2.581858 2.580746 2.581048 2.581716 2.581634 2.580909 2.578793 2.578518 2.576430 2.576960 2.576629 2.576835 2.576490 2.576430 2.575502 2.579342 2.577517 2.580569 2.579603 2.580502 2.579060 2.579893 2.580429 2.579264 2.577431 2.581053 2.581788 2.580802 2.580680 2.581469 2.583227 2.581911 2.583185 2.582105 2.582702 2.582979 2.581034 2.580405 2.579764 2.580083 2.580785 2.580249 2.580147 2.578959 2.578148 2.577144 2.577949 2.575840 2.575254 2.572212 2.574367 2.573371 2.573804 2.574113 2.577071 2.576359 2.574515 2.575146 2.574888 2.575309 2.573699 2.576260 2.579450 2.579968 2.579428 2.579020 2.580766 2.585228 2.585457 2.585819 2.585303 2.588221 2.588470 2.587415 2.585385 2.587122 2.587275 2.584968 2.585063 2.585754 2.584157 2.585575 2.587443 2.587843 2.588837 2.588569 2.589936 2.588145 2.589528 2.588060 2.592673 2.593611 2.594366 2.594508 2.595326 2.595973 2.597976 2.597398 2.597321 2.598546 2.599628 2.597354 2.596075 2.594825 2.594160 2.596297 2.597798 2.596660 2.594422 2.594152 2.593951 2.592485 2.590118 2.589149 2.588426 2.586235 2.587407 2.587523 2.586010 2.586942 2.587297 2.585499 2.584366 2.584750 2.583488 2.581460 2.581250 2.584455 2.586553 2.585947 2.587042 2.588739 2.586763 2.585141 2.585121 2.586988 2.585884 2.586542 2.586040 2.585088 2.588318 2.586333 2.585450 2.585794 2.585058 2.582354 2.579620 2.580200 2.577481 2.575889 2.577768 2.576182 2.575493 2.573893 2.574939 2.573724 2.572869 2.572276 2.570277 2.568371 2.566198 2.565139 2.564419 2.562836 2.564182 2.563580 2.562430 2.562294 2.561815 2.562537 2.561159 2.560651 2.558944 2.559963 2.557909 2.559888 2.558446 2.557165 2.555408 2.554777 2.554254 2.556299 2.558667 2.558606 2.558832 2.556981 2.555109 2.555173 2.561811 2.561636 2.560031 2.558410 2.558114 2.558937 2.559426 2.559898 2.561840 2.561056 2.564157 2.562688 2.560806 2.562754 2.561259 2.562490 2.565511 2.563156 2.564940 2.564900 2.564134 2.566329 2.565105 2.565470 2.564254 2.563154 2.564868 2.563119 2.563910 2.564633 2.563638 2.566226 2.567186 2.567210 2.568242 2.569749 2.570440 2.569611 2.568316 2.567553 2.570191 2.571832 2.573303 2.572362 2.573574 2.573041 2.573046 2.572266 2.574251 2.573634 2.570560 2.572172 2.572310 2.570138 2.568701 2.568436 2.566744 2.565478 2.566793 2.567624 2.568368 2.567287 2.568292 2.567594 2.568433 2.570009 2.569030 2.567734 2.567638 2.567170 2.566412 2.565788 2.566121 2.565686 2.565193 2.563453 2.565250 2.568503 2.568357 2.570558 2.571104 2.571775 2.572211 2.570779 2.571485 2.571921 2.570393 2.567740 2.565173 2.564452 2.563731 2.562202 2.562758 2.564406 2.562544 2.560468 2.560638 2.563981 2.565969 2.566147 2.566147 2.564996 2.565251 2.565272 2.565328 2.564279 2.563624 2.564283 2.564376 2.562861 2.563361 2.561216 2.562021 2.562057 2.562194 2.566547 2.565775 2.565133 2.564522 2.564638 2.563856 2.568628 2.569016 2.568191 2.568534 2.569885 2.569228 2.574492 2.576347 2.578774 2.578800 2.577210 2.579228 2.579788 2.580040 2.581260 2.581140 2.582591 2.584600 2.583687 2.584500 2.583316 2.587779 2.587694 2.586922 2.587925 2.588099 2.590103 2.588616 2.586832 2.585053 2.582552 2.583993 2.583454 2.583635 2.582672 2.582423 2.580457 2.580139 2.579690 2.577551 2.581001 2.583564 2.581883 2.580960 2.580323 2.578473 2.576863 2.574283 2.573252 2.572524 2.572430 2.570131 2.570011 2.571263 2.568474 2.567210 2.566340 2.567442 2.568737 2.567181 2.566012 2.565924 2.565664 2.566793 2.565285 2.563772 2.564235 2.562224 2.561056 2.562212 2.563090 2.561648 2.560688 2.560348 2.559551 2.561047 2.559665 2.558802 2.561834 2.562930 2.562857 2.560931 2.560816 2.561973 2.561395 2.559201 2.560296 2.558920 2.557705 2.557577 2.557855 2.556825 2.556814 2.554651 2.552491 2.550796 2.550169 2.552602 2.550692 2.551226 2.549752 2.549234 2.549607 2.552671 2.551813 2.550171 2.548686 2.547953 2.547562 2.549063 2.547903 2.546327 2.546165 2.546890 2.546088 2.547241 2.546378 2.548201 2.547120 2.546009 2.546909 2.546312 2.545753 2.546303 2.546043 2.545151 2.545147 2.545232 2.542862 2.544237 2.541485 2.544514 2.542508 2.541854 2.542972 2.543250 2.542221 2.541455 2.538460 2.537940 2.541870 2.544774 2.544537 2.547569 2.548198 2.546745 2.544199 2.542718 2.541671 2.542650 2.541671 2.540844 2.541357 2.542676 2.543374 2.541795 2.541060 2.539680 2.539023 2.542760 2.544082 2.542565 2.541093 2.541136 2.538808 2.538837 2.540000 2.539163 2.538241 2.539071 2.537789 2.535658 2.535222 2.535945 2.536241 2.539408 2.538772 2.537752 2.537803 2.536315 2.534213 2.538309 2.542204 2.543604 2.545367 2.543728 2.541649 2.541986 2.543510 2.542870 2.542193 2.542380 2.542626 2.541054 2.541772 2.542023 2.541836 2.542394 2.541551 2.542393 2.546138 2.547420 2.547931 2.545632 2.544411 2.545020 2.545305 2.544403 2.543182 2.544119 2.543778 2.544150 2.547844 2.545543 2.545542 2.545022 2.542964 2.540523 2.539814 2.542050 2.542255 2.541884 2.539966 2.538695 2.537919 2.536903 2.538167 2.538678 2.540081 2.538500 2.541096 2.545337 2.546498 2.543871 2.543504 2.543811 2.543503 2.543173 2.542197 2.540744 2.539902 2.540076 2.540428 2.539197 2.540046 2.540157 2.537732 2.537884 2.536191 2.538467 2.536797 2.535829 2.535230 2.536900 2.536202 2.536850 2.536331 2.534416 2.535972 2.538109 2.537461 2.539057 2.536886 2.537063 2.536039 2.539446 2.538846 2.541729 2.540338 2.539511 2.538860 2.537023 2.536942 2.540796 2.539198 2.538669 2.539250 2.537764 2.536624 2.537143 2.535794 2.537105 2.537274 2.535899 2.537343 2.537084 2.536670 2.534927 2.535039 2.534380 2.533410 2.533669 2.531481 2.529282 2.528641 2.531054 2.530943 2.529120 2.529103 2.527695 2.525833 2.527049 2.527326 2.528093 2.526621 2.524370 2.523727 2.524168 2.524908 2.523890 2.522514 2.522111 2.520522 2.519437 2.517506 2.518003 2.518039 2.516289 2.514728 2.514774 2.514871 2.513106 2.513116 2.511696 2.509781 2.508875 2.508980 2.507826 2.509677 2.509443 2.507158 2.507085 2.505545 2.504160 2.504028 2.503729 2.504832 2.504789 2.503711 2.504841 2.505423 2.506621 2.507095 2.507903 2.508273 2.506745 2.509044 2.509410 2.509882 2.508756 2.506956 2.505066 2.508004 2.506192 2.504650 2.504293 2.504592 2.506429 2.504933 2.506003 2.509108 2.508522 2.510697 2.509065 2.507397 2.507243 2.506672 2.505600 2.506387 2.503871 2.505026 2.505608 2.504994 2.502912 2.504092 2.503696 2.507269 2.505149 2.505090 2.503156 2.507356 2.506096 2.506563 2.505267 2.503979 2.503508 2.503676 2.503339 2.501814 2.500949 2.501679 2.501777 2.500265 2.502118 2.500204 2.500234 2.498324 2.497676 2.498227 2.499501 2.499501 2.499618 2.501100 2.498521 2.497125 2.497536 2.498144 2.498765 2.499219 2.499551 2.498823 2.497315 2.494290 2.494141 2.492342 2.496147 2.495649 2.494400 2.494635 2.493683 2.493586 2.495304 2.496692 2.496342 2.497807 2.495304 2.494513 2.494529 2.493948 2.494423 2.496188 2.494574 2.496009 2.493529 2.495139 2.493115 2.492308 2.490713 2.490301 2.490372 2.491190 2.490937 2.491457 2.494804 2.495362 2.495003 2.495379 2.495942 2.497638 2.496296 2.497090 2.498422 2.498499 2.496784 2.494574 2.496742 2.496916 2.496618 2.496209 2.495307 2.497104 2.498480 2.506206 2.505904 2.506267 2.510218 2.509720 2.510211 2.510389 2.509801 2.508855 2.509966 2.509841 2.511655 2.511621 2.510841 2.509602 2.509952 2.510639 2.511888 2.513476 2.512036 2.513096 2.511779 2.512420 2.514167 2.516732 2.517393 2.516489 2.516569 2.516638 2.515474 2.518545 2.518023 2.517872 2.516894 2.514504 2.514157 2.515066 2.515944 2.515348 2.514995 2.513471 2.512100 2.510048 2.510998 2.511231 2.510058 2.509314 2.508878 2.508869 2.506854 2.505528 2.503708 2.503414 2.502684 2.503753 2.506513 2.505928 2.504321 2.502084 2.502914 2.505323 2.506796 2.505129 2.508146 2.508482 2.507750 2.507542 2.508136 2.508982 2.513593 2.514329 2.513928 2.513669 2.513440 2.514046 2.515672 2.514832 2.512023 2.513019 2.512502 2.510321 2.509005 2.507977 2.508849 2.508794 2.507042 2.507552 2.506484 2.505662 2.504865 2.503734 2.502831 2.502589 2.500536 2.501276 2.500609 2.501293 2.501279 2.502766 2.501805 2.499992 2.497748 2.495725 2.494291 2.494387 2.494238 2.496342 2.498195 2.498145 2.496915 2.495546 2.494152 2.492522 2.492368 2.493283 2.491697 2.490671 2.489582 2.488387 2.489044 2.488554 2.490066 2.489621 2.488035 2.486069 2.490811 2.489041 2.489576 2.487644 2.486285 2.485708 2.488945 2.487414 2.485855 2.486479 2.486980 2.485625 2.484603 2.484350 2.482291 2.482051 2.483337 2.482692 2.481769 2.480364 2.479148 2.480483 2.480805 2.481741 2.485184 2.486516 2.486724 2.484549 2.481980 2.481591 2.480346 2.479284 2.479937 2.480899 2.480774 2.480662 2.479756 2.478664 2.477419 2.475903 2.475653 2.475629 2.475881 2.475696 2.474669 2.473260 2.472176 2.470669 2.470199 2.468423 2.466374 2.466764 2.464290 2.463407 2.461553 2.459629 2.461348 2.459516 2.459472 2.458028 2.460208 2.459949 2.460012 2.459638 2.459772 2.458887 2.456554 2.455651 2.459412 2.459396 2.458230 2.456139 2.454062 2.455337 2.457806 2.459131 2.458789 2.456684 2.455910 2.455119 2.453894 2.452708 2.450669 2.448674 2.448390 2.448529 2.447267 2.446946 2.445179 2.446097 2.448179 2.450593 2.449375 2.448601 2.447678 2.447808 2.445727 2.447165 2.448274 2.448555 2.451168 2.449942 2.448861 2.448557 2.446594 2.445223 2.444184 2.443622 2.441921 2.441745 2.441783 2.441112 2.439984 2.443705 2.446400 2.447269 2.445336 2.444276 2.443247 2.441968 2.443177 2.441201 2.440345 2.441981 2.441901 2.443951 2.442187 2.442787 2.442315 2.441873 2.440225 2.442375 2.441955 2.441119 2.439925 2.443665 2.447243 2.445644 2.446653 2.445164 2.446415 2.446912 2.444808 2.448548 2.451561 2.449331 2.449372 2.454469 2.452959 2.451298 2.451305 2.449424 2.449071 2.451284 2.450776 2.450343 2.450519 2.448849 2.448225 2.447560 2.449579 2.448057 2.446970 2.449673 2.449262 2.449113 2.449282 2.447090 2.447431 2.449633 2.447251 2.448667 2.451218 2.450892 2.450302 2.448166 2.449115 2.447870 2.446846 2.446538 2.445610 2.448951 2.447748 2.447794 2.446031 2.444068 2.444853 2.445669 2.444925 2.447183 2.446451 2.446469 2.444180 2.443851 2.444179 2.446194 2.444992 2.443701 2.442872 2.443278 2.443616 2.442326 2.440395 2.438933 2.437992 2.438136 2.441624 2.441807 2.439997 2.438767 2.439878 2.437735 2.438184 2.437758 2.437626 2.436854 2.436414 2.435673 2.434243 2.434113 2.433148 2.432187 2.430330 2.432921 2.434894 2.433322 2.431256 2.432249 2.431371 2.430288 2.430854 2.432044 2.432708 2.432375 2.433876 2.440465 2.440253 2.439513 2.438769 2.440775 2.440368 2.439085 2.437022 2.437143 2.434910 2.436440 2.436280 2.435074 2.434117 2.432114 2.430444 2.429523 2.429599 2.430534 2.429674 2.428659 2.428452 2.428015 2.427596 2.426768 2.425058 2.427145 2.426034 2.428029 2.427696 2.428957 2.427869 2.426851 2.426798 2.426019 2.427258 2.427351 2.425503 2.424852 2.423458 2.423428 2.422933 2.422754 2.422002 2.421461 2.421763 2.423146 2.421669 2.423253 2.422416 2.421696 2.420670 2.421465 2.421965 2.423377 2.421216 2.421174 2.421839 2.421002 2.421018 2.420301 2.419334 2.420722 2.421981 2.422351 2.419987 2.422655 2.422771 2.421387 2.420434 2.420621 2.420753 2.423830 2.423955 2.424094 2.422660 2.423109 2.423240 2.423450 2.423131 2.421027 2.419785 2.421633 2.421377 2.425841 2.424439 2.423019 2.423153 2.422497 2.424593 2.425767 2.426589 2.425605 2.427471 2.425699 2.423925 2.425785 2.425028 2.426770 2.426291 2.426782 2.429475 2.428608 2.426726 2.427237 2.425496 2.425498 2.426120 2.424366 2.425603 2.424334 2.424968 2.425746 2.429218 2.429360 2.430099 2.429692 2.429984 2.429943 2.429720 2.429412 2.427453 2.425791 2.424562 2.425386 2.423512 2.425049 2.422723 2.421189 2.421473 2.420401 2.421288 2.422177 2.422566 2.421824 2.422102 2.422307 2.423464 2.426547 2.426206 2.423837 2.423027 2.421642 2.419955 2.422359 2.422618 2.428790 2.429572 2.431744 2.430276 2.434131 2.434339 2.433560 2.434924 2.434875 2.434038 2.433301 2.432707 2.434001 2.433598 2.436402 2.436552 2.436625 2.435289 2.439450 2.439527 2.439362 2.438442 2.436861 2.436224 2.435729 2.434310 2.432601 2.433117 2.435682 2.434812 2.434907 2.436754 2.437392 2.437721 2.440277 2.441652 2.444689 2.444026 2.444577 2.445653 2.446808 2.447251 2.449215 2.451175 2.452070 2.452436 2.453885 2.458648 2.458510 2.456696 2.454999 2.457888 2.456433 2.457133 2.461222 2.460855 2.461063 2.460521 2.460425 2.460190 2.459879 2.459082 2.461422 2.461080 2.459981 2.462349 2.461146 2.463102 2.461645 2.461184 2.463440 2.463078 2.462236 2.460970 2.463045 2.461836 2.461205 2.461040 2.461179 2.460595 2.462971 2.463093 2.463061 2.465207 2.463782 2.462733 2.464293 2.463906 2.466359 2.468388 2.467624 2.471289 2.471695 2.471384 2.469852 2.468529 2.468198 2.468469 2.471127 2.470374 2.471118 2.469304 2.468504 2.467714 2.467142 2.466851 2.467968 2.466845 2.466226 2.465509 2.464436 2.463492 2.462218 2.463915 2.462121 2.460437 2.460490 2.459259 2.458671 2.457309 2.455028 2.453962 2.452028 2.450487 2.450268 2.450694 2.448736 2.448774 2.447583 2.447397 2.445906 2.444307 2.444678 2.445654 2.444652 2.445306 2.444937 2.443423 2.443062 2.443168 2.443181 2.442444 2.440883 2.442074 2.441897 2.441430 2.443079 2.444842 2.446407 2.444227 2.442434 2.442164 2.441729 2.442498 2.440187 2.441590 2.440741 2.440541 2.439481 2.438636 2.439811 2.440682 2.440436 2.440625 2.438742 2.437730 2.437789 2.437804 2.436668 2.434739 2.432238 2.430256 2.431681 2.430315 2.431457 2.431066 2.430297 2.430606 2.430330 2.433735 2.434366 2.432681 2.432057 2.430972 2.431028 2.429079 2.427201 2.426363 2.425195 2.423816 2.424168 2.422495 2.423626 2.423024 2.421806 2.422179 2.421162 2.420924 2.422122 2.419772 2.423308 2.421761 2.424130 2.424950 2.423196 2.423228 2.423361 2.424116 2.422962 2.424867 2.426217 2.427924 2.429318 2.429759 2.429570 2.427603 2.430703 2.428975 2.429963 2.429936 2.428405 2.427701 2.429537 2.429748 2.429257 2.428804 2.427256 2.428573 2.429040 2.429889 2.428927 2.426512 2.429797 2.429708 2.432620 2.430846 2.432453 2.431642 2.432785 2.432238 2.433401 2.430874 2.434719 2.437141 2.438949 2.439278 2.438582 2.436899 2.437497 2.437073 2.437718 2.436896 2.438407 2.437933 2.437159 2.438492 2.441640 2.442586 2.443510 2.442498 2.441458 2.440944 2.440561 2.438668 2.438340 2.438550 2.437283 2.437099 2.438807 2.442490 2.441241 2.441865 2.441797 2.441478 2.439887 2.437898 2.438159 2.438543 2.437400 2.436622 2.435317 2.437424 2.438864 2.439187 2.438365 2.437686 2.436760 2.436270 2.437083 2.436428 2.436729 2.436557 2.438809 2.438167 2.438437 2.437604 2.439539 2.439820 2.441210 2.440507 2.439084 2.441246 2.440673 2.443681 2.443698 2.443799 2.444351 2.443241 2.443263 2.445531 2.448585 2.448740 2.448181 2.447539 2.447857 2.449999 2.449986 2.453112 2.452191 2.452170 2.453716 2.455653 2.456016 2.454487 2.454308 2.453177 2.453797 2.455405 2.454761 2.454606 2.454289 2.454811 2.456236 2.458167 2.457240 2.458516 2.456426 2.455014 2.455441 2.454126 2.453947 2.454260 2.454207 2.454054 2.456315 2.456140 2.457974 2.458237 2.456050 2.454181 2.452935 2.453323 2.453836 2.454828 2.455297 2.454888 2.455679 2.456123 2.457529 2.458049 2.457457 2.457341 2.458168 2.457347 2.457947 2.457429 2.459547 2.458063 2.456835 2.457347 2.455850 2.454563 2.455272 2.454591 2.452789 2.452814 2.451214 2.451171 2.451191 2.454089 2.453595 2.454880 2.454125 2.456266 2.457035 2.456339 2.456503 2.454488 2.453518 2.453937 2.454103 2.451916 2.454379 2.454552 2.454087 2.452576 2.452488 2.452394 2.452132 2.453573 2.456351 2.455748 2.455652 2.455350 2.461774 2.460781 2.460133 2.458183 2.461755 2.462210 2.461193 2.459422 2.457734 2.457769 2.455372 2.453124 2.452630 2.455270 2.454632 2.452562 2.451431 2.451310 2.451609 2.450745 2.451433 2.450218 2.448668 2.448815 2.449590 2.449822 2.452079 2.451448 2.453929 2.452549 2.450811 2.448266 2.448079 2.447014 2.445479 2.445668 2.443658 2.444620 2.445796 2.444770 2.442442 2.443955 2.442576 2.443262 2.445172 2.445263 2.448252 2.447160 2.448249 2.447930 2.449597 2.449135 2.449117 2.451675 2.449494 2.449666 2.451248 2.452385 2.451776 2.449779 2.449912 2.448022 2.447517 2.445979 2.445140 2.444596 2.445280 2.447433 2.445765 2.444217 2.442856 2.440243 2.438180 2.439704 2.440533 2.441768 2.440960 2.439843 2.438729 2.438476 2.439277 2.437796 2.438646 2.436840 2.435963 2.436813 2.437409 2.436210 2.437690 2.435828 2.435535 2.433426 2.438836 2.440642 2.438785 2.437935 2.435995 2.437414 2.438147 2.439747 2.439087 2.438755 2.437959 2.438771 2.438306 2.437286 2.436866 2.436197 2.438192 2.440769 2.441328 2.440683 2.439262 2.440137 2.442993 2.444889 2.445909 2.444986 2.445331 2.449839 2.452531 2.453154 2.452053 
