-0.000000 -0.000000 -0.000000 -0.000000 -0.000000 -0.000000 -0.000000 -0.000000 -0.000000 -0.000000 -0.000000 -0.000000 -0.000000 -0.000000 -0.000000 -0.000000 -0.000000 -0.000000 -0.000000 -0.000000 -0.000000 -0.000000 -0.000000 -0.000000 -0.000000 -0.000000 -0.000000 -0.000000 -0.000000 -0.000000 -0.000000 0.000000 -0.000000 -0.000000 -0.000000 -0.000000 -0.000000 -0.000000 -0.000000 -0.000000 0.000000 -0.000000 -0.000000 0.000000 0.000000 -0.000000 -0.000000 -0.000000 -0.000000 -0.000000 -0.000000 -0.000000 0.000000 -0.000000 -0.000000 0.000000 0.000000 -0.000000 -0.000000 -0.000000 0.000000 -0.000000 -0.000000 -0.000000 -0.000000 -0.000000 -0.000000 -0.000000 -0.000000 -0.000000 0.000000 -0.000000 -0.000000 -0.000000 -0.000000 -0.000000 0.000000 0.000000 -0.000000 -0.000000 -0.000000 0.000000 -0.000000 -0.000000 0.000000 -0.000000 -0.000000 -0.000000 0.000000 -0.000000 0.000000 -0.000000 -0.000000 -0.000000 -0.000000 -0.000000 -0.000000 -0.000000 -0.000000 -0.000000 -0.000000 -0.000000 -0.000000 -0.000000 0.000000 -0.000000 -0.000000 -0.000000 -0.000000 -0.000002 -0.000011 -0.000034 -0.000088 -0.000195 -0.000388 -0.000705 -0.001197 -0.001919 -0.002936 -0.004317 -0.006136 -0.008470 -0.011398 -0.014998 -0.019347 -0.024518 -0.030580 -0.037598 -0.045626 -0.054717 -0.064911 -0.076242 -0.088735 -0.102406 -0.117263 -0.133303 -0.150518 -0.168889 -0.188390 -0.208991 -0.230651 -0.253326 -0.276965 -0.301513 -0.326911 -0.353098 -0.380007 -0.407572 -0.435724 -0.464392 -0.493508 -0.523001 -0.552802 -0.582841 -0.613051 -0.643368 -0.673728 -0.704068 -0.734331 -0.764459 -0.794401 -0.824104 -0.853522 -0.882611 -0.911328 -0.939637 -0.967501 -0.994889 -1.021771 -1.048122 -1.073913 -1.099116 -1.123701 -1.147630 -1.170861 -1.193346 -1.215030 -1.235851 -1.255743 -1.274635 -1.292454 -1.309125 -1.324571 -1.338719 -1.351496 -1.362835 -1.372674 -1.380957 -1.387639 -1.392689 -1.396089 -1.397837 -1.397950 -1.396462 -1.393425 -1.388907 -1.382994 -1.375784 -1.367387 -1.357926 -1.347528 -1.336330 -1.324469 -1.312087 -1.299322 -1.286314 -1.273195 -1.260095 -1.247136 -1.234433 -1.222091 -1.210210 -1.198876 -1.188168 -1.178154 -1.168893 -1.160434 -1.152816 -1.146068 -1.140212 -1.135260 -1.131219 -1.128084 -1.125849 -1.124497 -1.124009 -1.124358 -1.125517 -1.127450 -1.130123 -1.133497 -1.137530 -1.142181 -1.147405 -1.153159 -1.159398 -1.166078 -1.173155 -1.180585 -1.188327 -1.196338 -1.204579 -1.213011 -1.221598 -1.230304 -1.239096 -1.247942 -1.256811 -1.265673 -1.274493 -1.283233 -1.291851 -1.300297 -1.308514 -1.316438 -1.324000 -1.331125 -1.337732 -1.343737 -1.349057 -1.353605 -1.357297 -1.360051 -1.361791 -1.362443 -1.361946 -1.360249 -1.357314 -1.353119 -1.347661 -1.340954 -1.333029 -1.323935 -1.313738 -1.302519 -1.290370 -1.277397 -1.263713 -1.249440 -1.234702 -1.219629 -1.204349 -1.188989 -1.173676 -1.158530 -1.143666 -1.129192 -1.115209 -1.101811 -1.089080 -1.077091 -1.065909 -1.055589 -1.046178 -1.037712 -1.030219 -1.023718 -1.018220 -1.013729 -1.010241 -1.007744 -1.006224 -1.005656 -1.006015 -1.007269 -1.009383 -1.012319 -1.016037 -1.020494 -1.025644 -1.031443 -1.037844 -1.044800 -1.052264 -1.060190 -1.068532 -1.077245 -1.086285 -1.095609 -1.105176 -1.114947 -1.124882 -1.134947 -1.145107 -1.155329 -1.165578 -1.175820 -1.186016 -1.196121 -1.206085 -1.215849 -1.225351 -1.234518 -1.243275 -1.251540 -1.259228 -1.266253 -1.272527 -1.277964 -1.282479 -1.285993 -1.288430 -1.289722 -1.289811 -1.288653 -1.286217 -1.282488 -1.277471 -1.271188 -1.263677 -1.254997 -1.245220 -1.234433 -1.222736 -1.210240 -1.197064 -1.183332 -1.169173 -1.154719 -1.140101 -1.125447 -1.110883 -1.096530 -1.082503 -1.068909 -1.055847 -1.043408 -1.031674 -1.020716 -1.010596 -1.001367 -0.993072 -0.985745 -0.979411 -0.974085 -0.969774 -0.966481 -0.964196 -0.962908 -0.962596 -0.963236 -0.964798 -0.967248 -0.970550 -0.974663 -0.979545 -0.985151 -0.991434 -0.998349 -1.005846 -1.013878 -1.022398 -1.031358 -1.040711 -1.050411 -1.060415 -1.070680 -1.081163 -1.091825 -1.102627 -1.113535 -1.124513 -1.135529 -1.146547 -1.157533 -1.168445 -1.179239 -1.189863 -1.200257 -1.210356 -1.220089 -1.229377 -1.238140 -1.246291 -1.253745 -1.260413 -1.266211 -1.271055 -1.274866 -1.277570 -1.279099 -1.279394 -1.278401 -1.276077 -1.272387 -1.267307 -1.260818 -1.252916 -1.243602 -1.232887 -1.220791 -1.207342 -1.192574 -1.176530 -1.159258 -1.140812 -1.121250 -1.100636 -1.079035 -1.056518 -1.033156 -1.009021 -0.984190 -0.958735 -0.932732 -0.906256 -0.879379 -0.852173 -0.824708 -0.797053 -0.769273 -0.741432 -0.713591 -0.685806 -0.658133 -0.630623 -0.603326 -0.576287 -0.549547 -0.523144 -0.497114 -0.471490 -0.446301 -0.421573 -0.397330 -0.373593 -0.350380 -0.327706 -0.305584 -0.284025 -0.263037 -0.242628 -0.222801 -0.203560 -0.184906 -0.166838 -0.149354 -0.132452 -0.116126 -0.100373 -0.085187 -0.070563 -0.056498 -0.042988 -0.030032 -0.017633 -0.005791 0.005489 0.016200 0.026336 0.035889 0.044849 0.053209 0.060958 0.068088 0.074593 0.080464 0.085696 0.090286 0.094233 0.097534 0.100194 0.102215 0.103604 0.104369 0.104520 0.104070 0.103032 0.101422 0.099258 0.096558 0.093344 0.089636 0.085458 0.080832 0.075782 0.070334 0.064513 0.058344 0.051851 0.045059 0.037994 0.030680 0.023141 0.015402 0.007485 -0.000586 -0.008791 -0.017108 -0.025516 -0.033997 -0.042531 -0.051102 -0.059693 -0.068287 -0.076872 -0.085432 -0.093953 -0.102424 -0.110833 -0.119169 -0.127420 -0.135573 -0.143615 -0.151531 -0.159305 -0.166918 -0.174351 -0.181582 -0.188591 -0.195354 -0.201848 -0.208050 -0.213939 -0.219492 -0.224689 -0.229510 -0.233939 -0.237959 -0.241560 -0.244733 -0.247474 -0.249781 -0.251662 -0.253125 -0.254183 -0.254857 -0.255168 -0.255143 -0.254811 -0.254203 -0.253354 -0.252297 -0.251070 -0.249708 -0.248246 -0.246721 -0.245165 -0.243611 -0.242091 -0.240632 -0.239261 -0.238003 -0.236878 -0.235905 -0.235101 -0.234480 -0.234053 -0.233828 -0.233813 -0.234011 -0.234424 -0.235053 -0.235896 -0.236948 -0.238205 -0.239661 -0.241309 -0.243141 -0.245147 -0.247317 -0.249640 -0.252107 -0.254704 -0.257421 -0.260246 -0.263167 -0.266172 -0.269250 -0.272390 -0.275581 -0.278812 -0.282074 -0.285357 -0.288650 -0.291945 -0.295233 -0.298507 -0.301759 -0.304981 -0.308164 -0.311299 -0.314375 -0.317378 -0.320293 -0.323106 -0.325797 -0.328347 -0.330736 -0.332942 -0.334943 -0.336718 -0.338246 -0.339506 -0.340478 -0.341145 -0.341491 -0.341504 -0.341175 -0.340500 -0.339477 -0.338113 -0.336415 -0.334399 -0.332081 -0.329483 -0.326631 -0.323553 -0.320278 -0.316840 -0.313272 -0.309607 -0.305879 -0.302123 -0.298372 -0.294657 -0.291009 -0.287457 -0.284026 -0.280742 -0.277626 -0.274698 -0.271975 -0.269472 -0.267201 -0.265171 -0.263390 -0.261864 -0.260594 -0.259582 -0.258828 -0.258327 -0.258075 -0.258067 -0.258297 -0.258756 -0.259435 -0.260325 -0.261415 -0.262693 -0.264149 -0.265770 -0.267544 -0.269459 -0.271504 -0.273665 -0.275931 -0.278291 -0.280732 -0.283246 -0.285820 -0.288445 -0.291109 -0.293804 -0.296520 -0.299250 -0.301985 -0.304715 -0.307430 -0.310118 -0.312768 -0.315363 -0.317888 -0.320323 -0.322649 -0.324845 -0.326890 -0.328759 -0.330432 -0.331884 -0.333096 -0.334045 -0.334712 -0.335080 -0.335134 -0.334862 -0.334256 -0.333313 -0.332033 -0.330423 -0.328493 -0.326257 -0.323735 -0.320949 -0.317926 -0.314694 -0.311284 -0.307729 -0.304062 -0.300317 -0.296528 -0.292730 -0.288954 -0.285233 -0.281595 -0.278070 -0.274682 -0.271455 -0.268411 -0.265568 -0.262943 -0.260549 -0.258398 -0.256497 -0.254854 -0.253473 -0.252355 -0.251502 -0.250910 -0.250577 -0.250496 -0.250662 -0.251067 -0.251704 -0.252561 -0.253630 -0.254898 -0.256354 -0.257986 -0.259782 -0.261729 -0.263815 -0.266028 -0.268356 -0.270785 -0.273305 -0.275903 -0.278569 -0.281292 -0.284062 -0.286867 -0.289701 -0.292552 -0.295413 -0.298274 -0.301128 -0.303962 -0.306765 -0.309524 -0.312223 -0.314846 -0.317373 -0.319784 -0.322059 -0.324175 -0.326110 -0.327841 -0.329345 -0.330601 -0.331589 -0.332288 -0.332683 -0.332756 -0.332495 -0.331888 -0.330926 -0.329602 -0.327912 -0.325855 -0.323430 -0.320642 -0.317494 -0.313995 -0.310153 -0.305979 -0.301486 -0.296688 -0.291600 -0.286238 -0.280620 -0.274763 -0.268687 -0.262410 -0.255952 -0.249333 -0.242570 -0.235685 -0.228695 -0.221620 -0.214478 -0.207286 -0.200062 -0.192822 -0.185582 -0.178356 -0.171160 -0.164007 -0.156909 -0.149877 -0.142924 -0.136058 -0.129289 -0.122626 -0.116076 -0.109646 -0.103342 -0.097169 -0.091133 -0.085237 -0.079484 -0.073878 -0.068421 -0.063114 -0.057958 -0.052954 -0.048104 -0.043405 -0.038859 -0.034464 -0.030218 -0.026122 -0.022173 -0.018371 -0.014716 -0.011209 -0.007853 -0.004652 -0.001611 0.001263 0.003962 0.006474 0.008792 0.010902 0.012793 0.014454 0.015873 0.017039 0.017941 0.018570 0.018916 0.018973 0.018735 0.018198 0.017357 0.016213 0.014765 0.013015 0.010967 0.008625 0.005996 0.003087 -0.000092 -0.003532 -0.007222 -0.011149 -0.015302 -0.019666 -0.024227 -0.028972 -0.033885 -0.038953 -0.044159 -0.049490 -0.054930 -0.060465 -0.066080 -0.071761 -0.077495 -0.083268 -0.089067 -0.094881 -0.100696 -0.106503 -0.112290 -0.118048 -0.123767 -0.129439 -0.135055 -0.140607 -0.146089 -0.151493 -0.156815 -0.162048 -0.167184 -0.172218 -0.177140 -0.181941 -0.186610 -0.191137 -0.195507 -0.199707 -0.203724 -0.207541 -0.211144 -0.214518 -0.217649 -0.220522 -0.223125 -0.225446 -0.227474 -0.229202 -0.230626 -0.231743 -0.232555 -0.233067 -0.233286 -0.233225 -0.232897 -0.232320 -0.231513 -0.230497 -0.229297 -0.227935 -0.226436 -0.224828 -0.223134 -0.221379 -0.219590 -0.217788 -0.215997 -0.214238 -0.212531 -0.210893 -0.209342 -0.207891 -0.206553 -0.205340 -0.204261 -0.203324 -0.202533 -0.201894 -0.201409 -0.201080 -0.200906 -0.200885 -0.201016 -0.201295 -0.201718 -0.202279 -0.202973 -0.203793 -0.204733 -0.205785 -0.206942 -0.208196 -0.209539 -0.210963 -0.212459 -0.214022 -0.215641 -0.217310 -0.219022 -0.220768 -0.222544 -0.224340 -0.226153 -0.227974 -0.229799 -0.231622 -0.233437 -0.235238 -0.237019 -0.238772 -0.240487 -0.242154 -0.243761 -0.245295 -0.246743 -0.248090 -0.249319 -0.250416 -0.251364 -0.252148 -0.252753 -0.253163 -0.253366 -0.253350 -0.253106 -0.252624 -0.251902 -0.250938 -0.249734 -0.248295 -0.246630 -0.244751 -0.242673 -0.240412 -0.237989 -0.235425 -0.232742 -0.229964 -0.227117 -0.224223 -0.221308 -0.218396 -0.215510 -0.212672 -0.209903 -0.207223 -0.204650 -0.202201 -0.199889 -0.197729 -0.195730 -0.193902 -0.192253 -0.190789 -0.189513 -0.188428 -0.187535 -0.186833 -0.186322 -0.185998 -0.185856 -0.185892 -0.186101 -0.186476 -0.187010 -0.187695 -0.188523 -0.189486 -0.190575 -0.191781 -0.193096 -0.194509 -0.196014 -0.197600 -0.199259 -0.200983 -0.202763 -0.204592 -0.206462 -0.208365 -0.210295 -0.212244 -0.214207 -0.216177 -0.218148 -0.220112 -0.222062 -0.223989 -0.225882 -0.227729 -0.229519 -0.231237 -0.232867 -0.234395 -0.235804 -0.237079 -0.238201 -0.239157 -0.239929 -0.240505 -0.240869 -0.241012 -0.240925 -0.240600 -0.240034 -0.239228 -0.238185 -0.236912 -0.235418 -0.233717 -0.231824 -0.229758 -0.227539 -0.225189 -0.222729 -0.220186 -0.217581 -0.214941 -0.212288 -0.209646 -0.207038 -0.204485 -0.202007 -0.199622 -0.197348 -0.195200 -0.193191 -0.191334 -0.189638 -0.188111 -0.186760 -0.185590 -0.184605 -0.183804 -0.183190 -0.182761 -0.182514 -0.182447 -0.182554 -0.182830 -0.183270 -0.183867 -0.184613 -0.185501 -0.186523 -0.187670 -0.188933 -0.190304 -0.191774 -0.193335 -0.194977 -0.196691 -0.198471 -0.200307 -0.202191 -0.204116 -0.206074 -0.208059 -0.210063 -0.212081 -0.214106 -0.216132 -0.218152 -0.220158 -0.222143 -0.224097 -0.226008 -0.227865 -0.229653 -0.231359 -0.232966 -0.234460 -0.235824 -0.237042 -0.238097 -0.238973 -0.239657 -0.240134 -0.240392 -0.240419 -0.240205 -0.239742 -0.239024 -0.238046 -0.236805 -0.235300 -0.233530 -0.231499 -0.229209 -0.226666 -0.223877 -0.220849 -0.217592 -0.214115 -0.210429 -0.206547 -0.202480 -0.198242 -0.193846 -0.189306 -0.184636 -0.179850 -0.174961 -0.169984 -0.164932 -0.159819 -0.154658 -0.149462 -0.144243 -0.139013 -0.133783 -0.128565 -0.123367 -0.118201 -0.113075 -0.107997 -0.102977 -0.098019 -0.093132 -0.088322 -0.083593 -0.078951 -0.074401 -0.069945 -0.065588 -0.061332 -0.057181 -0.053135 -0.049196 -0.045366 -0.041646 -0.038036 -0.034536 -0.031146 -0.027866 -0.024695 -0.021633 -0.018678 -0.015830 -0.013091 -0.010460 -0.007943 -0.005544 -0.003272 -0.001136 0.000852 0.002679 0.004327 0.005781 0.007024 0.008036 0.008800 0.009297 0.009511 0.009425 0.009023 0.008293 0.007224 0.005804 0.004026 0.001886 -0.000620 -0.003493 -0.006732 -0.010333 -0.014290 -0.018597 -0.023243 -0.028218 -0.033508 -0.039100 -0.044978 -0.051126 -0.057526 -0.064161 -0.071011 -0.078057 -0.085281 -0.092662 -0.100182 -0.107820 -0.115558 -0.123377 -0.131258 -0.139184 -0.147137 -0.155100 -0.163059 -0.170996 -0.178899 -0.186753 -0.194545 -0.202264 -0.209899 -0.217439 -0.224874 -0.232195 -0.239396 -0.246467 -0.253402 -0.260190 -0.266824 -0.273291 -0.279578 -0.285672 -0.291557 -0.297215 -0.302627 -0.307774 -0.312636 -0.317193 -0.321424 -0.325310 -0.328832 -0.331973 -0.334718 -0.337054 -0.338971 -0.340465 -0.341532 -0.342178 -0.342410 -0.342240 -0.341686 -0.340768 -0.339512 -0.337944 -0.336097 -0.334002 -0.331693 -0.329206 -0.326575 -0.323838 -0.321028 -0.318180 -0.315326 -0.312497 -0.309722 -0.307030 -0.304443 -0.301985 -0.299676 -0.297533 -0.295570 -0.293801 -0.292235 -0.290881 -0.289743 -0.288824 -0.288127 -0.287651 -0.287393 -0.287351 -0.287518 -0.287888 -0.288455 -0.289210 -0.290145 -0.291248 -0.292511 -0.293922 -0.295470 -0.297146 -0.298937 -0.300832 -0.302821 -0.304893 -0.307036 -0.309241 -0.311498 -0.313797 -0.316129 -0.318486 -0.320858 -0.323238 -0.325618 -0.327991 -0.330347 -0.332677 -0.334969 -0.337210 -0.339385 -0.341478 -0.343470 -0.345342 -0.347072 -0.348640 -0.350022 -0.351197 -0.352144 -0.352840 -0.353267 -0.353407 -0.353244 -0.352766 -0.351966 -0.350839 -0.349387 -0.347615 -0.345533 -0.343155 -0.340500 -0.337591 -0.334452 -0.331112 -0.327600 -0.323949 -0.320191 -0.316358 -0.312485 -0.308603 -0.304744 -0.300939 -0.297216 -0.293602 -0.290122 -0.286800 -0.283654 -0.280704 -0.277965 -0.275449 -0.273169 -0.271132 -0.269344 -0.267810 -0.266531 -0.265507 -0.264737 -0.264217 -0.263943 -0.263908 -0.264105 -0.264526 -0.265161 -0.266001 -0.267034 -0.268250 -0.269638 -0.271185 -0.272879 -0.274710 -0.276664 -0.278730 -0.280897 -0.283154 -0.285488 -0.287890 -0.290349 -0.292855 -0.295400 -0.297973 -0.300566 -0.303171 -0.305779 -0.308380 -0.310963 -0.313517 -0.316025 -0.318474 -0.320844 -0.323117 -0.325272 -0.327287 -0.329141 -0.330809 -0.332270 -0.333502 -0.334483 -0.335192 -0.335613 -0.335728 -0.335525 -0.334996 -0.334136 -0.332945 -0.331427 -0.329592 -0.327453 -0.325029 -0.322342 -0.319416 -0.316280 -0.312964 -0.309499 -0.305918 -0.302255 -0.298544 -0.294817 -0.291108 -0.287446 -0.283863 -0.280385 -0.277038 -0.273846 -0.270831 -0.268010 -0.265400 -0.263015 -0.260867 -0.258964 -0.257313 -0.255919 -0.254783 -0.253906 -0.253287 -0.252922 -0.252807 -0.252936 -0.253300 -0.253892 -0.254703 -0.255722 -0.256938 -0.258341 -0.259918 -0.261657 -0.263547 -0.265575 -0.267729 -0.269997 -0.272367 -0.274827 -0.277366 -0.279973 -0.282637 -0.285348 -0.288096 -0.290872 -0.293667 -0.296473 -0.299281 -0.302081 -0.304863 -0.307616 -0.310325 -0.312977 -0.315552 -0.318034 -0.320401 -0.322633 -0.324708 -0.326602 -0.328294 -0.329761 -0.330981 -0.331933 -0.332599 -0.332961 -0.333003 -0.332712 -0.332076 -0.331086 -0.329735 -0.328019 -0.325937 -0.323489 -0.320678 -0.317509 -0.313989 -0.310127 -0.305934 -0.301423 -0.296608 -0.291503 -0.286125 -0.280492 -0.274621 -0.268531 -0.262242 -0.255771 -0.249140 -0.242366 -0.235470 -0.228471 -0.221386 -0.214235 -0.207035 -0.199803 -0.192556 -0.185309 -0.178078 -0.170876 -0.163717 -0.156613 -0.149577 -0.142619 -0.135749 -0.128977 -0.122311 -0.115758 -0.109325 -0.103019 -0.096845 -0.090807 -0.084910 -0.079157 -0.073550 -0.068093 -0.062785 -0.057630 -0.052627 -0.047777 -0.043080 -0.038535 -0.034141 -0.029897 -0.025804 -0.021861 -0.018075 -0.014455 -0.011020 -0.007795 -0.004814 -0.002120 0.000236 0.002196 0.003695 0.004664 0.005030 0.004717 0.003649 0.001753 -0.001043 -0.004808 -0.009605 -0.015491 -0.022514 -0.030719 -0.040138 -0.050798 -0.062716 -0.075899 -0.090347 -0.106051 -0.122994 -0.141152 -0.160491 -0.180975 -0.202556 -0.225186 -0.248809 -0.273364 -0.298790 -0.325020 -0.351986 -0.379616 -0.407841 -0.436588 -0.465786 -0.495363 -0.525248 -0.555372 -0.585667 -0.616067 -0.646508 -0.676929 -0.707271 -0.737478 -0.767497 -0.797278 -0.826774 -0.855941 -0.884739 -0.913130 -0.941080 -0.968556 -0.995531 -1.021975 -1.047862 -1.073159 -1.097831 -1.121838 -1.145131 -1.167658 -1.189360 -1.210170 -1.230018 -1.248832 -1.266534 -1.283050 -1.298303 -1.312219 -1.324727 -1.335764 -1.345271 -1.353199 -1.359515 -1.364198 -1.367243 -1.368666 -1.368497 -1.366786 -1.363599 -1.359019 -1.353140 -1.346072 -1.337932 -1.328846 -1.318948 -1.308371 -1.297255 -1.285735 -1.273947 -1.262023 -1.250088 -1.238262 -1.226657 -1.215379 -1.204524 -1.194176 -1.184414 -1.175304 -1.166904 -1.159262 -1.152417 -1.146399 -1.141228 -1.136918 -1.133474 -1.130895 -1.129171 -1.128290 -1.128232 -1.128972 -1.130482 -1.132731 -1.135683 -1.139302 -1.143548 -1.148380 -1.153756 -1.159634 -1.165970 -1.172722 -1.179848 -1.187305 -1.195053 -1.203052 -1.211263 -1.219649 -1.228175 -1.236807 -1.245512 -1.254260 -1.263021 -1.271764 -1.280454 -1.289055 -1.297522 -1.305804 -1.313844 -1.321578 -1.328934 -1.335836 -1.342205 -1.347956 -1.353004 -1.357265 -1.360654 -1.363091 -1.364499 -1.364807 -1.363953 -1.361885 -1.358565 -1.353971 -1.348096 -1.340954 -1.332574 -1.323004 -1.312309 -1.300568 -1.287875 -1.274336 -1.260064 -1.245182 -1.229818 -1.214103 -1.198167 -1.182142 -1.166156 -1.150334 -1.134794 -1.119648 -1.105001 -1.090948 -1.077577 -1.064966 -1.053183 -1.042285 -1.032322 -1.023333 -1.015347 -1.008386 -1.002463 -0.997581 -0.993738 -0.990924 -0.989123 -0.988312 -0.988465 -0.989550 -0.991532 -0.994373 -0.998030 -1.002459 -1.007616 -1.013452 -1.019921 -1.026975 -1.034564 -1.042641 -1.051158 -1.060069 -1.069327 -1.078890 -1.088714 -1.098758 -1.108981 -1.119348 -1.129821 -1.140367 -1.150951 -1.161540 -1.172094 -1.182571 -1.192924 -1.203096 -1.213027 -1.222647 -1.231882 -1.240652 -1.248874 -1.256461 -1.263326 -1.269382 -1.274544 -1.278730 -1.281861 -1.283869 -1.284690 -1.284276 -1.282591 -1.279617 -1.275351 -1.269810 -1.263029 -1.255060 -1.245969 -1.235842 -1.224772 -1.212869 -1.200247 -1.187029 -1.173344 -1.159319 -1.145087 -1.130776 -1.116512 -1.102417 -1.088606 -1.075187 -1.062263 -1.049925 -1.038257 -1.027333 -1.017218 -1.007966 -0.999622 -0.992224 -0.985797 -0.980361 -0.975925 -0.972491 -0.970055 -0.968605 -0.968123 -0.968587 -0.969968 -0.972234 -0.975350 -0.979277 -0.983973 -0.989394 -0.995496 -1.002231 -1.009554 -1.017415 -1.025769 -1.034568 -1.043766 -1.053317 -1.063178 -1.073305 -1.083656 -1.094193 -1.104876 -1.115670 -1.126541 -1.137455 -1.148378 -1.159276 -1.170109 -1.180833 -1.191398 -1.201747 -1.211815 -1.221531 -1.230821 -1.239601 -1.247789 -1.255298 -1.262040 -1.267930 -1.272883 -1.276820 -1.279666 -1.281351 -1.281814 -1.281001 -1.278866 -1.275373 -1.270495 -1.264214 -1.256520 -1.247414 -1.236907 -1.225015 -1.211765 -1.197190 -1.181332 -1.164237 -1.145958 -1.126553 -1.106083 -1.084616 -1.062218 -1.038963 -1.014922 -0.990171 -0.964782 -0.938832 -0.912395 -0.885544 -0.858351 -0.830887 -0.803220 -0.775417 -0.747541 -0.719654 -0.691814 -0.664077 -0.636493 -0.609114 -0.581985 -0.555148 -0.528643 -0.502505 -0.476767 -0.451460 -0.426610 -0.402242 -0.378377 -0.355033 -0.332226 -0.309970 -0.288277 -0.267154 -0.246609 -0.226647 -0.207271 -0.188483 -0.170282 -0.152667 -0.135634 -0.119181 -0.103301 -0.087990 -0.073242 -0.059051 -0.045415 -0.032331 -0.019799 -0.007820 0.003604 0.014467 0.024762 0.034484 0.043622 0.052168 0.060114 0.067450 0.074168 0.080261 0.085723 0.090549 0.094735 0.098281 0.101187 0.103456 0.105093 0.106104 0.106498 0.106287 0.105483 0.104101 0.102158 0.099671 0.096660 0.093146 0.089150 0.084696 0.079807 0.074507 0.068822 0.062777 0.056396 0.049703 0.042725 0.035486 0.028010 0.020322 0.012445 0.004402 -0.003785 -0.012094 -0.020504 -0.028996 -0.037551 -0.046151 -0.054778 -0.063417 -0.072052 -0.080668 -0.089253 -0.097791 -0.106274 -0.114687 -0.123021 -0.131264 -0.139402 -0.147421 -0.155307 -0.163041 -0.170606 -0.177980 -0.185143 -0.192073 -0.198746 -0.205140 -0.211232 -0.217001 -0.222423 -0.227481 -0.232155 -0.236429 -0.240291 -0.243730 -0.246742 -0.249326 -0.251485 -0.253228 -0.254568 -0.255524 -0.256116 -0.256370 -0.256313 -0.255978 -0.255396 -0.254602 -0.253630 -0.252516 -0.251294 -0.250000 -0.248666 -0.247324 -0.246004 -0.244735 -0.243542 -0.242449 -0.241477 -0.240646 -0.239970 -0.239465 -0.239141 -0.239007 -0.239069 -0.239333 -0.239800 -0.240470 -0.241343 -0.242414 -0.243679 -0.245134 -0.246770 -0.248581 -0.250557 -0.252688 -0.254966 -0.257379 -0.259916 -0.262566 -0.265318 -0.268161 -0.271083 -0.274074 -0.277122 -0.280218 -0.283351 -0.286513 -0.289692 -0.292881 -0.296069 -0.299250 -0.302416 -0.305559 -0.308671 -0.311743 -0.314767 -0.317729 -0.320618 -0.323419 -0.326114 -0.328686 -0.331114 -0.333379 -0.335458 -0.337330 -0.338974 -0.340368 -0.341492 -0.342326 -0.342854 -0.343058 -0.342927 -0.342452 -0.341626 -0.340449 -0.338925 -0.337062 -0.334872 -0.332373 -0.329587 -0.326538 -0.323253 -0.319765 -0.316104 -0.312306 -0.308404 -0.304433 -0.300430 -0.296427 -0.292457 -0.288554 -0.284745 -0.281060 -0.277524 -0.274161 -0.270991 -0.268032 -0.265301 -0.262811 -0.260572 -0.258592 -0.256878 -0.255433 -0.254258 -0.253354 -0.252717 -0.252342 -0.252225 -0.252359 -0.252737 -0.253348 -0.254183 -0.255231 -0.256481 -0.257921 -0.259538 -0.261320 -0.263254 -0.265327 -0.267528 -0.269843 -0.272260 -0.274768 -0.277355 -0.280010 -0.282722 -0.285480 -0.288274 -0.291094 -0.293933 -0.296780 -0.299627 -0.302464 -0.305281 -0.308066 -0.310803 -0.313479 -0.316074 -0.318571 -0.320948 -0.323185 -0.325259 -0.327147 -0.328827 -0.330277 -0.331474 -0.332400 -0.333035 -0.333365 -0.333377 -0.333063 -0.332420 -0.331449 -0.330155 -0.328549 -0.326644 -0.324461 -0.322021 -0.319348 -0.316472 -0.313422 -0.310230 -0.306927 -0.303547 -0.300122 -0.296684 -0.293264 -0.289893 -0.286598 -0.283406 -0.280342 -0.277427 -0.274682 -0.272124 -0.269769 -0.267629 -0.265714 -0.264034 -0.262592 -0.261395 -0.260442 -0.259734 -0.259270 -0.259046 -0.259054 -0.259291 -0.259750 -0.260423 -0.261299 -0.262370 -0.263624 -0.265052 -0.266641 -0.268380 -0.270258 -0.272262 -0.274382 -0.276605 -0.278921 -0.281318 -0.283785 -0.286312 -0.288890 -0.291508 -0.294157 -0.296829 -0.299515 -0.302207 -0.304895 -0.307571 -0.310223 -0.312839 -0.315404 -0.317902 -0.320315 -0.322623 -0.324807 -0.326843 -0.328711 -0.330386 -0.331847 -0.333072 -0.334039 -0.334730 -0.335125 -0.335208 -0.334965 -0.334383 -0.333452 -0.332166 -0.330517 -0.328505 -0.326128 -0.323388 -0.320289 -0.316839 -0.313044 -0.308916 -0.304466 -0.299707 -0.294655 -0.289325 -0.283734 -0.277899 -0.271840 -0.265575 -0.259122 -0.252503 -0.245735 -0.238838 -0.231832 -0.224735 -0.217565 -0.210341 -0.203079 -0.195797 -0.188510 -0.181235 -0.173984 -0.166772 -0.159612 -0.152516 -0.145496 -0.138561 -0.131721 -0.124984 -0.118360 -0.111854 -0.105473 -0.099223 -0.093109 -0.087134 -0.081304 -0.075620 -0.070085 -0.064701 -0.059469 -0.054391 -0.049466 -0.044695 -0.040077 -0.035611 -0.031298 -0.027134 -0.023119 -0.019253 -0.015534 -0.011963 -0.008543 -0.005276 -0.002169 0.000774 0.003544 0.006132 0.008528 0.010721 0.012699 0.014451 0.015965 0.017229 0.018233 0.018968 0.019423 0.019591 0.019466 0.019042 0.018316 0.017287 0.015953 0.014316 0.012378 0.010145 0.007622 0.004816 0.001735 -0.001611 -0.005211 -0.009054 -0.013127 -0.017417 -0.021911 -0.026593 -0.031450 -0.036467 -0.041629 -0.046922 -0.052329 -0.057837 -0.063431 -0.069097 -0.074820 -0.080588 -0.086388 -0.092206 -0.098031 -0.103851 -0.109656 -0.115435 -0.121179 -0.126879 -0.132527 -0.138113 -0.143632 -0.149076 -0.154439 -0.159716 -0.164899 -0.169982 -0.174957 -0.179815 -0.184545 -0.189137 -0.193578 -0.197854 -0.201952 -0.205857 -0.209554 -0.213027 -0.216263 -0.219246 -0.221964 -0.224404 -0.226555 -0.228408 -0.229957 -0.231198 -0.232130 -0.232756 -0.233083 -0.233120 -0.232879 -0.232377 -0.231631 -0.230662 -0.229492 -0.228145 -0.226646 -0.225020 -0.223294 -0.221493 -0.219642 -0.217766 -0.215889 -0.214032 -0.212218 -0.210464 -0.208790 -0.207210 -0.205740 -0.204391 -0.203175 -0.202099 -0.201171 -0.200397 -0.199779 -0.199320 -0.199022 -0.198882 -0.198900 -0.199072 -0.199394 -0.199863 -0.200472 -0.201215 -0.202086 -0.203076 -0.204180 -0.205389 -0.206694 -0.208088 -0.209563 -0.211111 -0.212723 -0.214391 -0.216108 -0.217867 -0.219659 -0.221479 -0.223320 -0.225174 -0.227037 -0.228901 -0.230763 -0.232615 -0.234452 -0.236266 -0.238049 -0.239793 -0.241485 -0.243115 -0.244669 -0.246133 -0.247491 -0.248729 -0.249830 -0.250778 -0.251559 -0.252156 -0.252556 -0.252746 -0.252713 -0.252449 -0.251947 -0.251203 -0.250217 -0.248990 -0.247529 -0.245844 -0.243947 -0.241853 -0.239581 -0.237149 -0.234580 -0.231896 -0.229122 -0.226282 -0.223400 -0.220502 -0.217610 -0.214749 -0.211939 -0.209202 -0.206558 -0.204023 -0.201614 -0.199345 -0.197230 -0.195277 -0.193497 -0.191897 -0.190481 -0.189254 -0.188218 -0.187374 -0.186721 -0.186256 -0.185978 -0.185881 -0.185961 -0.186211 -0.186626 -0.187198 -0.187919 -0.188781 -0.189776 -0.190895 -0.192129 -0.193470 -0.194907 -0.196433 -0.198039 -0.199716 -0.201455 -0.203249 -0.205090 -0.206970 -0.208882 -0.210819 -0.212773 -0.214740 -0.216713 -0.218684 -0.220648 -0.222595 -0.224516 -0.226402 -0.228239 -0.230016 -0.231717 -0.233329 -0.234834 -0.236218 -0.237462 -0.238552 -0.239471 -0.240205 -0.240738 -0.241058 -0.241155 -0.241019 -0.240644 -0.240029 -0.239174 -0.238082 -0.236762 -0.235224 -0.233482 -0.231551 -0.229451 -0.227202 -0.224826 -0.222346 -0.219786 -0.217170 -0.214523 -0.211869 -0.209230 -0.206629 -0.204087 -0.201623 -0.199257 -0.197005 -0.194882 -0.192900 -0.191072 -0.189407 -0.187913 -0.186596 -0.185461 -0.184510 -0.183745 -0.183166 -0.182771 -0.182559 -0.182525 -0.182664 -0.182972 -0.183442 -0.184067 -0.184841 -0.185754 -0.186800 -0.187969 -0.189253 -0.190643 -0.192130 -0.193706 -0.195362 -0.197088 -0.198878 -0.200723 -0.202614 -0.204545 -0.206508 -0.208496 -0.210502 -0.212520 -0.214545 -0.216569 -0.218586 -0.220588 -0.222566 -0.224511 -0.226412 -0.228254 -0.230027 -0.231713 -0.233298 -0.234767 -0.236102 -0.237287 -0.238307 -0.239145 -0.239788 -0.240222 -0.240433 -0.240412 -0.240148 -0.239634 -0.238864 -0.237833 -0.236539 -0.234980 -0.233157 -0.231073 -0.228732 -0.226139 -0.223301 -0.220226 -0.216923 -0.213403 -0.209677 -0.205756 -0.201654 -0.197383 -0.192957 -0.188389 -0.183694 -0.178886 -0.173978 -0.168985 -0.163920 -0.158796 -0.153627 -0.148425 -0.143202 -0.137971 -0.132743 -0.127527 -0.122335 -0.117176 -0.112059 -0.106992 -0.101983 -0.097039 -0.092167 -0.087372 -0.082660 -0.078036 -0.073504 -0.069068 -0.064731 -0.060496 -0.056365 -0.052340 -0.048423 -0.044615 -0.040917 -0.037329 -0.033851 -0.030483 -0.027224 -0.024075 -0.021034 -0.018102 -0.015279 -0.012571 -0.009991 -0.007555 -0.005290 -0.003231 -0.001421 0.000088 0.001236 0.001959 0.002187 0.001844 0.000855 -0.000855 -0.003363 -0.006742 -0.011059 -0.016380 -0.022761 -0.030254 -0.038901 -0.048737 -0.059789 -0.072075 -0.085602 -0.100373 -0.116377 -0.133600 -0.152017 -0.171596 -0.192299 -0.214082 -0.236896 -0.260685 -0.285390 -0.310950 -0.337298 -0.364366 -0.392085 -0.420385 -0.449193 -0.478440 -0.508052 -0.537961 -0.568098 -0.598394 -0.628785 -0.659207 -0.689598 -0.719902 -0.750062 -0.780025 -0.809742 -0.839166 -0.868254 -0.896965 -0.925263 -0.953112 -0.980483 -1.007346 -1.033674 -1.059439 -1.084609 -1.109151 -1.133022 -1.156177 -1.178561 -1.200117 -1.220778 -1.240475 -1.259134 -1.276681 -1.293038 -1.308130 -1.321884 -1.334230 -1.345102 -1.354445 -1.362210 -1.368364 -1.372890 -1.375784 -1.377062 -1.376759 -1.374925 -1.371628 -1.366951 -1.360992 -1.353860 -1.345672 -1.336556 -1.326643 -1.316069 -1.304970 -1.293482 -1.281740 -1.269872 -1.258005 -1.246255 -1.234735 -1.223547 -1.212784 -1.202532 -1.192865 -1.183850 -1.175542 -1.167989 -1.161227 -1.155285 -1.150184 -1.145934 -1.142542 -1.140003 -1.138311 -1.137450 -1.137400 -1.138137 -1.139632 -1.141855 -1.144770 -1.148339 -1.152525 -1.157286 -1.162580 -1.168366 -1.174601 -1.181243 -1.188249 -1.195580 -1.203193 -1.211050 -1.219114 -1.227347 -1.235714 -1.244183 -1.252721 -1.261298 -1.269885 -1.278450 -1.286959 -1.295373 -1.303646 -1.311727 -1.319557 -1.327069 -1.334193 -1.340851 -1.346962 -1.352442 -1.357206 -1.361168 -1.364246 -1.366359 -1.367431 -1.367394 -1.366187 -1.363760 -1.360079 -1.355124 -1.348892 -1.341401 -1.332682 -1.322788 -1.311787 -1.299760 -1.286805 -1.273027 -1.258543 -1.243478 -1.227958 -1.212115 -1.196081 -1.179986 -1.163958 -1.148119 -1.132588 -1.117474 -1.102881 -1.088903 -1.075625 -1.063123 -1.051462 -1.040700 -1.030883 -1.022048 -1.014223 -1.007428 -1.001673 -0.996962 -0.993289 -0.990644 -0.989010 -0.988362 -0.988673 -0.989912 -0.992041 -0.995022 -0.998811 -1.003366 -1.008639 -1.014585 -1.021154 -1.028298 -1.035970 -1.044122 -1.052705 -1.061674 -1.070982 -1.080587 -1.090445 -1.100517 -1.110761 -1.121141 -1.131623 -1.142170 -1.152751 -1.163328 -1.173864 -1.184315 -1.194632 -1.204756 -1.214627 -1.224173 -1.233319 -1.241984 -1.250085 -1.257533 -1.264243 -1.270127 -1.275101 -1.279082 -1.281995 -1.283769 -1.284340 -1.283653 -1.281660 -1.278323 -1.273614 -1.267518 -1.260034 -1.251179 -1.240983 -1.229496 -1.216785 -1.202931 -1.188032 -1.172199 -1.155553 -1.138227 -1.120358 -1.102091 -1.083572 -1.064946 -1.046360 -1.027955 -1.009868 -0.992230 -0.975162 -0.958780 -0.943185 -0.928474 -0.914729 -0.902021 -0.890413 -0.879954 -0.870684 -0.862632 -0.855817 -0.850247 -0.845924 -0.842839 -0.840976 -0.840313 -0.840820 -0.842462 -0.845198 -0.848986 -0.853776 -0.859517 -0.866156 -0.873637 -0.881904 -0.890899 -0.900564 -0.910842 -0.921674 -0.933004 -0.944778 -0.956940 -0.969438 -0.982221 -0.995241 -1.008451 -1.021807 -1.035266 -1.048788 -1.062337 -1.075876 -1.089367 -1.102772 -1.116048 -1.129145 -1.142011 -1.154582 -1.166792 -1.178567 -1.189829 -1.200494 -1.210477 -1.219691 -1.228049 -1.235468 -1.241864 -1.247160 -1.251284 -1.254171 -1.255762 -1.256009 -1.254870 -1.252312 -1.248314 -1.242862 -1.235953 -1.227590 -1.217789 -1.206571 -1.193967 -1.180014 -1.164757 -1.148245 -1.130534 -1.111686 -1.091763 -1.070836 -1.048973 -1.026249 -1.002736 -0.978511 -0.953649 -0.928225 -0.902314 -0.875989 -0.849324 -0.822387 -0.795248 -0.767972 -0.740624 -0.713264 -0.685949 -0.658734 -0.631670 -0.604805 -0.578184 -0.551850 -0.525840 -0.500191 -0.474933 -0.450098 -0.425710 -0.401794 -0.378371 -0.355457 -0.333068 -0.311218 -0.289918 -0.269175 -0.248997 -0.229388 -0.210350 -0.191886 -0.173995 -0.156675 -0.139924 -0.123737 -0.108110 -0.093036 -0.078511 -0.064528 -0.051085 -0.038175 -0.025799 -0.013953 -0.002639 0.008144 0.018393 0.028104 0.037276 0.045904 0.053984 0.061513 0.068488 0.074906 0.080767 0.086069 0.090814 0.095003 0.098639 0.101728 0.104276 0.106291 0.107781 0.108757 0.109231 0.109217 0.108728 0.107780 0.106390 0.104576 0.102355 0.099745 0.096765 0.093435 0.089774 0.085802 0.081540 0.077006 0.072222 0.067205 0.061976 0.056554 0.050957 0.045203 0.039309 0.033292 0.027168 0.020952 0.014661 0.008309 0.001908 -0.004527 -0.010984 -0.017452 -0.023921 -0.030379 -0.036817 -0.043226 -0.049597 -0.055919 -0.062181 -0.068374 -0.074483 -0.080496 -0.086397 -0.092171 -0.097802 -0.103272 -0.108564 -0.113660 -0.118544 -0.123199 -0.127608 -0.131757 -0.135632 -0.139221 -0.142515 -0.145509 -0.148197 -0.150581 -0.152664 -0.154452 -0.155957 -0.157190 -0.158169 -0.158912 -0.159439 -0.159771 -0.159934 -0.159950 -0.159844 -0.159641 -0.159365 -0.159041 -0.158690 -0.158335 -0.157996 -0.157693 -0.157442 -0.157260 -0.157161 -0.157158 -0.157259 -0.157476 -0.157814 -0.158279 -0.158874 -0.159602 -0.160464 -0.161461 -0.162590 -0.163849 -0.165234 -0.166741 -0.168365 -0.170099 -0.171938 -0.173874 -0.175901 -0.178010 -0.180194 -0.182445 -0.184756 -0.187118 -0.189526 -0.191969 -0.194442 -0.196935 -0.199443 -0.201959 -0.204476 -0.206988 -0.209490 -0.211976 -0.214441 -0.216880 -0.219287 -0.221655 -0.223977 -0.226244 -0.228446 -0.230571 -0.232608 -0.234542 -0.236359 -0.238043 -0.239580 -0.240954 -0.242149 -0.243151 -0.243946 -0.244520 -0.244863 -0.244964 -0.244818 -0.244419 -0.243769 -0.242868 -0.241724 -0.240346 -0.238746 -0.236939 -0.234943 -0.232778 -0.230466 -0.228030 -0.225494 -0.222881 -0.220218 -0.217528 -0.214836 -0.212164 -0.209535 -0.206970 -0.204488 -0.202108 -0.199845 -0.197715 -0.195729 -0.193900 -0.192235 -0.190743 -0.189429 -0.188297 -0.187348 -0.186584 -0.186006 -0.185611 -0.185397 -0.185361 -0.185496 -0.185798 -0.186260 -0.186875 -0.187636 -0.188534 -0.189562 -0.190711 -0.191972 -0.193337 -0.194796 -0.196342 -0.197965 -0.199658 -0.201411 -0.203217 -0.205069 -0.206959 -0.208880 -0.210824 -0.212786 -0.214758 -0.216735 -0.218710 -0.220677 -0.222626 -0.224549 -0.226435 -0.228273 -0.230050 -0.231751 -0.233361 -0.234865 -0.236247 -0.237489 -0.238577 -0.239494 -0.240225 -0.240756 -0.241073 -0.241167 -0.241029 -0.240654 -0.240038 -0.239184 -0.238096 -0.236781 -0.235250 -0.233518 -0.231600 -0.229515 -0.227285 -0.224930 -0.222474 -0.219942 -0.217356 -0.214742 -0.212122 -0.209520 -0.206957 -0.204455 -0.202033 -0.199709 -0.197499 -0.195417 -0.193478 -0.191691 -0.190067 -0.188612 -0.187334 -0.186235 -0.185319 -0.184587 -0.184038 -0.183673 -0.183486 -0.183475 -0.183635 -0.183960 -0.184445 -0.185083 -0.185867 -0.186788 -0.187839 -0.189011 -0.190296 -0.191684 -0.193168 -0.194738 -0.196386 -0.198104 -0.199883 -0.201715 -0.203592 -0.205508 -0.207454 -0.209424 -0.211411 -0.213410 -0.215414 -0.217417 -0.219411 -0.221389 -0.223342 -0.225260 -0.227131 -0.228943 -0.230682 -0.232332 -0.233879 -0.235306 -0.236596 -0.237734 -0.238704 -0.239491 -0.240079 -0.240455 -0.240608 -0.240527 -0.240202 -0.239625 -0.238792 -0.237698 -0.236340 -0.234718 -0.232833 -0.230688 -0.228287 -0.225636 -0.222741 -0.219612 -0.216257 -0.212688 -0.208915 -0.204950 -0.200806 -0.196497 -0.192036 -0.187436 -0.182712 -0.177877 -0.172946 -0.167933 -0.162850 -0.157712 -0.152532 -0.147321 -0.142092 -0.136857 -0.131627 -0.126412 -0.121223 -0.116069 -0.110958 -0.105900 -0.100902 -0.095969 -0.091110 -0.086330 -0.081634 -0.077026 -0.072512 -0.068094 -0.063776 -0.059560 -0.055450 -0.051446 -0.047550 -0.043763 -0.040086 -0.036520 -0.033064 -0.029718 -0.026481 -0.023354 -0.020335 -0.017425 -0.014627 -0.011948 -0.009403 -0.007012 -0.004806 -0.002822 -0.001108 0.000282 0.001285 0.001836 0.001860 0.001284 0.000031 -0.001975 -0.004808 -0.008540 -0.013238 -0.018964 -0.025771 -0.033708 -0.042816 -0.053124 -0.064657 -0.077429 -0.091444 -0.106700 -0.123185 -0.140879 -0.159756 -0.179782 -0.200915 -0.223109 -0.246312 -0.270468 -0.295516 -0.321392 -0.348030 -0.375362 -0.403316 -0.431822 -0.460809 -0.490205 -0.519940 -0.549944 -0.580148 -0.610486 -0.640893 -0.671306 -0.701666 -0.731915 -0.761999 -0.791866 -0.821469 -0.850761 -0.879700 -0.908248 -0.936369 -0.964028 -0.991197 -1.017848 -1.043953 -1.069483 -1.094405 -1.118682 -1.142272 -1.165124 -1.187184 -1.208389 -1.228672 -1.247963 -1.266186 -1.283266 -1.299126 -1.313692 -1.326890 -1.338654 -1.348920 -1.357632 -1.364746 -1.370228 -1.374059 -1.376240 -1.376785 -1.375728 -1.373121 -1.369032 -1.363546 -1.356760 -1.348786 -1.339744 -1.329762 -1.318977 -1.307525 -1.295548 -1.283185 -1.270573 -1.257847 -1.245134 -1.232557 -1.220231 -1.208262 -1.196747 -1.185775 -1.175422 -1.165759 -1.156842 -1.148721 -1.141434 -1.135012 -1.129476 -1.124839 -1.121105 -1.118273 -1.116333 -1.115270 -1.115064 -1.115690 -1.117119 -1.119317 -1.122248 -1.125874 -1.130153 -1.135044 -1.140502 -1.146484 -1.152946 -1.159843 -1.167131 -1.174767 -1.182708 -1.190914 -1.199344 -1.207961 -1.216726 -1.225606 -1.234566 -1.243576 -1.252604 -1.261620 -1.270589 -1.279475 -1.288233 -1.296815 -1.305163 -1.313215 -1.320900 -1.328144 -1.334866 -1.340984 -1.346411 -1.351063 -1.354856 -1.357708 -1.359541 -1.360283 -1.359871 -1.358251 -1.355384 -1.351246 -1.345828 -1.339142 -1.331215 -1.322094 -1.311842 -1.300537 -1.288270 -1.275145 -1.261277 -1.246785 -1.231796 -1.216441 -1.200849 -1.185151 -1.169475 -1.153944 -1.138677 -1.123786 -1.109375 -1.095540 -1.082369 -1.069939 -1.058320 -1.047568 -1.037734 -1.028858 -1.020969 -1.014090 -1.008233 -1.003404 -0.999600 -0.996812 -0.995025 -0.994217 -0.994362 -0.995430 -0.997385 -1.000189 -1.003802 -1.008180 -1.013278 -1.019051 -1.025450 -1.032428 -1.039937 -1.047930 -1.056360 -1.065180 -1.074345 -1.083812 -1.093538 -1.103483 -1.113606 -1.123870 -1.134241 -1.144683 -1.155164 -1.165649 -1.176100 -1.186475 -1.196725 -1.206795 -1.216624 -1.226144 -1.235279 -1.243951 -1.252076 -1.259567 -1.266338 -1.272301 -1.277370 -1.281465 -1.284507 -1.286427 -1.287164 -1.286669 -1.284909 -1.281866 -1.277539 -1.271949 -1.265129 -1.257135 -1.248035 -1.237913 -1.226866 -1.215002 -1.202437 -1.189293 -1.175697 -1.161779 -1.147668 -1.133492 -1.119375 -1.105437 -1.091793 -1.078549 -1.065805 -1.053651 -1.042169 -1.031431 -1.021501 -1.012431 -1.004266 -0.997040 -0.990779 -0.985499 -0.981211 -0.977915 -0.975606 -0.974272 -0.973893 -0.974448 -0.975908 -0.978240 -0.981410 -0.985377 -0.990100 -0.995536 -1.001640 -1.008367 -1.015668 -1.023499 -1.031810 -1.040557 -1.049693 -1.059174 -1.068956 -1.078996 -1.089254 -1.099691 -1.110268 -1.120951 -1.131706 -1.142499 -1.153297 -1.164064 -1.174761 -1.185343 -1.195756 -1.205944 -1.215840 -1.225372 -1.234465 -1.243035 -1.250998 -1.258267 -1.264755 -1.270376 -1.275047 -1.278689 -1.281229 -1.282597 -1.282735 -1.281589 -1.279116 -1.275281 -1.270059 -1.263433 -1.255397 -1.245953 -1.235111 -1.222892 -1.209323 -1.194439 -1.178282 -1.160900 -1.142347 -1.122682 -1.101967 -1.080270 -1.057658 -1.034204 -1.009981 -0.985064 -0.959526 -0.933443 -0.906889 -0.879937 -0.852659 -0.825124 -0.797402 -0.769557 -0.741653 -0.713751 -0.685909 -0.658180 -0.630617 -0.603269 -0.576181 -0.549393 -0.522946 -0.496873 -0.471208 -0.445980 -0.421215 -0.396937 -0.373167 -0.349922 -0.327218 -0.305068 -0.283483 -0.262470 -0.242038 -0.222190 -0.202929 -0.184256 -0.166171 -0.148672 -0.131755 -0.115417 -0.099652 -0.084454 -0.069816 -0.055733 -0.042198 -0.029208 -0.016757 -0.004843 0.006535 0.017377 0.027682 0.037449 0.046674 0.055355 0.063489 0.071072 0.078101 0.084574 0.090490 0.095846 0.100644 0.104886 0.108573 0.111710 0.114303 0.116359 0.117887 0.118896 0.119397 0.119404 0.118929 0.117989 0.116599 0.114776 0.112537 0.109901 0.106887 0.103515 0.099805 0.095776 0.091448 0.086840 0.081973 0.076866 0.071540 0.066012 0.060303 0.054430 0.048411 0.042263 0.036004 0.029648 0.023212 0.016711 0.010158 0.003566 -0.003053 -0.009685 -0.016319 -0.022945 -0.029553 -0.036132 -0.042675 -0.049170 -0.055609 -0.061980 -0.068271 -0.074471 -0.080563 -0.086534 -0.092368 -0.098047 -0.103556 -0.108875 -0.113988 -0.118878 -0.123529 -0.127925 -0.132051 -0.135896 -0.139448 -0.142699 -0.145645 -0.148284 -0.150618 -0.152652 -0.154395 -0.155859 -0.157057 -0.158009 -0.158732 -0.159248 -0.159580 -0.159752 -0.159788 -0.159713 -0.159550 -0.159324 -0.159059 -0.158776 -0.158496 -0.158240 -0.158025 -0.157869 -0.157785 -0.157788 -0.157888 -0.158095 -0.158417 -0.158861 -0.159431 -0.160129 -0.160959 -0.161919 -0.163010 -0.164229 -0.165571 -0.167035 -0.168615 -0.170306 -0.172102 -0.173996 -0.175982 -0.178051 -0.180198 -0.182413 -0.184690 -0.187020 -0.189396 -0.191810 -0.194255 -0.196723 -0.199209 -0.201706 -0.204206 -0.206704 -0.209194 -0.211669 -0.214126 -0.216558 -0.218960 -0.221327 -0.223650 -0.225923 -0.228134 -0.230274 -0.232330 -0.234289 -0.236138 -0.237860 -0.239441 -0.240866 -0.242118 -0.243183 -0.244047 -0.244695 -0.245117 -0.245302 -0.245243 -0.244935 -0.244378 -0.243572 -0.242524 -0.241242 -0.239738 -0.238026 -0.236124 -0.234050 -0.231827 -0.229476 -0.227021 -0.224487 -0.221897 -0.219276 -0.216647 -0.214034 -0.211459 -0.208942 -0.206503 -0.204160 -0.201929 -0.199825 -0.197861 -0.196047 -0.194393 -0.192907 -0.191594 -0.190459 -0.189504 -0.188730 -0.188138 -0.187726 -0.187491 -0.187429 -0.187536 -0.187806 -0.188234 -0.188812 -0.189535 -0.190393 -0.191380 -0.192486 -0.193703 -0.195023 -0.196437 -0.197936 -0.199513 -0.201159 -0.202865 -0.204624 -0.206429 -0.208272 -0.210147 -0.212045 -0.213961 -0.215889 -0.217822 -0.219753 -0.221677 -0.223584 -0.225466 -0.227312 -0.229110 -0.230848 -0.232511 -0.234085 -0.235554 -0.236900 -0.238109 -0.239164 -0.240049 -0.240749 -0.241250 -0.241538 -0.241603 -0.241437 -0.241033 -0.240389 -0.239506 -0.238387 -0.237041 -0.235477 -0.233710 -0.231755 -0.229632 -0.227360 -0.224962 -0.222461 -0.219881 -0.217246 -0.214580 -0.211907 -0.209251 -0.206633 -0.204074 -0.201595 -0.199214 -0.196948 -0.194810 -0.192815 -0.190975 -0.189297 -0.187792 -0.186463 -0.185317 -0.184356 -0.183582 -0.182993 -0.182590 -0.182369 -0.182327 -0.182458 -0.182757 -0.183219 -0.183838 -0.184604 -0.185512 -0.186551 -0.187715 -0.188994 -0.190379 -0.191863 -0.193435 -0.195087 -0.196811 -0.198598 -0.200440 -0.202330 -0.204259 -0.206221 -0.208207 -0.210213 -0.212231 -0.214256 -0.216280 -0.218297 -0.220300 -0.222279 -0.224225 -0.226127 -0.227972 -0.229745 -0.231434 -0.233021 -0.234492 -0.235830 -0.237018 -0.238040 -0.238881 -0.239527 -0.239964 -0.240179 -0.240161 -0.239901 -0.239391 -0.238624 -0.237597 -0.236306 -0.234751 -0.232932 -0.230852 -0.228515 -0.225926 -0.223091 -0.220020 -0.216722 -0.213206 -0.209484 -0.205567 -0.201469 -0.197202 -0.192780 -0.188216 -0.183526 -0.178721 -0.173817 -0.168828 -0.163767 -0.158647 -0.153481 -0.148283 -0.143064 -0.137837 -0.132612 -0.127400 -0.122211 -0.117056 -0.111942 -0.106878 -0.101872 -0.096932 -0.092063 -0.087271 -0.082562 -0.077941 -0.073412 -0.068979 -0.064645 -0.060412 -0.056284 -0.052262 -0.048348 -0.044542 -0.040846 -0.037260 -0.033784 -0.030419 -0.027163 -0.024016 -0.020977 -0.018046 -0.015223 -0.012509 -0.009907 -0.007421 -0.005060 -0.002831 -0.000746 0.001182 0.002938 0.004506 0.005869 0.007007 0.007904 0.008541 0.008900 0.008965 0.008719 0.008150 0.007244 0.005991 0.004383 0.002412 0.000076 -0.002627 -0.005698 -0.009133 -0.012928 -0.017076 -0.021568 -0.026394 -0.031541 -0.036996 -0.042745 -0.048770 -0.055056 -0.061584 -0.068335 -0.075292 -0.082433 -0.089740 -0.097194 -0.104775 -0.112464 -0.120241 -0.128088 -0.135988 -0.143922 -0.151874 -0.159827 -0.167766 -0.175676 -0.183543 -0.191354 -0.199096 -0.206759 -0.214331 -0.221803 -0.229165 -0.236409 -0.243528 -0.250513 -0.257357 -0.264049 -0.270580 -0.276937 -0.283107 -0.289075 -0.294823 -0.300333 -0.305586 -0.310562 -0.315242 -0.319604 -0.323628 -0.327297 -0.330592 -0.333496 -0.335998 -0.338085 -0.339752 -0.340997 -0.341822 -0.342234 -0.342244 -0.341869 -0.341129 -0.340047 -0.338651 -0.336971 -0.335038 -0.332885 -0.330548 -0.328062 -0.325461 -0.322780 -0.320053 -0.317312 -0.314588 -0.311910 -0.309305 -0.306799 -0.304412 -0.302166 -0.300078 -0.298163 -0.296434 -0.294901 -0.293571 -0.292451 -0.291545 -0.290853 -0.290376 -0.290113 -0.290059 -0.290210 -0.290560 -0.291102 -0.291828 -0.292730 -0.293797 -0.295021 -0.296391 -0.297896 -0.299526 -0.301269 -0.303115 -0.305054 -0.307073 -0.309164 -0.311316 -0.313519 -0.315764 -0.318042 -0.320344 -0.322661 -0.324987 -0.327314 -0.329633 -0.331936 -0.334213 -0.336453 -0.338643 -0.340768 -0.342811 -0.344755 -0.346578 -0.348262 -0.349783 -0.351120 -0.352251 -0.353154 -0.353808 -0.354194 -0.354292 -0.354088 -0.353569 -0.352724 -0.351550 -0.350045 -0.348214 -0.346066 -0.343614 -0.340875 -0.337870 -0.334626 -0.331168 -0.327528 -0.323737 -0.319828 -0.315835 -0.311791 -0.307729 -0.303684 -0.299686 -0.295765 -0.291949 -0.288265 -0.284737 -0.281387 -0.278234 -0.275294 -0.272583 -0.270112 -0.267890 -0.265925 -0.264221 -0.262782 -0.261608 -0.260697 -0.260048 -0.259654 -0.259512 -0.259612 -0.259947 -0.260509 -0.261286 -0.262268 -0.263444 -0.264802 -0.266330 -0.268016 -0.269848 -0.271813 -0.273899 -0.276093 -0.278386 -0.280763 -0.283216 -0.285732 -0.288301 -0.290914 -0.293561 -0.296233 -0.298920 -0.301616 -0.304309 -0.306990 -0.309648 -0.312268 -0.314837 -0.317337 -0.319750 -0.322057 -0.324235 -0.326263 -0.328118 -0.329777 -0.331219 -0.332421 -0.333362 -0.334023 -0.334387 -0.334439 -0.334170 -0.333573 -0.332646 -0.331392 -0.329818 -0.327937 -0.325764 -0.323320 -0.320628 -0.317715 -0.314611 -0.311345 -0.307951 -0.304461 -0.300908 -0.297325 -0.293744 -0.290197 -0.286714 -0.283322 -0.280047 -0.276914 -0.273944 -0.271157 -0.268569 -0.266195 -0.264048 -0.262136 -0.260468 -0.259048 -0.257879 -0.256962 -0.256298 -0.255882 -0.255712 -0.255781 -0.256082 -0.256609 -0.257351 -0.258300 -0.259445 -0.260775 -0.262279 -0.263945 -0.265762 -0.267717 -0.269798 -0.271994 -0.274293 -0.276683 -0.279154 -0.281694 -0.284292 -0.286939 -0.289625 -0.292341 -0.295077 -0.297826 -0.300579 -0.303327 -0.306059 -0.308764 -0.311430 -0.314041 -0.316582 -0.319032 -0.321374 -0.323585 -0.325644 -0.327528 -0.329215 