0.000000 0.000000 0.000000 0.000000 0.000000 0.000000 0.000000 0.000000 0.000000 -0.445115 0.158824 0.312429 0.555889 0.723404 1.241319 0.010270 1.491835 1.580436 1.662183 2.099015 3.373599 2.449416 2.603715 1.949364 2.127552 1.834654 2.559680 1.432153 0.142254 -0.825352 -0.948891 -1.662287 -1.306245 -2.299947 -2.529860 -3.291008 -2.951155 -2.409161 -1.957434 -1.987024 -2.237855 -2.423235 -2.165436 -1.770372 -1.370913 -1.443829 -1.933570 -2.151250 -2.289028 -1.690249 -1.118254 -1.672351 -2.396277 -2.562839 -2.082384 -1.660978 -1.983514 -1.664027 -0.664065 -0.298232 -0.759978 -0.532416 -0.833629 -1.023069 -1.423719 -1.349086 -1.623777 -1.670093 -1.686137 -1.751806 -2.140382 -1.322683 -1.362768 -1.659377 -1.648020 -1.654659 -1.880975 -2.832283 -2.632922 -3.234563 -3.588441 -3.809197 -4.085262 -3.479566 -3.793693 -4.650200 -4.019462 -4.315475 -3.668881 -4.325761 -4.304899 -4.825888 -4.897096 -4.681123 -5.203147 -6.234062 -6.541287 -6.871762 -6.031790 -5.783880 -5.919438 -6.342995 -5.715195 -5.340213 -6.062538 -5.654302 -5.333952 -4.990013 -4.619132 -4.685909 -4.743527 -5.275347 -4.447545 -4.428368 -3.798304 -3.825654 -3.869747 -3.702787 -3.133359 -2.759354 -2.100227 -1.917208 -0.800727 -0.254611 -0.225111 -0.250755 0.199612 0.582947 0.329057 0.196974 0.454315 1.013884 0.807605 0.894318 0.654263 0.995814 1.177625 0.701811 1.837886 1.692297 1.755360 2.100286 1.505222 2.209991 3.639381 3.924349 4.184725 3.353724 3.053769 3.513528 4.815830 4.117767 3.302693 3.062833 3.400916 3.167646 3.172435 2.780223 2.820863 2.660456 2.975500 2.736643 2.031486 1.531889 1.636856 2.136337 2.702316 2.692531 1.963877 1.177548 1.618801 1.978638 2.023614 0.757647 0.209447 -0.448619 -0.619667 -0.978015 -1.127711 -1.438911 -0.106225 -0.237732 -0.279628 -0.929642 -0.219159 0.283160 0.483664 -0.125785 0.180401 -0.060270 -0.842901 -2.234371 -2.006610 -1.561728 -0.747447 -1.350222 -1.919613 -2.408736 -3.408818 -2.994239 -2.323951 -2.224838 -3.162991 -3.435204 -3.425350 -3.296123 -3.130783 -1.963904 -2.501439 -3.132639 -3.387325 -2.846326 -1.770668 -2.042298 -2.880590 -2.208192 -1.608279 -0.453246 -0.382268 -0.433001 -0.448578 -0.191847 0.251765 0.179930 0.018180 0.176512 0.055086 0.435750 0.487231 0.985721 1.285476 1.526065 1.219447 1.265202 1.394286 1.202884 0.922796 0.893438 1.068810 1.195438 0.708288 0.429653 0.005168 0.462664 0.326048 0.289047 0.639575 0.124909 -0.363334 -0.017244 0.733975 1.646457 1.131136 0.287742 0.287587 0.675317 0.615554 1.330488 1.414773 1.517792 1.450537 1.457133 1.364965 1.513976 1.746650 1.949287 1.533500 1.393253 0.667802 -0.397821 -0.516673 -0.132050 0.219354 -0.222217 -1.217293 -1.927666 -1.514058 -1.015598 -0.499465 -0.502707 -0.858600 -1.445891 -1.015721 -0.792232 -0.489558 -0.355951 -1.531294 -1.615530 -0.782311 -0.531015 -0.296762 -0.904710 -0.571705 -0.074975 -0.260233 -0.114801 -0.277317 -0.778635 -0.809012 -0.443298 -0.270390 -0.807396 -1.378070 -1.215723 -0.667513 -0.274656 -0.402093 -0.950479 -1.472438 -1.439062 -1.401510 -0.604235 -0.875652 -1.156854 -1.644595 -1.926999 -1.299499 -0.787071 -0.918377 -0.596877 -0.475649 -0.277992 -1.192409 -1.078760 -0.859603 -0.527732 -0.687116 -1.098029 -1.721068 -1.402619 -0.913582 -0.007423 -0.041058 0.544432 0.103411 -0.375968 -0.262396 -0.457369 -0.190364 -0.158781 -0.930097 -1.309243 -2.033868 -2.017613 -1.266351 -1.621935 -1.616457 -1.892799 -1.952061 -1.955218 -1.838659 -1.010372 -0.804591 -1.035047 -1.179053 -1.342802 -0.977157 -0.203976 -0.147487 -0.124260 -0.416726 -0.724975 -0.722227 -0.030717 -0.311532 -0.288820 -0.439545 -0.485646 -1.061358 -1.141169 -1.472566 -0.842054 -1.221771 -1.714373 -1.945733 -2.076500 -1.131724 -0.121253 -0.587734 -0.765587 -1.564771 -1.554349 -0.634455 -0.201638 -0.529920 -0.490406 -0.767682 -0.734278 -0.169293 0.543148 0.681811 1.465826 1.245120 1.679370 1.850161 0.824360 0.347409 0.186354 0.707603 0.860128 0.055462 0.094595 -0.446031 -0.611434 0.250296 1.545104 0.701113 0.880233 0.979105 1.126074 1.149766 0.954725 0.620209 0.865874 0.091187 0.068455 -0.071249 -0.717197 -0.864376 -0.419650 -0.733481 -0.342092 -0.703847 -1.114796 -0.768129 -0.225623 0.230631 -0.222181 -1.141354 -1.007172 -0.776004 -0.370644 -0.391850 -0.647698 -0.783903 -0.744077 -0.217537 0.021974 0.052577 -0.117439 -0.023363 0.117292 -0.203776 -0.562190 -0.299321 -0.154406 -0.541775 -0.676483 -0.796759 -0.248512 -0.125155 0.451105 0.429867 -0.234896 0.055020 0.350845 -0.051887 -0.135300 -0.677650 -0.646474 -0.706404 -2.268247 -2.840196 -2.824905 -2.313365 -2.265832 -3.388993 -3.377828 -3.689332 -3.477370 -2.765053 -2.349991 -1.963536 -2.898269 -2.863883 -0.841557 -1.618467 -0.656873 -1.012873 -0.935224 -0.100275 0.300746 0.939279 0.806370 -0.183374 -0.062690 0.857187 1.231034 0.001006 -0.852948 -1.409922 -0.398649 -0.293138 -1.626021 -1.460712 -1.970430 -1.762289 -1.387009 -1.788329 -1.393240 -1.564616 -1.377306 -1.640317 -1.275844 -1.013061 -1.254656 -1.009655 -1.653170 -1.864547 -1.642160 -1.550958 -0.553800 -0.398506 -0.558135 -0.173851 -0.409384 0.114164 -0.488315 -0.609745 -0.244759 -0.125619 0.525224 -0.272182 -0.315725 0.287718 0.405415 0.663564 0.550801 -0.172740 -0.119724 -0.083481 0.352935 0.246115 0.334525 0.226301 -0.398666 0.865651 1.039980 1.123646 1.703725 1.190142 0.798124 1.012982 1.674460 3.122778 1.908496 1.602285 0.773947 0.556452 1.104104 1.215743 2.103783 1.557841 0.620749 1.112773 1.642391 1.815162 2.048855 2.220190 2.374334 2.625272 1.959356 1.731967 1.109931 1.702163 1.886357 1.564089 0.644952 0.417811 -0.106832 -0.209879 0.504731 -0.228206 -1.044810 -1.879573 -1.444044 -1.041911 -1.371348 -1.444632 -1.778343 -1.666765 -0.893509 -1.561160 -1.878994 -0.858124 -0.768151 -0.653592 -0.097196 -0.417940 0.469130 0.493038 0.672727 1.169639 0.499882 0.491986 0.737307 -0.342538 -0.834516 -1.205616 -0.730209 -1.023008 -1.006162 -1.471843 -1.296909 -1.512967 -1.358536 -1.706564 -1.337768 -1.917309 -2.095628 -2.090290 -1.791208 -2.519310 -2.525661 -2.025466 -1.648050 -0.872886 -1.430705 -2.125352 -1.810844 -1.512111 -1.162591 -1.508052 -1.925165 -1.884723 -1.751057 -1.090847 -1.003053 -0.293629 -0.709932 -0.711806 0.563213 0.690452 1.246621 0.987614 0.220883 0.352121 1.178669 1.002357 0.892429 0.472175 1.213451 1.390203 1.679602 0.480155 0.242972 0.098816 0.326026 0.029482 -0.641025 -0.720400 -0.904300 -1.218610 -0.496027 -0.287418 -0.055243 0.219042 0.147089 0.629690 -0.136793 -0.202533 0.347439 0.176098 0.052816 0.446255 0.057471 0.299908 0.601411 1.209905 1.097003 1.588961 1.637846 2.162119 2.298609 2.614901 2.760564 3.473080 2.994012 3.250503 2.941456 3.343116 3.051093 2.821023 2.052668 1.810185 1.928511 1.747880 2.031887 1.066168 0.410015 0.364504 -0.115974 0.394203 1.029192 1.032120 1.554597 1.049472 1.298467 0.515925 0.659078 0.148248 0.897002 0.900928 0.339494 -0.179856 -0.287026 -0.128957 0.925848 0.424330 0.756299 0.376172 -0.232005 -0.096343 0.496350 0.589152 0.611345 -0.560205 -0.216708 0.394829 0.916815 0.195150 -0.170667 -0.476162 0.452801 0.874040 0.396933 -0.658604 -0.686608 -0.081393 0.044696 -0.602299 -0.309395 -0.855489 -0.714211 -0.427727 -0.772889 -0.114939 -0.517058 -0.446744 -0.347787 -0.356072 0.034629 -0.327339 -0.439061 0.429667 0.757211 -0.183663 -0.709015 0.534509 0.298264 0.777801 0.143793 0.065132 0.112583 -0.481222 -0.030539 0.210870 0.125234 -0.137473 -0.313450 -0.020486 -0.543056 -0.286768 0.266906 -0.365267 -0.793105 -1.183593 -0.609200 -0.338789 -0.224137 -0.241677 0.223775 -0.110588 0.164523 0.070365 1.421656 0.944615 1.259602 0.655169 0.418394 0.757590 1.059020 0.796588 0.707455 -0.197245 -0.531721 -0.766165 -1.062174 -1.076250 -1.507125 -1.499558 -0.586510 -1.021985 -0.672428 -0.820226 -1.855762 -0.989260 -0.593771 0.096901 -0.353855 -0.721542 -0.854338 -0.370973 0.133389 -0.037827 -0.366082 -0.526996 -0.847800 -0.693867 -0.510230 -0.684593 -0.429452 -0.445455 -0.758456 -0.371879 0.240647 0.846402 0.749902 -0.166776 0.219808 0.438799 0.642566 0.565956 -0.220946 -0.140793 0.402671 0.654756 0.405896 -0.131009 -0.158010 0.057682 -0.087195 -0.614826 -0.735885 -0.667611 -0.653733 -0.227863 0.497373 0.423968 0.105715 -0.387357 -0.190216 -0.516019 0.029549 0.075353 -0.364569 -0.697875 -0.438681 -0.042430 0.480513 0.592267 0.279158 0.431132 0.120591 0.402259 -0.583062 -0.614576 -0.470330 -0.343522 -0.270007 -0.565880 -0.149813 -0.422675 -0.511329 0.208609 0.371811 0.261628 0.305283 0.169044 0.268108 -0.041186 0.915953 1.140918 0.746326 0.862008 0.545292 0.487935 0.551784 1.302685 1.655857 1.396653 1.096172 1.441931 0.802084 0.589162 1.227504 1.843971 1.895644 1.838281 1.308750 1.073931 1.148086 2.275705 2.931350 3.058222 1.955742 1.461401 1.242661 1.885383 2.293338 3.002739 2.513783 2.584971 2.847323 2.201525 2.390354 3.027884 3.640064 3.809330 3.106086 2.652997 1.794735 2.659497 3.813859 4.066871 4.104547 3.139791 2.694772 2.746142 2.914104 3.518317 2.803504 2.852473 2.727014 2.218873 1.653729 1.848763 1.557168 1.712572 1.724722 1.883181 0.535830 -0.140692 0.073825 0.438971 1.452856 0.485889 -0.675355 -1.074233 -1.712104 -1.040585 -0.742784 -1.258927 -1.296544 -1.591235 -1.500346 -1.416609 -0.754861 -0.080751 0.156591 0.113510 -0.024873 0.112807 -0.584020 -0.146724 0.067147 -0.077703 -0.392471 -1.550200 -1.730083 -1.798781 -2.245169 -1.258649 -1.105285 -1.075499 -1.217537 -2.091437 -1.034689 -0.333185 -0.178904 0.455855 0.374043 1.331957 1.591699 1.334501 1.254765 1.954349 1.847324 1.338189 1.282449 0.849852 1.015632 0.881092 1.470685 1.068678 0.349620 1.161227 0.933796 1.796941 1.967290 1.707220 1.992380 2.422399 2.750492 3.587464 2.973603 2.004941 2.314987 1.847291 0.710231 0.410142 0.181924 0.643205 -0.015575 -0.104516 -0.306300 -0.085661 1.370243 1.807434 1.481006 0.817260 -0.075695 0.504594 1.128694 0.104231 0.293806 -0.056645 -0.427235 -0.367704 0.107164 0.350971 0.462229 0.171069 0.200631 0.277142 0.122796 0.134440 0.206205 -0.080104 0.034303 0.673950 0.330718 -0.338567 0.111412 -0.414074 -0.379756 -0.676637 -1.135763 0.051447 -0.402162 -0.965044 -0.852253 -0.685645 -0.053655 0.287873 -0.146052 -0.723966 -0.051412 0.379947 0.382668 0.072428 -0.605743 0.121620 0.467956 -0.530664 -0.700225 0.113392 0.411063 0.597106 0.516952 0.275594 0.129000 0.677111 0.400343 0.982013 0.375266 0.846732 1.406357 1.248470 0.735331 1.185070 1.371449 0.801765 1.046873 0.909943 0.411140 0.307019 -0.647756 -0.511012 0.005403 -0.040095 -0.649682 -1.175677 -0.832852 -0.841776 -1.613366 -1.582177 -2.202812 -2.287572 -2.973762 -3.080056 -3.469721 -2.932609 -3.097215 -2.962386 -2.562738 -2.683904 -1.954067 -1.646271 -0.835452 -0.604236 -0.291118 -0.854688 0.327613 0.203689 0.437185 -0.185539 -0.050727 0.490668 1.045625 0.218198 0.476313 0.939180 1.556758 2.324321 1.898411 1.931992 2.132101 1.371843 2.014527 1.539063 1.228302 1.094303 0.468409 0.756934 1.374036 1.160296 1.795517 0.668657 1.750195 2.207432 1.489934 0.925327 0.929984 0.923402 0.325604 -0.121428 -0.470947 -0.422857 -0.422095 -0.564590 -0.836173 -0.497509 -1.240070 -1.275408 -2.094842 -1.636281 -2.178406 -2.459660 -1.911539 -2.155232 -3.186303 -3.080276 -3.041801 -2.292956 -2.610319 -2.986756 -2.819404 -3.004306 -3.942415 -3.223714 -3.600609 -3.942909 -3.971048 -3.916247 -3.897779 -3.981702 -3.814767 -3.785308 -3.923224 -4.504928 -4.195964 -3.712162 -3.458360 -4.245298 -4.150428 -4.440244 -4.434892 -4.455906 -5.102070 -4.558449 -4.733684 -5.756131 -5.625575 -5.858460 -5.619170 -6.145179 -6.470957 -5.803353 -6.259657 -5.279922 -5.146386 -6.424333 -5.945486 -5.772027 -4.742129 -3.881705 -4.443789 -5.134910 -4.544056 -5.078021 -5.022499 -5.183451 -4.844497 -4.855974 -5.047617 -4.876428 -4.994124 -4.386544 -4.061031 -4.019544 -3.302347 -3.101778 -3.454816 -3.557042 -3.425915 -2.883338 -3.076148 -2.738471 -2.742719 -2.883971 -2.240882 -2.493233 -2.193386 -2.724798 -2.625573 -2.445475 -2.020966 -1.009680 -1.123402 -1.473495 -0.521541 -0.884690 0.083393 0.446513 0.806232 1.416239 -0.055659 -0.574134 0.855428 0.613376 1.120602 -0.061337 0.170121 0.138524 0.149390 -0.182353 -0.095720 -0.059110 0.489452 0.589467 1.458834 1.204559 2.131547 2.273400 3.029939 3.085331 3.838594 4.195000 3.867647 3.722797 2.963220 3.079573 3.598889 3.498495 4.114175 4.072804 3.126977 3.129364 4.138782 4.605968 4.230019 3.743760 3.337778 3.021557 2.878577 2.431240 1.991809 1.363893 1.716292 1.512467 1.801177 0.994647 0.740941 0.222863 0.701619 0.376323 0.525406 -0.263016 -0.082676 -0.583211 -0.004001 0.092414 0.015387 0.073228 0.220166 0.131126 -0.161102 0.235082 0.084031 -0.283749 -0.450795 -0.881601 -0.626122 0.445619 -0.895546 -0.999583 -1.438205 -1.761694 -1.017988 -1.866714 -1.683944 -1.643704 -1.528039 -0.907704 -1.308257 -1.289740 -2.157173 -1.656476 -1.204931 -1.888356 -2.033774 -2.568264 -1.660316 -1.572708 -1.741872 -1.911703 -1.270171 -0.920563 -1.183156 -0.584173 -0.877528 -0.901323 -0.938558 -1.662245 -1.020806 -0.686630 -0.542578 -0.299065 -0.948766 -0.682602 -0.383068 0.433479 -0.235171 -0.469829 -0.165462 -0.792691 -0.050798 0.204155 -0.605248 -0.685777 -1.341633 -1.019117 -0.673087 -1.071157 -0.484130 -0.865591 -0.946080 -0.951437 -1.315106 -0.786587 0.105881 -0.479935 -0.031372 -0.635015 -0.598118 -0.222976 -0.487702 -0.576012 -0.510450 -0.639577 0.559878 0.358035 0.500371 1.049745 0.879733 0.994919 1.445767 1.470934 2.052258 1.931536 1.522840 2.092722 1.371577 0.656657 1.442768 0.041647 1.133395 0.761054 -0.589685 0.020226 -0.039070 0.125813 0.368515 0.586745 1.106369 1.380728 0.753708 0.897689 0.803320 0.736123 0.424975 0.568966 0.586476 0.664316 0.382343 0.707577 1.093190 2.039740 1.249528 1.895326 1.358227 0.816577 0.384788 0.879972 0.582098 0.513057 0.706315 0.806911 0.966450 1.042471 1.147096 1.227426 1.675928 1.652895 2.590053 2.764478 1.496451 2.159159 1.861584 1.911993 2.665436 2.205832 1.916461 2.141350 1.792304 2.020885 2.166025 1.844898 1.794264 1.534645 2.369863 2.398050 3.190010 2.643680 2.211624 2.653315 3.125713 2.779326 3.873575 2.339007 2.573232 2.573999 2.938883 2.729438 3.172919 3.123981 3.450218 3.412837 3.198464 2.851619 3.144353 3.051477 3.855351 4.323197 4.471356 4.132566 4.067839 4.155640 4.467411 4.523911 4.461325 3.554758 4.064623 4.740772 5.329396 5.345197 5.059331 5.624396 5.120878 6.183913 5.758297 5.080304 5.062894 4.015100 3.552778 2.939392 2.468637 3.197022 3.046988 3.404065 2.873824 2.442425 2.755839 2.402577 2.526396 2.434247 2.623845 2.525885 2.010760 2.067470 2.675997 2.624013 2.504532 3.230020 2.174735 2.231887 2.532990 1.897004 1.582421 1.291274 1.867191 2.876160 2.295358 2.019611 1.833284 1.785391 2.331360 2.761511 3.022873 2.242031 2.043004 2.193741 1.525567 2.217504 2.239732 1.073433 0.704198 0.191052 0.049025 0.179737 -0.469407 0.143294 -0.161140 -0.909814 0.060505 -0.085532 0.380474 0.542755 -0.087358 0.240076 0.301199 0.582434 0.761653 1.652611 1.545565 1.796691 1.913968 2.331671 2.957199 3.629426 3.989322 3.440190 2.444110 2.275297 2.828514 2.113278 0.938421 0.394947 -0.217870 0.130207 -0.417586 0.030645 0.862628 0.135321 0.128578 0.903192 0.877090 1.808313 1.276068 1.491018 1.108939 0.686033 -0.079609 0.695919 0.613195 0.328936 0.045148 -0.608263 -0.907708 -0.190422 0.595535 0.846136 0.208762 -0.337821 -0.349604 -0.262551 0.539123 0.608145 0.025883 0.063422 -0.206307 -0.472707 -0.165851 0.773379 0.556992 0.622858 0.195933 0.526141 0.208555 0.705087 1.399425 1.691262 0.516779 0.111449 -0.569029 -0.207961 0.059410 -0.058635 -0.842096 -1.605122 -1.694909 -0.882395 -1.211387 -1.586900 -1.380005 -0.987482 -0.162234 -0.280852 0.232656 0.661196 0.578005 1.261208 1.664814 1.014138 0.690649 -0.423499 -0.686292 0.459877 0.205909 0.295867 -0.181785 -0.440359 -0.025183 0.042945 0.016765 0.491878 -0.569466 -0.645544 -1.011082 -1.331023 -0.669382 -0.793917 -0.660750 -0.096713 -1.020658 -0.138568 -0.153554 -0.391911 -0.837477 -0.847054 -0.647540 -0.795370 -2.087381 -1.843498 -2.284968 -2.078438 -2.378794 -2.379218 -1.475333 -1.180966 -1.712645 -2.204697 -2.141635 -1.552089 -1.068041 -0.267133 -0.065531 -0.550208 -0.711864 -0.044394 0.072455 0.997554 0.972532 0.257998 0.126898 0.382160 0.705634 1.183120 0.139824 0.265659 -0.534160 -0.495745 -0.645512 -1.002378 -1.639887 -1.460024 -1.466323 -2.000553 -1.474148 -1.084713 -0.799522 0.037004 -0.345863 0.504061 0.791394 1.106532 2.246239 1.666754 1.424260 1.496831 0.512044 -0.012592 0.495471 0.588927 0.146510 -0.311041 -0.121171 0.532943 -0.274831 -0.060994 0.416165 0.370889 0.636216 0.234069 -0.545400 -0.866022 -1.029600 -0.275385 0.177879 -0.164619 -0.147486 -0.283678 -0.656367 -0.543534 -1.036653 -1.031500 -0.462397 -1.057911 -2.006634 -2.854310 -3.093142 -3.140889 -3.634463 -3.574727 -3.740951 -3.281267 -3.502961 -3.925067 -3.927137 -3.804579 -2.925894 -2.734953 -2.258661 -2.585347 -3.149122 -2.604050 -2.514471 -2.465824 -1.720379 -1.631728 -1.633628 -2.290711 -3.139599 -3.042864 -3.718735 -2.591494 -3.241158 -3.236758 -3.893993 -4.082769 -4.274448 -3.660287 -3.119561 -2.655534 -3.336603 -2.682032 -2.943842 -2.381800 -2.534850 -2.069470 -1.759286 -1.168162 -1.160420 -0.845252 -1.951291 -1.998573 -1.480455 -1.581044 -1.551425 -1.358943 -1.703849 -1.907885 -2.174134 -2.675954 -1.742486 -1.552772 -1.123545 -1.082643 -1.582641 -1.174820 -0.876380 0.038851 1.724307 1.356787 1.342845 1.041738 1.176228 2.592771 2.223899 2.265307 1.993311 1.154697 0.730144 0.343782 0.889279 1.301874 1.138216 0.209353 0.523180 -0.053756 0.705624 1.054140 1.742054 1.609714 1.262076 0.677691 0.902180 0.327797 0.308701 0.800142 0.231662 0.550128 -0.240448 0.229331 0.141880 0.323266 0.373697 -0.128157 1.278426 1.119122 1.241389 0.590466 0.921260 1.899343 2.117606 1.719110 1.816837 1.193826 1.274376 1.844516 1.647616 1.327070 0.397704 -0.528518 0.014287 0.016915 -0.080995 -1.296160 -1.394430 -0.983115 -1.363648 -1.178548 -1.043150 -0.555870 0.126118 0.110223 0.432218 0.680198 -0.158738 0.026626 0.162030 -0.066303 -0.149964 -0.972358 -1.163965 -1.005993 -1.267566 -0.484907 -0.890004 -0.989342 -0.094872 -0.167359 -0.280003 -1.194742 -0.784544 -0.665071 -0.317832 -0.149053 -0.011285 -0.098876 0.266775 1.080537 1.357265 2.040262 2.115840 2.066837 1.779842 1.611602 1.488637 1.702199 1.877658 2.561553 1.562242 1.619907 1.156032 1.773246 1.901297 2.158387 1.610225 1.985122 2.026299 1.932036 2.576328 1.465157 2.335752 2.817263 2.213384 2.548548 2.989056 2.921679 2.965917 2.888074 4.093455 4.197621 3.997791 3.754679 4.653229 3.889266 4.335890 4.348939 4.337540 3.812627 4.157923 4.542250 4.498760 4.362731 3.897625 4.288867 3.296806 2.850507 2.517324 2.850918 2.964145 2.208373 1.671372 2.185252 1.957351 2.193766 2.195844 2.107034 1.600640 1.413039 1.460417 2.415125 1.167596 2.060855 2.229510 1.993876 1.651942 1.779587 1.895505 1.665779 0.972954 1.177223 0.717767 0.270172 -0.221734 0.074780 0.014277 -0.149573 -0.642470 -1.274114 -0.795687 -1.006731 -0.440762 -0.473672 -0.328458 -0.327965 -1.102627 -0.791386 -0.647375 -0.526856 -0.546981 -0.724876 -1.489154 -1.322765 -1.378030 -0.745557 -1.094443 -0.920378 -0.661061 -0.782670 -0.878424 -1.042767 -0.538228 0.470457 -0.076894 -0.131659 -0.698345 -0.082317 -0.186618 -0.782095 -0.750510 -2.103719 -1.807310 -1.914087 -2.246637 -2.116223 -2.795905 -2.257960 -1.635299 -2.514759 -2.025945 -1.608422 -1.581542 -1.353397 -1.058648 -0.388066 -0.681328 -0.969186 -0.548195 -0.472982 -0.526512 -0.706756 -0.912716 -1.197048 -1.855097 -1.524315 -1.652971 -2.034741 -1.977337 -2.008589 -2.145975 -2.301606 -2.001628 -1.962324 -1.781421 -1.445822 -1.578883 -0.658458 -0.118648 0.047684 0.065827 0.123938 0.466812 1.171971 0.962800 -0.114683 0.099727 -0.116299 -0.087726 0.066428 -0.531019 -0.918018 -1.415397 -2.093896 -0.827091 -0.891024 -1.135337 -1.792734 -1.336948 -0.562843 0.423256 0.610059 0.828558 0.525235 0.043519 0.170270 0.813361 0.298450 0.063227 -0.494415 -0.643682 0.213523 -0.097286 -0.424661 -0.688291 -0.158861 0.738838 -0.132021 -0.356671 -0.569244 -1.423355 -1.123849 -1.439607 -0.965235 -1.384213 -1.968304 -2.470428 -2.647920 -2.987895 -3.231062 -2.934516 -3.214836 -3.268801 -3.669887 -3.887097 -3.335527 -3.028425 -2.906728 -2.754064 -3.451906 -3.162599 -3.731268 -3.013064 -3.605127 -3.557544 -3.299862 -4.041549 -3.881279 -3.551038 -3.333935 -3.266884 -3.673880 -3.439300 -2.812571 -3.816998 -3.473964 -4.126638 -4.075260 -2.817987 -3.194970 -3.669510 -4.647266 -4.466409 -3.544835 -2.728871 -3.160661 -2.851958 -2.903951 -2.730961 -2.656828 -2.829346 -2.597539 -2.280933 -2.396807 -2.999410 -2.646434 -1.998543 -2.033458 -1.652376 -1.126334 -0.927326 -0.239690 -0.309825 -0.642272 -1.137552 -1.067472 -0.944390 -0.346678 -0.897881 -0.972887 -1.104708 -1.524123 -1.425508 -1.254525 -1.508556 -1.149519 -1.562533 -1.406166 -1.801255 -2.039288 -2.326601 -0.653548 0.315192 -0.089492 0.022048 0.279629 0.592652 1.279607 1.230064 1.296112 1.452243 1.083448 1.081656 1.729559 1.700153 1.416401 1.303060 0.987392 1.094810 0.842770 0.963398 0.611592 0.213418 0.519776 1.151111 0.865901 0.413252 -0.182487 -0.343304 0.031627 0.311559 0.176027 0.070533 0.461893 0.594614 0.557716 0.601770 1.322747 1.485408 1.439652 1.079726 0.794865 0.562346 0.494450 0.739356 0.476888 0.645666 -0.013680 0.472405 0.082712 0.438412 0.974018 1.414918 1.012342 1.271089 1.956207 1.806465 1.373892 1.644153 1.775601 1.844287 1.900229 1.488364 1.277880 -0.084249 0.072887 0.533095 1.221942 0.607392 0.184832 0.090001 0.170880 0.318483 0.630576 1.031486 1.494603 1.143075 0.294376 0.749995 0.941656 1.031300 1.329708 0.789014 0.755201 0.647650 0.622526 1.388789 2.070870 1.932215 1.788780 2.034977 1.941496 2.838327 2.963001 3.765370 3.707765 2.936990 2.761555 2.459129 1.456173 2.312582 2.644142 2.574776 1.790165 0.527828 0.817069 1.577057 1.588408 2.390862 2.505539 2.223740 3.223002 2.560921 3.011561 3.377783 3.580707 3.745679 3.447755 3.226516 2.532943 2.563741 3.147144 3.278969 3.488051 2.726482 3.346381 3.386796 3.754264 3.521519 4.231595 3.996735 4.520864 4.267244 5.182136 4.941937 4.500742 4.846909 4.879859 4.951733 4.912015 4.678309 3.962233 3.894495 4.239979 3.713986 3.168818 2.854842 2.352280 2.844238 2.817435 3.312284 3.641819 2.955101 3.217368 3.726311 4.451112 4.845832 4.872133 4.043535 3.816834 3.875499 4.353640 4.390938 3.540656 3.020214 3.603060 3.135591 3.827818 3.075344 2.877120 2.794356 2.917142 3.118462 2.704638 2.582251 2.670399 2.577283 2.368945 1.548341 1.600654 1.420545 1.342686 0.907561 0.083655 0.215089 0.206539 0.576122 1.105894 1.252973 1.629466 0.689087 0.782093 2.012965 2.259445 1.781720 0.894649 0.569758 0.365582 0.991661 1.051861 0.799601 0.379659 0.424570 0.321612 0.338120 0.369467 0.362656 0.690261 1.418691 2.168361 1.857288 1.393419 1.622090 2.665694 3.323608 3.219269 2.404708 0.362634 0.546890 0.738178 1.354237 1.977638 1.057306 0.476373 0.594393 0.420889 1.235705 1.222172 0.675961 0.896885 1.410093 1.168526 0.635788 0.037956 -0.780467 0.188819 0.294417 0.509115 -0.255787 -0.874828 -1.026317 -0.247481 0.934679 1.213712 1.399171 1.066753 0.560849 0.634330 1.217901 1.443740 1.266963 0.748303 0.850094 0.871208 1.012674 1.585389 1.419223 0.956319 1.153127 1.715994 1.027729 0.383803 0.149759 0.130585 0.190087 0.267826 -0.215204 -0.087546 -0.708414 -0.686331 -0.365886 -0.449720 -0.628105 -1.746053 -1.738903 -0.874110 -1.341239 -0.454638 -0.754579 -0.297708 -0.132071 0.354613 1.558914 1.685827 1.926416 2.083249 2.250079 1.563055 1.382252 1.966813 2.738061 2.661720 1.601546 1.480246 0.993754 1.413717 1.693946 1.710687 1.574993 1.722941 2.212299 2.168534 2.570732 2.789895 3.575765 3.469564 3.612643 3.068474 1.987420 2.231293 2.087795 2.352539 1.257394 1.056732 1.406359 1.172747 1.277877 1.143591 1.068803 0.443550 -0.016398 0.405316 -0.785912 -0.604831 -0.737236 -1.146550 -0.976537 -1.683977 -1.666145 -2.009601 -1.598990 -0.881217 -1.260729 -1.512847 -1.597898 -1.677831 -1.546590 -1.585859 -1.317968 -1.329774 -1.836596 -1.761168 -2.366938 -3.405422 -3.246040 -3.536829 -2.595299 -3.733742 -3.621142 -2.622089 -2.927140 -2.363095 -2.700831 -3.115721 -2.509475 -2.862260 -2.248269 -2.574238 -3.072467 -3.022870 -2.852330 -2.841820 -3.076498 -2.618352 -2.071028 -2.676532 -2.403808 -2.672627 -2.204517 -2.161455 -2.622552 -2.528039 -2.360086 -2.532296 -2.360579 -2.246258 -2.229733 -1.712232 -0.787230 -1.382675 -1.582224 -2.327354 -1.338312 -0.472840 -0.403148 -0.890112 -1.245347 -1.029321 -0.656670 0.248404 0.836267 -0.076054 -0.248823 -0.928487 -0.739338 -0.559914 -0.368116 -0.779698 -0.912283 -1.309684 -0.762299 -0.317422 -1.010897 -0.411729 0.843866 0.585814 0.830126 0.494361 1.048283 1.653929 2.372484 2.418621 1.187081 0.743630 0.574545 0.682367 0.755813 0.879933 0.917438 0.642744 0.459440 0.310036 0.333421 -0.019425 0.670457 0.413484 0.571046 -0.303027 -0.182909 -0.535729 -0.964998 -1.100270 -1.387872 -0.823495 -0.869063 -1.060792 -1.040441 -0.634441 -0.652345 0.119893 -0.225932 -0.099250 0.081139 0.263035 -0.060978 -1.065489 -1.284319 -1.780965 -0.460441 -0.310944 -0.845301 -0.624475 -1.455343 -0.793587 0.126793 0.165721 0.646657 -0.594788 -0.790421 -0.975516 -0.934397 -1.252239 -1.325705 -1.926624 -1.811739 -2.326856 -2.516725 -2.320624 -2.190517 -1.917029 -1.245453 -1.238710 -0.977161 -1.414058 -1.139423 -0.294911 -0.150318 -0.003894 -0.186108 -0.610900 -0.299881 -0.413976 0.511229 0.614015 0.581654 0.702117 0.792286 0.950123 1.407087 1.884188 1.700556 2.219037 1.892298 2.201675 1.913851 2.236274 1.871896 2.851240 3.288234 3.683978 3.374191 2.679929 2.711595 4.262328 4.012143 4.233320 3.234263 2.339704 2.208888 2.500631 3.077855 3.263175 3.473351 3.115983 3.801692 3.931892 4.372101 5.324929 5.488701 4.907377 4.872391 4.567716 4.309969 4.308879 3.528624 3.426545 4.096373 3.236823 3.913262 3.523945 4.162084 3.207903 3.612819 3.409808 3.800173 3.957846 3.120461 2.600540 2.065696 2.157225 2.292799 2.796197 2.522070 2.048293 1.683446 1.421009 1.751334 1.713430 1.487841 0.853011 0.792764 0.656983 1.313465 0.556657 0.815970 1.091567 0.813447 0.851370 0.335297 -0.386314 0.082691 0.198706 -0.530581 -1.394479 -1.886977 -1.808852 -1.884241 -1.703137 -2.136218 -2.102497 -2.446053 -1.763906 -1.514442 -1.287628 -1.925981 -1.431648 -1.486155 -1.786253 -1.777994 -1.532805 -1.821001 -1.705786 -0.910959 -1.133599 -1.594378 -1.478426 -1.097731 -0.771491 -1.094070 -1.458458 -0.953641 -0.979944 -1.924139 -1.522054 -1.837020 -1.508614 -1.306346 -2.183479 -1.837130 -2.122961 -2.391187 -1.997581 -2.150357 -2.069686 -1.387351 -1.000433 -0.404601 -0.498237 -0.269333 0.405979 -0.454062 0.223158 -0.730076 -0.094818 0.021118 0.368875 0.272495 0.240900 -0.224182 0.925191 0.729579 0.928343 1.642950 1.734656 1.451951 1.686846 0.714494 1.728232 1.551133 2.284708 2.862829 1.579317 1.570068 0.539813 0.423144 0.981992 0.512164 1.180984 0.482809 -0.527810 0.349605 0.450425 1.247334 1.646164 1.503448 1.794399 1.793863 1.264350 2.089074 1.641484 1.611333 1.600639 1.219350 0.882554 0.755315 0.634673 0.625582 0.703528 1.041395 1.910486 2.147856 1.587572 2.529625 2.840561 3.047333 3.655666 3.088134 3.318888 3.381021 2.339304 2.555524 2.525852 2.215109 2.500967 1.553458 1.595754 1.588044 1.788390 1.905730 2.222413 1.439311 1.020875 1.200122 0.584675 0.587161 -0.232598 0.130778 -0.552802 -0.609278 -0.068312 -0.617547 -0.283060 -0.399110 0.103232 0.487431 -0.075675 -0.043837 -0.124855 -0.178755 -0.422223 -0.380571 0.008767 -0.709477 0.011666 -0.167668 -0.388296 -0.148743 -0.048565 0.250611 0.126515 0.275500 0.819782 0.555391 0.434950 -0.348933 -0.152777 -0.351343 -1.621198 -0.892384 -2.059716 -2.208098 -2.118140 -2.227923 -1.525922 -2.118649 -1.333172 -2.068882 -2.298910 -2.071175 -1.656770 -0.993994 -0.943516 -1.467322 -1.252196 -0.662035 0.042742 -0.821668 -0.501342 -0.606959 -0.642934 -0.872070 -0.845436 -1.323076 -1.032585 -1.968571 -0.930816 0.132457 -0.712664 -0.345657 -0.954463 -0.916772 -0.029495 0.526296 0.600092 0.619656 -0.922931 -0.174973 0.128112 0.217018 -0.182043 0.229247 -0.266550 -0.674633 -0.290302 -0.871099 -0.770434 -0.162583 0.129292 0.251799 0.440395 0.057682 0.174863 0.948785 1.210170 2.072116 2.153868 2.258352 2.008846 0.828191 1.322155 1.168368 1.257682 0.138237 0.490338 0.128584 -0.212810 0.236722 0.490843 0.573564 0.879153 0.520763 0.885080 0.726511 0.807677 1.544733 1.272093 1.610482 1.283613 1.771522 2.156981 1.825535 1.847884 1.032543 1.132922 0.616394 0.724495 0.931278 0.312340 0.610711 0.459310 0.377418 0.830932 0.867079 0.616138 -0.025041 0.664288 1.089576 1.449115 0.955215 0.751248 0.717308 1.318646 2.080222 2.095365 2.184114 1.182808 1.666000 1.208042 1.201650 1.462062 1.090838 1.224979 1.295192 0.604866 1.036321 0.672604 1.477531 1.996034 2.034165 1.744926 2.087349 2.324073 2.778586 3.044328 2.750777 2.601838 2.561817 2.990687 3.477363 2.825444 2.438392 2.311664 3.050702 2.693436 2.053649 1.361528 1.499725 1.319264 1.093972 1.154606 1.476943 0.570781 1.358511 0.990161 1.209333 1.630406 1.036402 1.598601 1.249898 1.528504 1.301852 0.771582 0.786485 1.047132 1.059230 0.679758 1.341929 0.923535 0.665360 0.968692 0.868235 1.056565 1.186181 0.605958 0.880326 0.205922 1.266475 1.581741 1.423842 1.273586 1.588180 1.476014 2.605607 3.274047 3.126327 3.076122 3.810474 3.206624 3.831674 3.247803 3.000485 3.227352 2.854871 2.600473 2.351209 2.548071 2.663426 3.142498 3.602661 4.191072 4.070869 4.324067 4.239874 4.434233 3.964691 4.814342 4.464210 4.292581 3.636151 3.223798 2.845037 3.205138 2.118845 2.388015 1.302519 0.537300 0.011011 -0.369193 -0.056614 0.301279 -0.269252 -0.009487 0.307781 1.616506 1.685252 2.717288 2.252347 1.674364 1.645325 1.593922 1.488872 1.303624 1.215001 0.546396 0.863548 0.966659 1.244897 1.867108 1.653774 1.361607 1.803499 1.666044 1.658395 1.183862 0.301579 0.100937 0.198444 0.723904 -0.607585 -0.372776 -1.056316 -0.715823 -0.844186 -1.258495 -0.978231 -0.575606 -0.876251 -0.880655 -0.995279 -1.607846 -1.508386 -1.304995 -0.855155 -0.739942 -0.414683 0.255810 -0.509340 0.421989 -0.070216 0.199785 0.113998 0.418432 0.418411 0.031083 -0.473987 -0.379812 -0.256238 0.335430 0.444607 0.306583 -0.358393 -0.949649 -0.574917 -1.169904 -0.820213 -0.415469 -1.200136 -1.139587 -1.475546 -1.686844 -1.215813 -0.171319 -0.516151 -1.424974 -0.584921 -0.577659 0.156252 0.548366 0.165705 0.350770 -0.049106 0.647364 1.778902 1.208488 1.430273 0.744140 0.596320 1.320102 0.653690 0.676176 0.331389 0.487506 0.632529 1.162958 1.312580 0.905431 0.939815 1.653725 1.871201 2.481670 1.923974 1.592179 1.376336 1.114927 1.139491 2.498557 2.713767 3.156650 2.312017 2.478353 2.348124 3.162314 3.288294 3.700344 2.389607 2.539764 2.510883 3.114963 3.229628 2.621925 2.040060 2.596309 2.271626 2.956556 2.966479 3.115020 2.585753 2.208517 2.829435 2.799795 3.747630 3.091753 2.225018 2.090886 1.994372 1.333212 0.849564 1.133244 0.818982 1.394038 1.445065 1.237799 0.549958 0.748399 1.458769 1.944432 1.895125 2.704680 1.636113 1.838712 2.519089 2.678081 3.507426 2.614204 2.990097 3.614017 2.928364 2.763669 3.276573 3.012579 3.255515 3.147880 3.007086 2.432221 2.491404 2.415433 1.751353 1.051132 0.122706 0.291629 0.548654 0.019878 0.323104 -0.479132 -0.846371 -0.261987 -0.387875 -0.189080 0.058488 0.245042 0.679485 0.351801 -0.955100 -0.300363 0.096892 0.596112 0.565097 0.534328 0.012950 0.474341 -0.303723 0.379764 0.547569 0.548825 0.519579 -0.230333 -0.321120 -1.523431 -1.393722 -1.561194 -1.081323 -1.005672 -0.634271 -0.693322 -0.715392 -0.837729 -0.921505 -0.855576 -1.200320 -1.282148 -1.339495 -2.280162 -2.534706 -2.972744 -3.037266 -2.320211 -2.340912 -2.376663 -1.053417 -0.929935 -0.966364 -0.730098 -1.070341 -0.165787 -0.488278 -0.237383 -0.967763 -1.724280 -1.360997 -1.456548 -0.967249 -2.039132 -1.796199 -1.683423 -1.029783 -1.028248 -1.035319 -0.770590 -1.574893 -0.983493 -0.515438 -0.268787 0.792887 0.036465 -0.496778 -0.313856 -0.745693 -0.837741 -1.130486 -0.748237 -0.983952 -0.746670 -0.992960 -1.099934 -1.290131 -0.741794 0.480361 0.424660 -0.150492 0.795845 -0.084861 0.102981 -0.236891 -0.353202 0.261493 0.275985 0.735738 0.939121 -0.104685 0.917629 0.547632 1.177279 1.527722 1.222315 1.095250 0.906652 1.351645 1.635508 1.036003 0.473374 0.645483 0.356584 0.509340 0.886630 0.722420 0.670227 0.510324 1.168412 1.197439 1.448360 1.745268 1.650483 1.706557 2.371526 2.064199 2.226179 1.725163 1.341828 2.271632 1.800667 1.624228 2.017112 0.982506 1.166643 0.196985 0.469027 1.140048 0.410195 0.446520 0.368643 0.249337 0.427932 0.630384 0.336182 0.234888 -0.081949 -0.483166 -0.711324 -1.341499 -0.662264 0.203104 -0.437049 -0.298628 -0.869092 -0.756440 -0.930807 -0.703213 -1.124178 -0.927605 -1.905982 -1.468660 -1.871829 -1.889352 -1.536294 -1.181648 -0.486469 -0.837056 -1.024870 -0.610418 -0.403842 -0.167902 -0.127820 0.085853 0.001701 -0.159242 -0.780942 -0.423345 -0.216121 0.502430 -0.310067 -0.009776 -0.132504 0.639032 1.303330 1.812469 2.101328 2.117661 0.881160 1.475528 1.374327 0.637679 0.757863 0.562221 -0.512215 0.186642 -0.054731 0.362524 0.863961 0.399167 0.765582 0.364347 0.813699 1.135306 0.130852 0.713397 0.578493 0.620571 1.167938 1.248828 1.177765 0.922442 1.687757 1.547385 1.978333 1.587234 1.599077 1.147716 0.966962 0.305984 0.721623 0.963961 1.577221 1.173182 0.471340 0.553806 0.614493 0.971481 1.463838 1.876847 1.965860 1.395639 0.903744 0.659556 1.281734 2.110170 1.690989 1.848348 1.242292 1.034111 1.301697 1.260174 1.294516 1.309691 1.222941 1.293820 0.987112 0.133288 0.474082 1.383359 1.683290 1.074764 0.929083 -0.419868 -0.005882 -1.533289 -2.105990 -2.241558 -3.496071 -3.934070 -4.946509 -5.674656 -5.983000 -4.797541 -4.379088 -3.936725 -3.243517 -3.713058 -3.264773 -3.445932 -2.269301 -1.937981 -3.078006 -2.169536 -3.114049 -2.332295 -2.093046 -2.403026 -1.993010 -2.859650 -2.830414 -1.803673 -1.952765 -1.631121 -2.316573 -1.983394 -1.746960 -0.466004 -0.743073 -0.105715 -0.658610 0.085646 -0.349730 0.272428 0.536500 0.296707 0.526203 0.681759 0.015647 -0.485668 -1.307987 -0.375644 -0.247182 -0.253995 -0.684184 -2.623585 -1.883786 -1.704772 -1.138347 -1.120335 -1.864846 -1.908776 -2.871971 -2.936191 -2.984884 -2.841596 -2.601614 -2.148537 -2.673984 -3.588175 -3.979291 -3.827156 -3.247278 -3.410265 -3.494097 -3.887729 -4.078232 -3.206984 -2.905175 -2.431456 -2.493870 -2.439027 -2.751426 -2.394834 -2.681710 -2.150170 -1.865887 -2.079872 -1.843429 -3.145263 -1.754457 -1.068976 -0.480582 -0.170636 -0.251898 -1.455975 -0.835210 -1.029399 -1.130912 -1.634322 -1.432673 -2.002215 -3.077162 -3.270242 -3.370968 -3.369596 -2.335643 -3.100945 -2.924746 -2.757116 -2.167286 -1.663158 -1.201601 -1.876900 -1.761209 -1.989138 -1.896545 -1.498265 -2.042768 -2.317574 -2.181575 -2.814535 -3.661399 -3.130370 -2.534561 -2.468692 -2.398427 -2.752052 -2.713764 -2.371304 -1.074981 -1.221938 -1.375683 -1.664793 -2.010853 -1.554292 -1.914504 -1.867133 -1.875655 -2.386927 -1.771374 -2.166895 -1.755288 -1.430861 -0.925701 -1.244496 -0.936586 -0.940374 -1.443654 -0.450474 -0.614780 -0.683188 -0.416928 -1.616416 -0.759212 -0.964719 -0.662324 0.021950 -0.272466 -1.190610 -1.004913 -0.632858 0.368991 0.134191 0.351010 -0.415318 -0.142465 0.198128 0.387080 0.200328 0.110866 0.507061 1.235744 1.171925 1.251152 0.607659 1.016967 1.866529 2.250972 2.436913 1.632440 1.416500 2.210704 3.737887 3.353166 2.800616 2.315606 2.357704 3.158352 3.643843 3.598063 2.785086 2.560207 2.889272 3.330832 3.563268 3.352628 2.396042 2.006181 2.204183 2.666480 2.439619 1.641019 2.048515 2.608199 2.820039 2.764482 3.108387 2.333018 2.635829 3.558790 3.607673 3.053678 2.859571 2.467944 3.175212 3.995212 3.163404 2.703873 1.896610 1.462397 2.801723 2.434269 2.620765 1.439283 1.362384 2.051164 2.204159 2.858950 2.749144 2.996667 2.515312 2.742881 3.200980 3.075929 3.775880 3.210782 3.282041 2.955630 3.144531 2.961829 2.427857 2.605744 2.975633 2.373606 2.382653 1.677691 1.497567 2.521413 2.125368 3.043215 2.167325 2.443735 3.186860 2.944740 3.582779 3.498302 2.987740 3.869979 3.373668 2.871187 3.519363 2.818995 3.001540 2.817271 2.186064 2.175874 2.172371 1.977843 1.583105 1.262630 0.702518 0.200563 0.360046 0.192075 -0.126275 -0.719478 -1.170702 -1.345950 -1.168274 -1.413646 -1.684081 -2.144401 -2.162755 -1.442564 -1.583907 -1.182114 -2.528551 -2.728825 -1.715507 -1.932981 -1.544803 -2.767179 -3.585139 -3.457451 -3.327312 -3.396294 -3.812336 -3.617030 -3.508524 -3.248038 -3.419560 -3.850970 -4.164992 -3.571282 -3.452090 -4.081103 -4.584163 -5.594850 -5.752418 -5.961747 -6.512537 -6.012305 -6.373548 -6.752645 -7.108282 -7.496564 -6.943855 -6.204060 -6.503188 -6.785943 -6.996344 -7.079260 -6.521266 -6.193277 -5.803819 -5.163724 -5.763525 -6.075972 -6.715719 -6.478385 -6.779989 -6.771732 -7.824168 -7.346248 -7.869803 -7.181933 -7.594379 -7.176424 -6.965524 -6.553867 -5.778493 -5.653092 -6.222162 -6.535625 -6.869609 -6.625216 -6.016196 -5.808844 -5.974717 -5.798296 -5.511677 -5.667896 -5.175137 -4.864824 -3.889744 -4.924899 -4.900848 -5.537637 -5.466940 -4.736303 -4.181849 -3.559273 -3.696875 -3.779793 -3.083045 -2.849737 -1.478397 -1.477350 -1.437698 -1.574112 -1.739592 -0.845782 -0.998973 -0.629517 -0.926338 -0.515090 -0.326841 0.147446 0.446543 -0.042950 0.498551 0.431570 0.056995 0.422033 0.156841 0.492394 -0.067403 0.460841 0.717869 0.482883 0.188756 0.477016 0.888442 1.534478 1.237000 1.167642 0.586074 1.153971 1.828913 1.729591 1.355197 1.701621 1.664113 2.278847 1.229869 1.998701 1.880487 1.358057 1.407431 1.093202 1.615158 0.501388 0.478358 0.230272 0.132532 -0.072404 0.573014 -0.112236 0.283910 0.623679 0.486540 1.183642 0.539557 0.744588 0.462795 0.398171 0.169132 -0.491753 -0.822741 -0.315568 -0.994678 -0.290507 -0.263816 -0.991852 -1.004931 -0.633620 -0.764286 -0.127333 -0.556263 -0.488767 -1.170353 -1.181322 -0.676395 -1.338127 -0.963496 -1.688996 -1.498778 -1.452172 -1.880232 -1.941415 -1.732491 -2.059418 -1.879510 -1.674406 -1.287789 -2.119942 -1.622158 -1.648408 -1.528360 -1.060333 -0.424075 -0.775234 -0.431111 -0.183415 0.332882 0.193367 0.001896 0.555590 1.168811 1.036908 0.854069 0.581167 0.976857 1.676203 2.297361 3.010795 1.855520 1.148411 0.747508 1.353419 0.233481 0.012976 -0.267230 -1.036533 -1.117803 -1.277098 -0.696488 -0.578131 -0.845067 -1.266027 -0.890973 -0.535866 -0.489539 0.273386 -0.999203 -1.950675 -2.270312 -1.808642 -1.082539 -1.455952 -1.756947 -2.593311 -3.191558 -2.415068 -2.498548 -1.473114 -1.293847 -1.764307 -1.769266 -1.405018 -1.468102 -1.774624 -1.318201 -1.677882 -1.787432 -2.271310 -2.112007 -2.356936 -1.835531 -1.998480 -2.251555 -2.457689 -1.708420 -2.038873 -1.513090 -1.991088 -2.530088 -2.074590 -2.185905 -1.375300 -1.406539 -1.476397 -0.675374 -1.174684 -0.926779 -0.598203 -0.267444 0.406859 -0.613939 -0.792688 -1.159214 -1.261603 -1.292845 -1.392373 -1.819616 -2.207298 -2.106081 -1.366306 -1.206410 -0.836983 -1.078834 -0.924922 -0.698291 -0.555965 -0.871147 -0.574101 -1.442810 -1.464641 -1.541805 -1.496364 -0.875937 -0.834400 -1.178959 -1.036583 -0.368197 -0.441567 -0.650006 -0.479132 -0.557066 -0.775106 -0.403330 -0.059714 0.700924 -0.336165 -0.365630 -0.068707 0.030678 -0.069021 0.543970 -0.112633 -0.827188 -0.839370 -0.598722 -0.701631 -0.643042 -1.515505 -1.665306 -1.948957 -2.810490 -2.210672 -3.022241 -2.799709 -3.141845 -2.658157 -2.563514 -2.995828 -1.446652 -1.509002 -0.899547 -0.482971 -0.165283 0.368565 -0.046264 -0.423731 0.042771 -0.327313 -0.145687 0.015144 -0.451505 0.092228 -1.007823 -0.301336 0.377600 -0.527808 0.279292 -0.604531 -0.587134 -0.478924 -0.577771 -0.535266 -0.573993 -1.518929 -0.906644 -0.961939 -0.880972 -1.422460 -1.660493 -1.466947 -0.646314 -0.909435 -0.024559 -1.041626 -1.493793 -0.735529 -0.555736 -0.835474 -0.844042 -1.922363 -1.881998 -1.956111 -1.783119 -1.325824 -1.704295 -1.450556 -1.852867 -1.992843 -0.829094 -0.683588 -1.124121 -1.175874 -2.069812 -1.844203 -2.076668 -1.481625 -1.587136 -2.860100 -2.769622 -3.125004 -3.223864 -3.058202 -3.285880 -3.499530 -3.681451 -3.332005 -3.667076 -3.500106 -3.074965 -3.125650 -2.420685 -2.413073 -1.718460 -1.441563 -1.356212 -1.718088 -1.440466 -1.266981 -1.425179 -1.139792 -1.567399 -1.554567 -1.908990 -2.447648 -1.916625 -2.305236 -1.687752 -1.927200 -2.555937 -2.384169 -1.824427 -1.522884 -0.773974 -1.703896 -2.083692 -2.623040 -2.406764 -1.841377 -2.145650 -2.239795 -2.271178 -2.853435 -2.429485 -2.516392 -2.352409 -3.138750 -2.835041 -2.953069 -3.150382 -2.800592 -3.416114 -3.213436 -2.996658 -2.858875 -2.377686 -1.514677 -1.930988 -1.950960 -2.236264 -2.361005 -1.718779 -1.497491 -0.707776 -1.527999 -1.815062 -0.573199 -0.967150 -1.204484 -0.899108 -1.031693 -0.617088 -1.111932 -1.259001 -1.711598 -1.887217 -0.923688 -0.187825 -0.873462 -1.343708 -0.959760 -0.845630 -0.920929 -0.402554 -0.435504 -0.907134 -0.734690 -1.296460 -1.586836 -1.478909 -1.596049 -2.139510 -2.725633 -1.785353 -2.322549 -1.843969 -1.967224 -1.769553 -1.743255 -2.273136 -1.283545 -1.816347 -1.546739 -2.505735 -2.786735 -2.903229 -2.476255 -2.634014 -2.272343 -2.525081 -2.814499 -2.450755 -2.352517 -2.109179 -2.258448 -1.880236 -1.965604 -2.688527 -1.979713 -1.888332 -2.420453 -1.658401 -1.545498 -1.035525 -1.746701 -1.165855 -1.244794 -1.075828 -0.965987 -1.393001 -1.765548 -1.797722 -1.073246 -1.277091 -0.811662 -0.700002 -0.493424 0.234028 0.049795 0.179614 0.103270 -0.545579 -0.091835 -0.342309 -0.851011 -0.684449 -0.937195 -1.624375 -1.538248 -0.788996 -0.763864 -1.149936 -1.013432 -0.576521 -0.486670 -0.774836 -1.454405 -1.111598 -1.114135 -0.797072 -0.732164 -1.182079 -1.442096 -1.065554 -0.857771 -1.089580 -1.092200 -0.979377 -1.448699 -1.122953 -1.650986 -1.915241 -1.817428 -1.498337 -1.327093 -0.924810 -1.010702 -0.164090 0.588257 0.082233 0.415694 0.250650 0.013020 -0.817533 -0.495903 -0.533672 -1.038963 -1.906276 -2.151465 -1.722433 -1.266761 -0.645474 -0.569036 -1.028983 -1.724918 -0.718750 0.297162 0.196236 0.072551 -0.276506 0.159163 0.572041 1.141775 1.485711 1.310783 1.469873 0.730276 0.736688 0.738318 -0.226273 0.628092 -0.350294 -0.076478 -0.457222 -1.297430 -0.759697 -0.636932 0.213061 0.699615 0.827943 0.392440 1.314403 1.804070 1.705195 2.207790 1.815822 1.288321 0.872230 0.652570 -0.036502 -0.237891 -0.431812 0.441634 0.154454 0.167510 -0.049998 -0.401419 -0.024670 0.719386 0.416863 0.451257 0.032976 -0.587730 -0.044166 -0.151761 0.009581 -0.107657 -0.718626 -0.898420 -0.635208 -1.135246 -0.344542 -0.598152 -1.070531 -1.406335 -0.805422 -0.377142 -0.346199 -0.798133 -0.356476 -0.883836 -1.276776 -0.468097 -0.673295 -0.932480 -1.463519 -1.319222 -1.932541 -2.024124 -2.149873 -2.038111 -2.123946 -2.133082 -2.237185 -1.911400 -1.734687 -1.692599 -1.059725 -1.528321 -1.335707 -1.363178 -1.935478 -1.732630 -1.693872 -2.207709 -2.135947 -2.804907 -2.756516 -2.580375 -2.531399 -2.310673 -3.208571 -2.622527 -2.935318 -1.961536 -2.465858 -2.834757 -2.888775 -3.124508 -2.890412 -2.556170 -2.873196 -2.907683 -2.444020 -1.694457 -2.515177 -1.613141 -2.061768 -1.327744 -0.951179 -0.878380 -0.700282 -1.152166 -0.736014 -0.301036 0.181107 0.805864 0.422610 1.024763 0.403532 0.477259 0.540503 0.649196 0.956200 0.438671 -0.185734 -0.584925 -0.834177 -0.966428 -0.479935 