-0.000000 -0.000000 -0.000000 -0.000000 0.000000 -0.000000 -0.000000 0.000000 0.000000 -0.000000 -0.000000 -0.000000 0.000000 -0.000000 0.000000 -0.000000 -0.000000 -0.000000 -0.000000 -0.000000 -0.000000 -0.000000 0.000000 -0.000000 -0.000000 -0.000000 0.000000 0.000000 -0.000000 -0.000000 -0.000000 0.000000 -0.000000 -0.000000 -0.000000 -0.000000 -0.000000 -0.000000 -0.000000 -0.000000 -0.000000 -0.000000 -0.000000 -0.000000 -0.000000 -0.000000 -0.000000 -0.000000 -0.000000 0.000000 -0.000000 -0.000000 0.000000 -0.000000 0.000000 0.000000 -0.000000 0.000000 -0.000000 -0.000000 0.000000 -0.000000 -0.000000 -0.000000 -0.000000 -0.000000 -0.000000 -0.000000 -0.000000 0.000000 0.000000 0.000000 -0.000000 0.000000 -0.000000 -0.000000 0.000000 -0.000000 -0.000000 0.000000 -0.000000 -0.000000 -0.000000 -0.000000 -0.000000 -0.000000 0.000000 -0.000000 -0.000000 0.000000 0.000000 -0.000000 0.000000 0.000000 0.000000 0.000000 -0.000000 0.000000 -0.000000 -0.000000 -0.000000 -0.000000 0.000000 0.000000 -0.000000 -0.000000 -0.000000 -0.000000 0.000000 -0.000000 0.000000 -0.000000 0.000000 0.000000 0.000000 -0.000000 -0.000000 -0.000000 -0.000000 0.000000 -0.000000 -0.000000 -0.000000 -0.000000 0.000000 0.000000 0.000000 0.000000 -0.000000 0.000000 -0.000000 -0.000000 -0.000000 -0.000001 -0.000005 -0.000017 -0.000045 -0.000100 -0.000198 -0.000360 -0.000611 -0.000980 -0.001499 -0.002204 -0.003132 -0.004324 -0.005819 -0.007657 -0.009877 -0.012516 -0.015611 -0.019193 -0.023292 -0.027933 -0.033137 -0.038922 -0.045299 -0.052278 -0.059862 -0.068051 -0.076839 -0.086217 -0.096173 -0.106689 -0.117747 -0.129322 -0.141390 -0.153922 -0.166887 -0.180256 -0.193993 -0.208064 -0.222436 -0.237071 -0.251935 -0.266991 -0.282204 -0.297539 -0.312961 -0.328438 -0.343936 -0.359425 -0.374874 -0.390255 -0.405540 -0.420703 -0.435721 -0.450571 -0.465231 -0.479682 -0.493907 -0.507888 -0.521612 -0.535064 -0.548230 -0.561096 -0.573647 -0.585862 -0.597722 -0.609200 -0.620270 -0.630899 -0.641054 -0.650698 -0.659795 -0.668305 -0.676190 -0.683413 -0.689935 -0.695724 -0.700747 -0.704976 -0.708390 -0.710973 -0.712718 -0.713626 -0.713706 -0.712979 -0.711472 -0.709222 -0.706273 -0.702677 -0.698491 -0.693777 -0.688602 -0.683033 -0.677142 -0.670999 -0.664674 -0.658236 -0.651753 -0.645289 -0.638903 -0.632654 -0.626594 -0.620770 -0.615226 -0.610001 -0.605126 -0.600631 -0.596539 -0.592869 -0.589634 -0.586845 -0.584506 -0.582620 -0.581185 -0.580196 -0.579644 -0.579518 -0.579807 -0.580494 -0.581562 -0.582994 -0.584769 -0.586867 -0.589266 -0.591946 -0.594883 -0.598056 -0.601442 -0.605020 -0.608767 -0.612664 -0.616689 -0.620823 -0.625046 -0.629341 -0.633690 -0.638077 -0.642485 -0.646901 -0.651306 -0.655684 -0.660015 -0.664275 -0.668437 -0.672472 -0.676345 -0.680020 -0.683457 -0.686615 -0.689451 -0.691922 -0.693983 -0.695592 -0.696708 -0.697294 -0.697313 -0.696738 -0.695544 -0.693717 -0.691251 -0.688147 -0.684418 -0.680083 -0.675172 -0.669723 -0.663779 -0.657391 -0.650615 -0.643511 -0.636140 -0.628567 -0.620858 -0.613078 -0.605291 -0.597559 -0.589943 -0.582497 -0.575277 -0.568330 -0.561701 -0.555430 -0.549552 -0.544097 -0.539092 -0.534557 -0.530507 -0.526956 -0.523910 -0.521373 -0.519345 -0.517821 -0.516796 -0.516258 -0.516197 -0.516595 -0.517438 -0.518707 -0.520380 -0.522438 -0.524858 -0.527617 -0.530693 -0.534060 -0.537696 -0.541578 -0.545681 -0.549983 -0.554460 -0.559093 -0.563858 -0.568736 -0.573707 -0.578752 -0.583854 -0.588995 -0.594158 -0.599327 -0.604482 -0.609602 -0.614661 -0.619633 -0.624486 -0.629184 -0.633691 -0.637964 -0.641963 -0.645642 -0.648958 -0.651865 -0.654320 -0.656282 -0.657710 -0.658570 -0.658828 -0.658460 -0.657448 -0.655782 -0.653461 -0.650494 -0.646898 -0.642698 -0.637931 -0.632639 -0.626869 -0.620677 -0.614122 -0.607267 -0.600176 -0.592916 -0.585554 -0.578154 -0.570781 -0.563498 -0.556362 -0.549430 -0.542754 -0.536379 -0.530350 -0.524703 -0.519471 -0.514682 -0.510361 -0.506524 -0.503185 -0.500355 -0.498037 -0.496233 -0.494941 -0.494155 -0.493865 -0.494060 -0.494725 -0.495844 -0.497399 -0.499370 -0.501735 -0.504472 -0.507559 -0.510971 -0.514684 -0.518674 -0.522917 -0.527388 -0.532065 -0.536924 -0.541942 -0.547098 -0.552369 -0.557737 -0.563180 -0.568682 -0.574224 -0.579789 -0.585360 -0.590919 -0.596446 -0.601918 -0.607311 -0.612593 -0.617733 -0.622695 -0.627440 -0.631926 -0.636110 -0.639947 -0.643395 -0.646407 -0.648943 -0.650960 -0.652420 -0.653289 -0.653534 -0.653128 -0.652048 -0.650275 -0.647795 -0.644599 -0.640683 -0.636046 -0.630693 -0.624634 -0.617882 -0.610454 -0.602371 -0.593657 -0.584338 -0.574444 -0.564008 -0.553061 -0.541641 -0.529782 -0.517522 -0.504899 -0.491951 -0.478717 -0.465233 -0.451539 -0.437669 -0.423662 -0.409550 -0.395370 -0.381155 -0.366940 -0.352758 -0.338646 -0.324637 -0.310770 -0.297081 -0.283607 -0.270385 -0.257453 -0.244846 -0.232599 -0.220748 -0.209325 -0.198359 -0.187879 -0.177910 -0.168475 -0.159594 -0.151284 -0.143557 -0.136425 -0.129894 -0.123968 -0.118649 -0.113933 -0.109818 -0.106294 -0.103352 -0.100980 -0.099164 -0.097886 -0.097131 -0.096877 -0.097105 -0.097793 -0.098919 -0.100460 -0.102391 -0.104691 -0.107333 -0.110296 -0.113554 -0.117085 -0.120865 -0.124872 -0.129084 -0.133480 -0.138039 -0.142741 -0.147568 -0.152501 -0.157523 -0.162618 -0.167770 -0.172965 -0.178189 -0.183429 -0.188674 -0.193912 -0.199132 -0.204322 -0.209468 -0.214557 -0.219573 -0.224500 -0.229317 -0.234005 -0.238542 -0.242907 -0.247077 -0.251030 -0.254741 -0.258189 -0.261353 -0.264212 -0.266749 -0.268945 -0.270789 -0.272269 -0.273379 -0.274117 -0.274485 -0.274491 -0.274147 -0.273469 -0.272477 -0.271194 -0.269649 -0.267871 -0.265891 -0.263743 -0.261461 -0.259081 -0.256635 -0.254159 -0.251686 -0.249246 -0.246871 -0.244587 -0.242421 -0.240396 -0.238533 -0.236851 -0.235366 -0.234091 -0.233037 -0.232213 -0.231624 -0.231275 -0.231167 -0.231301 -0.231673 -0.232281 -0.233119 -0.234180 -0.235458 -0.236941 -0.238622 -0.240490 -0.242532 -0.244739 -0.247097 -0.249595 -0.252221 -0.254961 -0.257804 -0.260738 -0.263750 -0.266830 -0.269965 -0.273146 -0.276361 -0.279600 -0.282855 -0.286116 -0.289374 -0.292621 -0.295850 -0.299051 -0.302213 -0.305327 -0.308379 -0.311353 -0.314234 -0.317003 -0.319641 -0.322127 -0.324441 -0.326559 -0.328461 -0.330123 -0.331526 -0.332650 -0.333476 -0.333988 -0.334173 -0.334023 -0.333533 -0.332702 -0.331534 -0.330039 -0.328230 -0.326124 -0.323743 -0.321111 -0.318255 -0.315206 -0.311994 -0.308653 -0.305215 -0.301715 -0.298184 -0.294656 -0.291161 -0.287730 -0.284389 -0.281165 -0.278082 -0.275161 -0.272422 -0.269879 -0.267549 -0.265443 -0.263570 -0.261937 -0.260549 -0.259410 -0.258519 -0.257876 -0.257479 -0.257322 -0.257401 -0.257709 -0.258238 -0.258978 -0.259921 -0.261056 -0.262372 -0.263858 -0.265503 -0.267294 -0.269220 -0.271270 -0.273431 -0.275691 -0.278041 -0.280468 -0.282961 -0.285511 -0.288108 -0.290742 -0.293403 -0.296084 -0.298776 -0.301471 -0.304158 -0.306829 -0.309471 -0.312071 -0.314615 -0.317084 -0.319460 -0.321724 -0.323855 -0.325830 -0.327628 -0.329226 -0.330601 -0.331733 -0.332600 -0.333185 -0.333470 -0.333442 -0.333092 -0.332415 -0.331409 -0.330078 -0.328432 -0.326482 -0.324246 -0.321745 -0.319002 -0.316045 -0.312903 -0.309607 -0.306189 -0.302682 -0.299119 -0.295534 -0.291957 -0.288419 -0.284951 -0.281578 -0.278328 -0.275223 -0.272285 -0.269533 -0.266982 -0.264647 -0.262539 -0.260668 -0.259040 -0.257660 -0.256531 -0.255654 -0.255026 -0.254647 -0.254510 -0.254611 -0.254942 -0.255496 -0.256263 -0.257234 -0.258398 -0.259744 -0.261262 -0.262938 -0.264763 -0.266723 -0.268807 -0.271003 -0.273300 -0.275686 -0.278149 -0.280680 -0.283268 -0.285902 -0.288573 -0.291273 -0.293992 -0.296722 -0.299454 -0.302179 -0.304888 -0.307568 -0.310206 -0.312787 -0.315294 -0.317707 -0.320008 -0.322175 -0.324187 -0.326021 -0.327654 -0.329065 -0.330232 -0.331133 -0.331751 -0.332068 -0.332068 -0.331737 -0.331064 -0.330041 -0.328660 -0.326917 -0.324810 -0.322341 -0.319511 -0.316326 -0.312793 -0.308921 -0.304721 -0.300206 -0.295388 -0.290283 -0.284908 -0.279280 -0.273416 -0.267335 -0.261056 -0.254598 -0.247981 -0.241223 -0.234344 -0.227362 -0.220297 -0.213167 -0.205988 -0.198778 -0.191554 -0.184332 -0.177127 -0.169954 -0.162827 -0.155761 -0.148769 -0.141864 -0.135057 -0.128361 -0.121786 -0.115342 -0.109038 -0.102884 -0.096887 -0.091053 -0.085390 -0.079902 -0.074594 -0.069470 -0.064533 -0.059784 -0.055226 -0.050858 -0.046681 -0.042695 -0.038897 -0.035287 -0.031861 -0.028618 -0.025553 -0.022664 -0.019945 -0.017394 -0.015006 -0.012775 -0.010697 -0.008768 -0.006981 -0.005332 -0.003815 -0.002425 -0.001158 -0.000007 0.001032 0.001964 0.002794 0.003528 0.004169 0.004723 0.005194 0.005586 0.005904 0.006151 0.006332 0.006449 0.006507 0.006509 0.006459 0.006358 0.006212 0.006022 0.005792 0.005525 0.005226 0.004896 0.004541 0.004165 0.003771 0.003363 0.002946 0.002524 0.002100 0.001680 0.001266 0.000863 0.000474 0.000101 -0.000251 -0.000582 -0.000890 -0.001173 -0.001433 -0.001668 -0.001880 -0.002071 -0.002242 -0.002396 -0.002534 -0.002661 -0.002778 -0.002890 -0.003000 -0.003112 -0.003228 -0.003351 -0.003486 -0.003634 -0.003799 -0.003982 -0.004187 -0.004415 -0.004668 -0.004947 -0.005253 -0.005587 -0.005950 -0.006341 -0.006761 -0.007210 -0.007687 -0.008191 -0.008722 -0.009278 -0.009859 -0.010463 -0.011089 -0.011735 -0.012400 -0.013082 -0.013779 -0.014491 -0.015215 -0.015949 -0.016692 -0.017442 -0.018197 -0.018957 -0.019718 -0.020481 -0.021243 -0.022004 -0.022761 -0.023514 -0.024261 -0.025002 -0.025734 -0.026458 -0.027172 -0.027875 -0.028565 -0.029240 -0.029899 -0.030539 -0.031158 -0.031752 -0.032321 -0.032861 -0.033370 -0.033844 -0.034281 -0.034678 -0.035034 -0.035345 -0.035611 -0.035829 -0.035998 -0.036118 -0.036189 -0.036212 -0.036187 -0.036117 -0.036005 -0.035851 -0.035661 -0.035437 -0.035183 -0.034904 -0.034604 -0.034287 -0.033957 -0.033620 -0.033279 -0.032938 -0.032601 -0.032273 -0.031956 -0.031654 -0.031370 -0.031106 -0.030865 -0.030648 -0.030458 -0.030295 -0.030160 -0.030055 -0.029979 -0.029934 -0.029918 -0.029932 -0.029976 -0.030048 -0.030148 -0.030274 -0.030427 -0.030604 -0.030804 -0.031027 -0.031270 -0.031532 -0.031812 -0.032108 -0.032418 -0.032742 -0.033078 -0.033424 -0.033778 -0.034141 -0.034509 -0.034883 -0.035260 -0.035640 -0.036022 -0.036404 -0.036786 -0.037166 -0.037543 -0.037915 -0.038283 -0.038642 -0.038992 -0.039330 -0.039654 -0.039960 -0.040248 -0.040513 -0.040752 -0.040965 -0.041146 -0.041294 -0.041407 -0.041482 -0.041517 -0.041512 -0.041464 -0.041374 -0.041241 -0.041068 -0.040854 -0.040603 -0.040316 -0.039997 -0.039647 -0.039272 -0.038875 -0.038460 -0.038031 -0.037592 -0.037148 -0.036702 -0.036259 -0.035823 -0.035397 -0.034984 -0.034588 -0.034211 -0.033857 -0.033527 -0.033223 -0.032947 -0.032700 -0.032484 -0.032298 -0.032144 -0.032022 -0.031932 -0.031873 -0.031845 -0.031847 -0.031879 -0.031940 -0.032028 -0.032143 -0.032283 -0.032446 -0.032632 -0.032839 -0.033065 -0.033309 -0.033570 -0.033845 -0.034134 -0.034435 -0.034746 -0.035067 -0.035395 -0.035729 -0.036069 -0.036413 -0.036760 -0.037109 -0.037458 -0.037808 -0.038155 -0.038500 -0.038841 -0.039175 -0.039501 -0.039816 -0.040119 -0.040406 -0.040675 -0.040923 -0.041147 -0.041345 -0.041513 -0.041650 -0.041752 -0.041818 -0.041844 -0.041830 -0.041773 -0.041673 -0.041528 -0.041337 -0.041101 -0.040819 -0.040491 -0.040118 -0.039700 -0.039239 -0.038736 -0.038192 -0.037608 -0.036987 -0.036331 -0.035642 -0.034921 -0.034172 -0.033396 -0.032596 -0.031775 -0.030934 -0.030077 -0.029205 -0.028321 -0.027428 -0.026527 -0.025622 -0.024716 -0.023815 -0.022924 -0.022053 -0.021212 -0.020414 -0.019674 -0.019010 -0.018439 -0.017982 -0.017658 -0.017489 -0.017497 -0.017702 -0.018125 -0.018784 -0.019697 -0.020882 -0.022352 -0.024119 -0.026195 -0.028586 -0.031299 -0.034336 -0.037700 -0.041388 -0.045397 -0.049721 -0.054354 -0.059286 -0.064505 -0.070000 -0.075757 -0.081760 -0.087995 -0.094443 -0.101088 -0.107911 -0.114896 -0.122022 -0.129271 -0.136626 -0.144068 -0.151578 -0.159140 -0.166736 -0.174349 -0.181964 -0.189565 -0.197138 -0.204668 -0.212143 -0.219551 -0.226879 -0.234118 -0.241257 -0.248287 -0.255200 -0.261989 -0.268646 -0.275164 -0.281535 -0.287750 -0.293798 -0.299669 -0.305349 -0.310821 -0.316071 -0.321079 -0.325828 -0.330297 -0.334466 -0.338317 -0.341830 -0.344986 -0.347769 -0.350162 -0.352154 -0.353735 -0.354899 -0.355645 -0.355975 -0.355898 -0.355426 -0.354575 -0.353366 -0.351824 -0.349976 -0.347852 -0.345484 -0.342907 -0.340154 -0.337262 -0.334265 -0.331198 -0.328096 -0.324989 -0.321910 -0.318886 -0.315947 -0.313114 -0.310412 -0.307860 -0.305476 -0.303274 -0.301267 -0.299464 -0.297874 -0.296503 -0.295353 -0.294426 -0.293723 -0.293240 -0.292974 -0.292920 -0.293073 -0.293425 -0.293968 -0.294693 -0.295590 -0.296649 -0.297860 -0.299213 -0.300695 -0.302297 -0.304006 -0.305813 -0.307707 -0.309676 -0.311711 -0.313801 -0.315938 -0.318111 -0.320313 -0.322534 -0.324768 -0.327006 -0.329240 -0.331462 -0.333661 -0.335826 -0.337945 -0.340002 -0.341980 -0.343862 -0.345627 -0.347256 -0.348725 -0.350013 -0.351098 -0.351959 -0.352574 -0.352924 -0.352991 -0.352758 -0.352214 -0.351349 -0.350159 -0.348643 -0.346807 -0.344659 -0.342213 -0.339487 -0.336501 -0.333282 -0.329856 -0.326253 -0.322505 -0.318644 -0.314704 -0.310718 -0.306719 -0.302739 -0.298808 -0.294958 -0.291214 -0.287604 -0.284149 -0.280872 -0.277791 -0.274923 -0.272281 -0.269876 -0.267718 -0.265814 -0.264168 -0.262782 -0.261657 -0.260792 -0.260183 -0.259825 -0.259714 -0.259842 -0.260199 -0.260778 -0.261569 -0.262559 -0.263739 -0.265097 -0.266620 -0.268298 -0.270117 -0.272065 -0.274132 -0.276304 -0.278570 -0.280919 -0.283340 -0.285822 -0.288355 -0.290930 -0.293536 -0.296166 -0.298811 -0.301461 -0.304108 -0.306741 -0.309349 -0.311918 -0.314432 -0.316875 -0.319229 -0.321472 -0.323584 -0.325543 -0.327326 -0.328910 -0.330274 -0.331396 -0.332255 -0.332832 -0.333111 -0.333077 -0.332720 -0.332034 -0.331017 -0.329672 -0.328006 -0.326031 -0.323764 -0.321225 -0.318437 -0.315428 -0.312226 -0.308862 -0.305370 -0.301782 -0.298131 -0.294451 -0.290775 -0.287133 -0.283557 -0.280074 -0.276711 -0.273492 -0.270439 -0.267573 -0.264909 -0.262464 -0.260249 -0.258274 -0.256546 -0.255072 -0.253853 -0.252892 -0.252187 -0.251736 -0.251536 -0.251579 -0.251860 -0.252370 -0.253101 -0.254043 -0.255185 -0.256516 -0.258025 -0.259700 -0.261530 -0.263500 -0.265601 -0.267819 -0.270143 -0.272561 -0.275061 -0.277633 -0.280265 -0.282948 -0.285671 -0.288426 -0.291203 -0.293993 -0.296788 -0.299579 -0.302357 -0.305109 -0.307824 -0.310487 -0.313082 -0.315590 -0.317993 -0.320269 -0.322398 -0.324356 -0.326121 -0.327671 -0.328984 -0.330038 -0.330816 -0.331297 -0.331466 -0.331308 -0.330812 -0.329966 -0.328765 -0.327201 -0.325274 -0.322981 -0.320326 -0.317313 -0.313947 -0.310238 -0.306194 -0.301829 -0.297156 -0.292188 -0.286942 -0.281435 -0.275685 -0.269709 -0.263527 -0.257157 -0.250620 -0.243933 -0.237117 -0.230190 -0.223172 -0.216080 -0.208932 -0.201747 -0.194541 -0.187334 -0.180147 -0.173004 -0.165931 -0.158960 -0.152124 -0.145462 -0.139015 -0.132825 -0.126938 -0.121401 -0.116259 -0.111560 -0.107349 -0.103670 -0.100563 -0.098066 -0.096214 -0.095036 -0.094558 -0.094802 -0.095784 -0.097514 -0.100000 -0.103242 -0.107239 -0.111982 -0.117459 -0.123655 -0.130549 -0.138118 -0.146337 -0.155176 -0.164604 -0.174587 -0.185091 -0.196078 -0.207512 -0.219354 -0.231566 -0.244108 -0.256942 -0.270030 -0.283334 -0.296818 -0.310445 -0.324180 -0.337989 -0.351841 -0.365705 -0.379550 -0.393350 -0.407077 -0.420708 -0.434218 -0.447588 -0.460798 -0.473828 -0.486663 -0.499287 -0.511683 -0.523835 -0.535723 -0.547325 -0.558618 -0.569571 -0.580155 -0.590334 -0.600073 -0.609333 -0.618073 -0.626255 -0.633837 -0.640781 -0.647049 -0.652606 -0.657420 -0.661463 -0.664712 -0.667152 -0.668776 -0.669583 -0.669584 -0.668797 -0.667252 -0.664983 -0.662035 -0.658459 -0.654314 -0.649661 -0.644565 -0.639098 -0.633327 -0.627326 -0.621164 -0.614910 -0.608633 -0.602396 -0.596260 -0.590282 -0.584515 -0.579006 -0.573799 -0.568932 -0.564438 -0.560344 -0.556674 -0.553446 -0.550672 -0.548363 -0.546523 -0.545152 -0.544249 -0.543806 -0.543816 -0.544266 -0.545142 -0.546427 -0.548105 -0.550155 -0.552557 -0.555288 -0.558327 -0.561651 -0.565237 -0.569061 -0.573100 -0.577331 -0.581733 -0.586282 -0.590958 -0.595740 -0.600608 -0.605543 -0.610528 -0.615544 -0.620577 -0.625609 -0.630626 -0.635608 -0.640537 -0.645389 -0.650138 -0.654755 -0.659205 -0.663454 -0.667462 -0.671188 -0.674589 -0.677622 -0.680243 -0.682409 -0.684079 -0.685214 -0.685778 -0.685739 -0.685071 -0.683754 -0.681777 -0.679137 -0.675841 -0.671904 -0.667351 -0.662214 -0.656535 -0.650361 -0.643746 -0.636749 -0.629432 -0.621861 -0.614102 -0.606224 -0.598292 -0.590372 -0.582529 -0.574822 -0.567309 -0.560044 -0.553076 -0.546449 -0.540204 -0.534374 -0.528991 -0.524078 -0.519657 -0.515742 -0.512344 -0.509471 -0.507123 -0.505301 -0.503999 -0.503208 -0.502919 -0.503116 -0.503785 -0.504907 -0.506463 -0.508431 -0.510789 -0.513515 -0.516583 -0.519970 -0.523652 -0.527603 -0.531800 -0.536218 -0.540833 -0.545623 -0.550565 -0.555636 -0.560817 -0.566087 -0.571427 -0.576819 -0.582244 -0.587688 -0.593130 -0.598553 -0.603935 -0.609250 -0.614471 -0.619566 -0.624501 -0.629237 -0.633735 -0.637950 -0.641840 -0.645360 -0.648466 -0.651113 -0.653260 -0.654869 -0.655902 -0.656329 -0.656126 -0.655274 -0.653766 -0.651602 -0.648790 -0.645350 -0.641308 -0.636700 -0.631569 -0.625965 -0.619941 -0.613559 -0.606880 -0.599969 -0.592892 -0.585715 -0.578504 -0.571322 -0.564230 -0.557288 -0.550548 -0.544063 -0.537878 -0.532035 -0.526571 -0.521519 -0.516905 -0.512752 -0.509078 -0.505895 -0.503213 -0.501037 -0.499366 -0.498198 -0.497528 -0.497345 -0.497637 -0.498391 -0.499590 -0.501216 -0.503248 -0.505666 -0.508448 -0.511570 -0.515009 -0.518741 -0.522743 -0.526990 -0.531459 -0.536126 -0.540969 -0.545965 -0.551092 -0.556331 -0.561660 -0.567061 -0.572515 -0.578006 -0.583516 -0.589029 -0.594525 -0.599985 -0.605386 -0.610701 -0.615900 -0.620950 -0.625815 -0.630454 -0.634827 -0.638889 -0.642598 -0.645907 -0.648774 -0.651155 -0.653012 -0.654305 -0.655000 -0.655067 -0.654479 -0.653213 -0.651251 -0.648582 -0.645196 -0.641090 -0.636264 -0.630726 -0.624484 -0.617554 -0.609951 -0.601700 -0.592822 -0.583347 -0.573304 -0.562726 -0.551645 -0.540098 -0.528121 -0.515752 -0.503028 -0.489987 -0.476668 -0.463109 -0.449346 -0.435417 -0.421357 -0.407202 -0.392984 -0.378736 -0.364490 -0.350275 -0.336121 -0.322055 -0.308103 -0.294290 -0.280640 -0.267173 -0.253910 -0.240871 -0.228073 -0.215532 -0.203262 -0.191276 -0.179587 -0.168204 -0.157136 -0.146389 -0.135971 -0.125885 -0.116134 -0.106722 -0.097648 -0.088913 -0.080516 -0.072454 -0.064725 -0.057325 -0.050249 -0.043493 -0.037051 -0.030918 -0.025085 -0.019547 -0.014296 -0.009325 -0.004625 -0.000190 0.003989 0.007920 0.011611 0.015071 0.018306 0.021326 0.024138 0.026750 0.029169 0.031403 0.033460 0.035346 0.037068 0.038634 0.040050 0.041321 0.042455 0.043458 0.044334 0.045089 0.045730 0.046261 0.046687 0.047014 0.047248 0.047393 0.047456 0.047442 0.047356 0.047206 0.046995 0.046731 0.046420 0.046066 0.045676 0.045254 0.044807 0.044339 0.043855 0.043359 0.042854 0.042344 0.041830 0.041315 0.040798 0.040282 0.039765 0.039247 0.038727 0.038205 0.037676 0.037141 0.036596 0.036039 0.035468 0.034880 0.034273 0.033644 0.032992 0.032315 0.031610 0.030877 0.030114 0.029320 0.028495 0.027637 0.026748 0.025826 0.024873 0.023889 0.022875 0.021831 0.020759 0.019660 0.018536 0.017388 0.016219 0.015029 0.013821 0.012598 0.011360 0.010110 0.008850 0.007582 0.006308 0.005031 0.003751 0.002472 0.001194 -0.000080 -0.001348 -0.002609 -0.003862 -0.005105 -0.006336 -0.007554 -0.008758 -0.009946 -0.011118 -0.012273 -0.013408 -0.014523 -0.015615 -0.016684 -0.017726 -0.018739 -0.019720 -0.020669 -0.021581 -0.022455 -0.023287 -0.024075 -0.024817 -0.025509 -0.026150 -0.026738 -0.027271 -0.027747 -0.028167 -0.028529 -0.028835 -0.029084 -0.029280 -0.029424 -0.029517 -0.029564 -0.029567 -0.029531 -0.029460 -0.029358 -0.029230 -0.029080 -0.028913 -0.028733 -0.028546 -0.028354 -0.028163 -0.027977 -0.027798 -0.027631 -0.027478 -0.027341 -0.027225 -0.027129 -0.027057 -0.027009 -0.026987 -0.026991 -0.027022 -0.027080 -0.027166 -0.027279 -0.027418 -0.027583 -0.027774 -0.027989 -0.028227 -0.028487 -0.028769 -0.029070 -0.029389 -0.029725 -0.030077 -0.030442 -0.030820 -0.031210 -0.031608 -0.032015 -0.032430 -0.032849 -0.033273 -0.033700 -0.034129 -0.034559 -0.034989 -0.035417 -0.035843 -0.036266 -0.036685 -0.037098 -0.037503 -0.037900 -0.038285 -0.038656 -0.039012 -0.039350 -0.039667 -0.039961 -0.040228 -0.040467 -0.040674 -0.040847 -0.040983 -0.041080 -0.041137 -0.041152 -0.041123 -0.041052 -0.040937 -0.040780 -0.040582 -0.040345 -0.040072 -0.039764 -0.039426 -0.039061 -0.038673 -0.038265 -0.037843 -0.037409 -0.036970 -0.036528 -0.036088 -0.035654 -0.035230 -0.034818 -0.034422 -0.034046 -0.033691 -0.033360 -0.033055 -0.032778 -0.032531 -0.032313 -0.032126 -0.031971 -0.031848 -0.031757 -0.031697 -0.031668 -0.031671 -0.031702 -0.031763 -0.031852 -0.031967 -0.032108 -0.032272 -0.032460 -0.032668 -0.032896 -0.033143 -0.033406 -0.033684 -0.033975 -0.034279 -0.034594 -0.034918 -0.035249 -0.035588 -0.035932 -0.036280 -0.036631 -0.036984 -0.037337 -0.037691 -0.038043 -0.038393 -0.038738 -0.039077 -0.039408 -0.039729 -0.040037 -0.040330 -0.040605 -0.040860 -0.041092 -0.041298 -0.041474 -0.041620 -0.041731 -0.041806 -0.041842 -0.041838 -0.041792 -0.041702 -0.041567 -0.041388 -0.041162 -0.040890 -0.040573 -0.040210 -0.039802 -0.039351 -0.038857 -0.038321 -0.037747 -0.037134 -0.036485 -0.035803 -0.035089 -0.034346 -0.033576 -0.032781 -0.031965 -0.031128 -0.030274 -0.029405 -0.028524 -0.027633 -0.026734 -0.025830 -0.024926 -0.024028 -0.023145 -0.022293 -0.021488 -0.020753 -0.020114 -0.019601 -0.019249 -0.019094 -0.019175 -0.019532 -0.020207 -0.021241 -0.022673 -0.024541 -0.026881 -0.029727 -0.033107 -0.037047 -0.041570 -0.046692 -0.052427 -0.058781 -0.065760 -0.073363 -0.081584 -0.090415 -0.099841 -0.109848 -0.120413 -0.131515 -0.143126 -0.155220 -0.167765 -0.180729 -0.194079 -0.207780 -0.221797 -0.236093 -0.250633 -0.265380 -0.280298 -0.295353 -0.310509 -0.325732 -0.340990 -0.356252 -0.371485 -0.386663 -0.401756 -0.416739 -0.431588 -0.446279 -0.460790 -0.475103 -0.489198 -0.503060 -0.516673 -0.530022 -0.543095 -0.555876 -0.568348 -0.580494 -0.592291 -0.603714 -0.614734 -0.625321 -0.635440 -0.645055 -0.654127 -0.662619 -0.670492 -0.677707 -0.684227 -0.690018 -0.695047 -0.699287 -0.702713 -0.705307 -0.707058 -0.707966 -0.708035 -0.707281 -0.705730 -0.703414 -0.700374 -0.696661 -0.692330 -0.687441 -0.682061 -0.676258 -0.670104 -0.663671 -0.657030 -0.650254 -0.643412 -0.636571 -0.629796 -0.623145 -0.616677 -0.610441 -0.604484 -0.598849 -0.593571 -0.588682 -0.584208 -0.580171 -0.576588 -0.573469 -0.570822 -0.568652 -0.566957 -0.565734 -0.564975 -0.564670 -0.564807 -0.565371 -0.566345 -0.567709 -0.569445 -0.571532 -0.573946 -0.576666 -0.579668 -0.582930 -0.586427 -0.590138 -0.594039 -0.598109 -0.602324 -0.606665 -0.611111 -0.615642 -0.620240 -0.624887 -0.629567 -0.634263 -0.638960 -0.643640 -0.648285 -0.652874 -0.657384 -0.661786 -0.666049 -0.670139 -0.674018 -0.677646 -0.680982 -0.683982 -0.686602 -0.688800 -0.690532 -0.691758 -0.692441 -0.692545 -0.692041 -0.690907 -0.689126 -0.686690 -0.683603 -0.679874 -0.675524 -0.670580 -0.665081 -0.659070 -0.652598 -0.645720 -0.638499 -0.630996 -0.623277 -0.615410 -0.607461 -0.599496 -0.591579 -0.583771 -0.576131 -0.568715 -0.561572 -0.554750 -0.548289 -0.542227 -0.536596 -0.531423 -0.526729 -0.522533 -0.518847 -0.515680 -0.513036 -0.510915 -0.509314 -0.508226 -0.507642 -0.507549 -0.507932 -0.508774 -0.510058 -0.511761 -0.513863 -0.516341 -0.519171 -0.522331 -0.525794 -0.529538 -0.533537 -0.537769 -0.542207 -0.546831 -0.551616 -0.556542 -0.561586 -0.566729 -0.571950 -0.577233 -0.582558 -0.587909 -0.593268 -0.598618 -0.603937 -0.609202 -0.614386 -0.619460 -0.624389 -0.629138 -0.633666 -0.637931 -0.641890 -0.645499 -0.648712 -0.651487 -0.653780 -0.655550 -0.656762 -0.657380 -0.657379 -0.656738 -0.655443 -0.653493 -0.650891 -0.647654 -0.643805 -0.639376 -0.634408 -0.628946 -0.623045 -0.616762 -0.610157 -0.603296 -0.596244 -0.589066 -0.581830 -0.574598 -0.567434 -0.560396 -0.553541 -0.546922 -0.540586 -0.534577 -0.528934 -0.523690 -0.518876 -0.514515 -0.510627 -0.507227 -0.504325 -0.501928 -0.500038 -0.498653 -0.497768 -0.497376 -0.497465 -0.498023 -0.499033 -0.500477 -0.502337 -0.504592 -0.507220 -0.510198 -0.513503 -0.517112 -0.521000 -0.525143 -0.529518 -0.534102 -0.538870 -0.543801 -0.548873 -0.554064 -0.559354 -0.564724 -0.570154 -0.575629 -0.581130 -0.586640 -0.592142 -0.597617 -0.603042 -0.608393 -0.613641 -0.618754 -0.623697 -0.628431 -0.632915 -0.637107 -0.640962 -0.644437 -0.647487 -0.650068 -0.652140 -0.653664 -0.654604 -0.654927 -0.654605 -0.653615 -0.651935 -0.649552 -0.646456 -0.642640 -0.638104 -0.632852 -0.626893 -0.620238 -0.612905 -0.604913 -0.596285 -0.587049 -0.577232 -0.566867 -0.555986 -0.544624 -0.532817 -0.520603 -0.508019 -0.495104 -0.481894 -0.468430 -0.454747 -0.440883 -0.426874 -0.412755 -0.398561 -0.384324 -0.370077 -0.355849 -0.341671 -0.327569 -0.313573 -0.299705 -0.285991 -0.272453 -0.259112 -0.245987 -0.233096 -0.220457 -0.208084 -0.195991 -0.184190 -0.172692 -0.161505 -0.150638 -0.140097 -0.129887 -0.120011 -0.110473 -0.101274 -0.092413 -0.083890 -0.075704 -0.067851 -0.060329 -0.053133 -0.046258 -0.039699 -0.033451 -0.027505 -0.021857 -0.016499 -0.011422 -0.006620 -0.002085 0.002191 0.006217 0.009999 0.013548 0.016869 0.019973 0.022865 0.025555 0.028050 0.030357 0.032484 0.034438 0.036226 0.037855 0.039331 0.040662 0.041852 0.042909 0.043837 0.044643 0.045332 0.045909 0.046380 0.046750 0.047024 0.047208 0.047307 0.047329 0.047277 0.047157 0.046977 0.046740 0.046454 0.046124 0.045756 0.045356 0.044928 0.044477 0.044009 0.043528 0.043036 0.042538 0.042036 0.041531 0.041025 0.040518 0.040010 0.039501 0.038990 0.038475 0.037955 0.037428 0.036891 0.036343 0.035780 0.035201 0.034602 0.033982 0.033339 0.032671 0.031975 0.031250 0.030496 0.029710 0.028893 0.028044 0.027162 0.026248 0.025302 0.024325 0.023316 0.022278 0.021211 0.020118 0.018998 0.017854 0.016688 0.015501 0.014295 0.013073 0.011836 0.010587 0.009326 0.008058 0.006783 0.005504 0.004222 0.002940 0.001659 0.000381 -0.000891 -0.002157 -0.003415 -0.004663 -0.005899 -0.007123 -0.008333 -0.009528 -0.010707 -0.011868 -0.013011 -0.014133 -0.015234 -0.016311 -0.017362 -0.018384 -0.019375 -0.020334 -0.021257 -0.022142 -0.022986 -0.023787 -0.024541 -0.025246 -0.025901 -0.026503 -0.027050 -0.027541 -0.027976 -0.028354 -0.028676 -0.028942 -0.029155 -0.029316 -0.029428 -0.029494 -0.029518 -0.029502 -0.029452 -0.029372 -0.029266 -0.029139 -0.028995 -0.028839 -0.028675 -0.028507 -0.028340 -0.028176 -0.028021 -0.027876 -0.027745 -0.027630 -0.027534 -0.027459 -0.027405 -0.027375 -0.027370 -0.027390 -0.027436 -0.027508 -0.027606 -0.027730 -0.027880 -0.028054 -0.028252 -0.028473 -0.028716 -0.028981 -0.029265 -0.029568 -0.029888 -0.030223 -0.030574 -0.030937 -0.031312 -0.031697 -0.032091 -0.032493 -0.032901 -0.033313 -0.033730 -0.034149 -0.034570 -0.034991 -0.035411 -0.035830 -0.036246 -0.036659 -0.037067 -0.037468 -0.037862 -0.038246 -0.038619 -0.038976 -0.039318 -0.039640 -0.039940 -0.040217 -0.040466 -0.040685 -0.040872 -0.041024 -0.041138 -0.041213 -0.041247 -0.041238 -0.041186 -0.041089 -0.040950 -0.040767 -0.040544 -0.040282 -0.039983 -0.039650 -0.039286 -0.038896 -0.038482 -0.038050 -0.037603 -0.037145 -0.036682 -0.036218 -0.035756 -0.035300 -0.034855 -0.034424 -0.034009 -0.033615 -0.033244 -0.032898 -0.032578 -0.032288 -0.032028 -0.031800 -0.031604 -0.031440 -0.031310 -0.031213 -0.031148 -0.031116 -0.031115 -0.031145 -0.031205 -0.031295 -0.031411 -0.031554 -0.031722 -0.031913 -0.032126 -0.032360 -0.032612 -0.032882 -0.033167 -0.033467 -0.033779 -0.034102 -0.034435 -0.034777 -0.035125 -0.035479 -0.035837 -0.036199 -0.036562 -0.036927 -0.037291 -0.037655 -0.038015 -0.038372 -0.038723 -0.039066 -0.039399 -0.039719 -0.040025 -0.040313 -0.040582 -0.040827 -0.041047 -0.041239 -0.041399 -0.041526 -0.041616 -0.041668 -0.041680 -0.041649 -0.041576 -0.041457 -0.041293 -0.041084 -0.040828 -0.040526 -0.040178 -0.039785 -0.039348 -0.038868 -0.038347 -0.037785 -0.037185 -0.036548 -0.035878 -0.035175 -0.034442 -0.033681 -0.032896 -0.032087 -0.031259 -0.030412 -0.029550 -0.028674 -0.027788 -0.026894 -0.025994 -0.025090 -0.024187 -0.023291 -0.022407 -0.021546 -0.020717 -0.019935 -0.019216 -0.018575 -0.018032 -0.017606 -0.017320 -0.017192 -0.017246 -0.017500 -0.017977 -0.018694 -0.019669 -0.020918 -0.022455 -0.024292 -0.026438 -0.028902 -0.031688 -0.034799 -0.038236 -0.041996 -0.046077 -0.050472 -0.055173 -0.060171 -0.065454 -0.071010 -0.076824 -0.082882 -0.089167 -0.095662 -0.102351 -0.109214 -0.116234 -0.123392 -0.130670 -0.138049 -0.145511 -0.153038 -0.160613 -0.168218 -0.175837 -0.183455 -0.191056 -0.198625 -0.206149 -0.213615 -0.221011 -0.228326 -0.235549 -0.242670 -0.249680 -0.256572 -0.263337 -0.269969 -0.276461 -0.282804 -0.288988 -0.295005 -0.300840 -0.306482 -0.311913 -0.317117 -0.322077 -0.326772 -0.331184 -0.335293 -0.339079 -0.342523 -0.345607 -0.348314 -0.350631 -0.352545 -0.354049 -0.355139 -0.355816 -0.356086 -0.355958 -0.355447 -0.354571 -0.353352 -0.351817 -0.349994 -0.347914 -0.345608 -0.343112 -0.340458 -0.337683 -0.334819 -0.331902 -0.328961 -0.326030 -0.323137 -0.320310 -0.317572 -0.314948 -0.312458 -0.310120 -0.307949 -0.305960 -0.304162 -0.302564 -0.301173 -0.299993 -0.299027 -0.298275 -0.297735 -0.297406 -0.297282 -0.297359 -0.297630 -0.298087 -0.298723 -0.299528 -0.300493 -0.301607 -0.302861 -0.304245 -0.305747 -0.307356 -0.309063 -0.310857 -0.312727 -0.314664 -0.316658 -0.318699 -0.320778 -0.322888 -0.325019 -0.327163 -0.329314 -0.331464 -0.333604 -0.335724 -0.337814 -0.339861 -0.341850 -0.343766 -0.345591 -0.347304 -0.348886 -0.350314 -0.351568 -0.352625 -0.353463 -0.354061 -0.354399 -0.354459 -0.354226 -0.353686 -0.352833 -0.351660 -0.350169 -0.348364 -0.346256 -0.343857 -0.341185 -0.338263 -0.335115 -0.331768 -0.328251 -0.324596 -0.320835 -0.317000 -0.313124 -0.309239 -0.305376 -0.301565 -0.297835 -0.294212 -0.290721 -0.287384 -0.284222 -0.281253 -0.278492 -0.275952 -0.273644 -0.271576 -0.269756 -0.268185 -0.266868 -0.265804 -0.264991 -0.264426 -0.264104 -0.264020 -0.264166 -0.264534 -0.265116 -0.265900 -0.266877 -0.268036 -0.269365 -0.270854 -0.272490 -0.274261 -0.276156 -0.278163 -0.280271 -0.282469 -0.284745 -0.287089 -0.289491 -0.291941 -0.294430 -0.296948 -0.299488 -0.302040 -0.304597 -0.307147 -0.309682 -0.312187 -0.314650 -0.317053 -0.319381 -0.321612 -0.323728 -0.325706 -0.327523 -0.329158 -0.330588 -0.331790 -0.332744 -0.333430 -0.333829 -0.333927 -0.333712 -0.333177 -0.332317 -0.331135 -0.329637 -0.327832 -0.325736 -0.323367 -0.320749 -0.317906 -0.314866 -0.311660 -0.308319 -0.304875 -0.301360 -0.297808 -0.294250 -0.290718 -0.287241 -0.283847 -0.280563 -0.277412 -0.274418 -0.271599 -0.268972 -0.266554 -0.264356 -0.262389 -0.260660 -0.259176 -0.257939 -0.256951 -0.256212 -0.255720 -0.255472 -0.255461 -0.255682 -0.256128 -0.256790 -0.257658 -0.258722 -0.259973 -0.261398 -0.262987 -0.264728 -0.266609 -0.268618 -0.270743 -0.272974 -0.275298 -0.277705 -0.280183 -0.282722 -0.285312 -0.287943 -0.290607 -0.293294 -0.295995 -0.298703 -0.301409 -0.304102 -0.306772 -0.309406 -0.311990 -0.314508 -0.316941 -0.319271 -0.321476 -0.323536 -0.325426 -0.327126 -0.328613 -0.329865 -0.330860 -0.331580 -0.332006 -0.332121 -0.331912 -0.331365 -0.330471 -0.329223 -0.327615 -0.325644 -0.323310 -0.320615 -0.317563 -0.314161 -0.310415 -0.306338 -0.301940 -0.297235 -0.292237 -0.286962 -0.281428 -0.275650 -0.269649 -0.263443 -0.257050 -0.250490 -0.243782 -0.236945 -0.229999 -0.222963 -0.215853 -0.208689 -0.201488 -0.194270 -0.187054 -0.179864 -0.172726 -0.165670 -0.158729 -0.151939 -0.145341 -0.138979 -0.132896 -0.127140 -0.121758 -0.116797 -0.112303 -0.108320 -0.104892 -0.102058 -0.099853 -0.098311 -0.097458 -0.097318 -0.097910 -0.099247 -0.101338 -0.104186 -0.107791 -0.112147 -0.117243 -0.123066 -0.129597 -0.136814 -0.144693 -0.153207 -0.162323 -0.172010 -0.182234 -0.192958 -0.204146 -0.215759 -0.227759 -0.240107 -0.252764 -0.265693 -0.278855 -0.292212 -0.305729 -0.319370 -0.333101 -0.346889 -0.360702 -0.374510 -0.388285 -0.402000 -0.415630 -0.429150 -0.442539 -0.455777 -0.468845 -0.481725 -0.494401 -0.506858 -0.519078 -0.531044 -0.542735 -0.554127 -0.565193 -0.575904 -0.586225 -0.596123 -0.605557 -0.614489 -0.622879 -0.630686 -0.637872 -0.644397 -0.650226 -0.655326 -0.659668 -0.663230 -0.665995 -0.667958 -0.669119 -0.669489 -0.669088 -0.667943 -0.666093 -0.663581 -0.660458 -0.656782 -0.652612 -0.648015 -0.643057 -0.637807 -0.632333 -0.626704 -0.620987 -0.615245 -0.609541 -0.603933 -0.598475 -0.593217 -0.588203 -0.583476 -0.579069 -0.575015 -0.571340 -0.568063 -0.565203 -0.562771 -0.560775 -0.559219 -0.558104 -0.557426 -0.557179 -0.557354 -0.557939 -0.558922 -0.560285 -0.562012 -0.564084 -0.566481 -0.569183 -0.572167 -0.575413 -0.578899 -0.582601 -0.586500 -0.590572 -0.594798 -0.599155 -0.603625 -0.608187 -0.612824 -0.617517 -0.622250 -0.627007 -0.631772 -0.636529 -0.641263 -0.645955 -0.650583 -0.655123 -0.659547 -0.663823 -0.667917 -0.671790 -0.675402 -0.678711 -0.681674 -0.684248 -0.686389 -0.688055 -0.689206 -0.689805 -0.689819 -0.689217 -0.687979 -0.686089 -0.683541 -0.680337 -0.676490 -0.672020 -0.666957 -0.661339 -0.655210 -0.648622 -0.641633 -0.634302 -0.626695 -0.618877 -0.610916 -0.602879 -0.594832 -0.586839 -0.578963 -0.571261 -0.563790 -0.556600 -0.549737 -0.543243 -0.537155 -0.531505 -0.526319 -0.521620 -0.517425 -0.513746 -0.510592 -0.507966 -0.505869 -0.504297 -0.503243 -0.502698 -0.502648 -0.503078 -0.503971 -0.505308 -0.507069 -0.509231 -0.511772 -0.514668 -0.517894 -0.521427 -0.525241 -0.529313 -0.533617 -0.538130 -0.542829 -0.547690 -0.552692 -0.557813 -0.563032 -0.568331 -0.573690 -0.579092 -0.584520 -0.589956 -0.595381 -0.600775 -0.606115 -0.611374 -0.616521 -0.621523 -0.626343 -0.630942 -0.635277 -0.639306 -0.642983 -0.646264 -0.649105 -0.651463 -0.653299 -0.654573 -0.655254 -0.655313 -0.654729 -0.653489 -0.651589 -0.649033 -0.645835 -0.642018 -0.637615 -0.632663 -0.627210 -0.621309 -0.615016 -0.608393 -0.601505 -0.594417 -0.587196 -0.579908 -0.572618 -0.565390 -0.558283 -0.551355 -0.544659 -0.538243 -0.532153 -0.526427 -0.521102 -0.516206 -0.511766 -0.507801 -0.504326 -0.501354 -0.498891 -0.496939 -0.495498 -0.494563 -0.494126 -0.494176 -0.494701 -0.495684 -0.497109 -0.498955 -0.501202 -0.503829 -0.506812 -0.510128 -0.513753 -0.517662 -0.521833 -0.526241 -0.530861 -0.535671 -0.540647 -0.545768 -0.551012 -0.556359 -0.561787 -0.567280 -0.572819 -0.578386 -0.583965 -0.589538 -0.595086 -0.600588 -0.606019 -0.611352 -0.616555 -0.621593 -0.626429 -0.631022 -0.635329 -0.639307 -0.642912 -0.646099 -0.648825 -0.651048 -0.652729 -0.653832 -0.654322 -0.654171 -0.653355 -0.651852 -0.649647 -0.646728 -0.643090 -0.638730 -0.633652 -0.627864 -0.621376 -0.614204 -0.606369 -0.597892 -0.588799 -0.579120 -0.568884 -0.558125 -0.546877 -0.535177 -0.523060 -0.510566 -0.497731 -0.484594 -0.471193 -0.457566 -0.443750 -0.429781 -0.415695 -0.401526 -0.387307 -0.373071 -0.358849 -0.344671 -0.330565 -0.316558 -0.302677 -0.288946 -0.275388 -0.262024 -0.248874 -0.235956 -0.223289 -0.210886 -0.198762 -0.186929 -0.175398 -0.164178 -0.153277 -0.142702 -0.132458 -0.122548 -0.112974 -0.103739 -0.094843 -0.086284 -0.078061 -0.070172 -0.062613 -0.055380 -0.048467 -0.041871 -0.035583 -0.029599 -0.023912 -0.018513 -0.013397 -0.008554 -0.003978 0.000340 0.004407 0.008232 0.011823 0.015187 0.018334 0.021269 0.024003 0.026541 0.028891 0.031062 0.033060 0.034891 0.036563 0.038083 0.039456 0.040689 0.041788 0.042758 0.043606 0.044336 0.044954 0.045466 0.045876 0.046191 0.046416 0.046556 0.046618 0.046608 0.046531 0.046394 0.046201 0.045960 0.045676 0.045355 0.045001 0.044620 0.044218 0.043799 0.043366 0.042924 0.042475 0.042022 0.041568 0.041112 0.040656 0.040199 0.039741 0.039281 0.038818 0.038350 0.037875 0.037389 0.036892 0.036380 0.035850 0.035301 0.034729 0.034133 0.033510 0.032858 0.032175 0.031461 0.030715 0.029934 0.029119 0.028269 0.027385 0.026466 0.025513 0.024527 0.023508 0.022459 0.021379 0.020271 0.019137 0.017978 0.016796 0.015592 0.014370 0.013131 0.011878 0.010611 0.009335 0.008050 0.006759 0.005464 0.004168 0.002871 0.001576 0.000285 -0.001000 -0.002278 -0.003547 -0.004806 -0.006052 -0.007286 -0.008505 -0.009708 -0.010894 -0.012062 -0.013210 -0.014337 -0.015442 -0.016521 -0.017573 -0.018595 -0.019586 -0.020542 -0.021461 -0.022341 -0.023178 -0.023971 -0.024715 -0.025410 -0.026053 -0.026642 -0.027176 -0.027653 -0.028074 -0.028438 -0.028745 -0.028998 -0.029199 -0.029349 -0.029451 -0.029508 -0.029525 -0.029505 -0.029452 -0.029371 -0.029266 -0.029143 -0.029004 -0.028856 -0.028701 -0.028544 -0.028390 -0.028241 -0.028100 -0.027972 -0.027858 -0.027762 -0.027684 -0.027628 -0.027594 -0.027583 -0.027597 -0.027636 -0.027701 -0.027791 -0.027907 -0.028047 -0.028213 -0.028402 -0.028615 -0.028849 -0.029105 -0.029381 -0.029675 -0.029987 -0.030315 -0.030658 -0.031014 -0.031383 -0.031761 -0.032150 -0.032546 -0.032948 -0.033356 -0.033768 -0.034184 -0.034600 -0.035018 -0.035436 -0.035852 -0.036266 -0.036676 -0.037083 -0.037484 -0.037877 -0.038262 -0.038635 -0.038995 -0.039340 -0.039666 -0.039972 -0.040255 -0.040512 -0.040740 -0.040937 -0.041099 -0.041226 -0.041313 -0.041360 -0.041366 -0.041328 -0.041247 -0.041122 -0.040955 -0.040748 -0.040502 -0.040218 -0.039900 -0.039551 -0.039175 -0.038775 -0.038356 -0.037921 -0.037476 -0.037024 -0.036570 -0.036117 -0.035670 -0.035232 -0.034807 -0.034398 -0.034009 -0.033641 -0.033298 -0.032981 -0.032692 -0.032432 -0.032203 -0.032005 -0.031840 -0.031707 -0.031606 -0.031537 -0.031500 -0.031494 -0.031519 -0.031573 -0.031656 -0.031766 -0.031901 -0.032062 -0.032245 -0.032451 -0.032676 -0.032920 -0.033181 -0.033458 -0.033749 -0.034053 -0.034368 -0.034692 -0.035025 -0.035365 -0.035710 -0.036060 -0.036413 -0.036768 -0.037125 -0.037482 -0.037837 -0.038190 -0.038539 -0.038883 -0.039219 -0.039545 -0.039858 -0.040158 -0.040440 -0.040702 -0.040941 -0.041155 -0.041341 -0.041496 -0.041617 -0.041702 -0.041749 -0.041756 -0.041720 -0.041642 -0.041519 -0.041351 -0.041137 -0.040877 -0.040571 -0.040220 -0.039823 -0.039383 -0.038899 -0.038374 -0.037810 -0.037207 -0.036567 -0.035894 -0.035188 -0.034453 -0.033690 -0.032902 -0.032091 -0.031260 -0.030411 -0.029547 -0.028670 -0.027782 -0.026886 -0.025984 -0.025080 -0.024177 -0.023283 -0.022404 -0.021551 -0.020736 -0.019973 -0.019278 -0.018668 -0.018164 -0.017786 -0.017553 -0.017489 -0.017614 -0.017948 -0.018511 -0.019321 -0.020397 -0.021751 -0.023399 -0.025351 -0.027616 -0.030200 -0.033108 -0.036341 -0.039900 -0.043781 -0.047981 -0.052492 -0.057305 -0.062411 -0.067798 -0.073452 -0.079358 -0.085502 -0.091867 -0.098435 -0.105190 -0.112112 -0.119183 -0.126386 -0.133700 -0.141109 -0.148594 -0.156137 -0.163721 -0.171329 -0.178945 -0.186553 -0.194139 -0.201688 -0.209186 -0.216622 -0.223983 -0.231258 -0.238438 -0.245512 -0.252473 -0.259312 -0.266022 -0.272596 -0.279026 -0.285304 -0.291420 -0.297364 -0.303121 -0.308678 -0.314018 -0.319125 -0.323979 -0.328562 -0.332853 -0.336834 -0.340483 -0.343784 -0.346718 -0.349268 -0.351422 -0.353167 -0.354498 -0.355411 -0.355906 -0.355990 -0.355674 -0.354972 -0.353904 -0.352491 -0.350762 -0.348744 -0.346469 -0.343971 -0.341284 -0.338443 -0.335484 -0.332441 -0.329348 -0.326239 -0.323145 -0.320095 -0.317119 -0.314241 -0.311484 -0.308869 -0.306416 -0.304139 -0.302052 -0.300166 -0.298490 -0.297031 -0.295792 -0.294776 -0.293983 -0.293412 -0.293059 -0.292921 -0.292992 -0.293265 -0.293733 -0.294386 -0.295215 -0.296210 -0.297362 -0.298659 -0.300091 -0.301646 -0.303313 -0.305083 -0.306942 -0.308882 -0.310892 -0.312961 -0.315080 -0.317240 -0.319432 -0.321646 -0.323876 -0.326113 -0.328349 -0.330577 -0.332786 -0.334967 -0.337106 -0.339189 -0.341201 -0.343124 -0.344938 -0.346623 -0.348159 -0.349522 -0.350691 -0.351644 -0.352360 -0.352818 -0.353000 -0.352888 -0.352469 -0.351732 -0.350669 -0.349279 -0.347564 -0.345531 -0.343190 -0.340558 -0.337654 -0.334503 -0.331129 -0.327562 -0.323834 -0.319975 -0.316020 -0.312003 -0.307955 -0.303912 -0.299903 -0.295960 -0.292112 -0.288385 -0.284804 -0.281392 -0.278170 -0.275154 -0.272360 -0.269800 -0.267486 -0.265425 -0.263623 -0.262083 -0.260806 -0.259793 -0.259041 -0.258547 -0.258304 -0.258307 -0.258546 -0.259015 -0.259702 -0.260598 -0.261691 -0.262971 -0.264424 -0.266039 -0.267804 -0.269706 -0.271734 -0.273874 -0.276117 -0.278449 -0.280859 -0.283337 -0.285872 -0.288454 -0.291074 -0.293722 -0.296389 -0.299067 -0.301747 -0.304419 -0.307072 -0.309694 -0.312271 -0.314786 -0.317222 -0.319560 -0.321779 -0.323857 -0.325773 -0.327503 -0.329025 -0.330317 -0.331358 -0.332127 -0.332608 -0.332783 -0.332642 -0.332175 -0.331378 -0.330253 -0.328803 -0.327039 -0.324976 -0.322630 -0.320025 -0.317185 -0.314138 -0.310914 -0.307546 -0.304065 -0.300505 -0.296898 -0.293279 -0.289678 -0.286126 -0.282652 -0.279283 -0.276045 -0.272961 -0.270051 -0.267333 -0.264823 -0.262536 -0.260480 -0.258667 -0.257100 -0.255785 -0.254724 -0.253917 -0.253362 -0.253056 -0.252994 -0.253170 -0.253577 -0.254206 -0.255047 -0.256092 -0.257329 -0.258746 -0.260333 -0.262078 -0.263968 -0.265992 -0.268138 -0.270394 -0.272747 -0.275187 -0.277703 -0.280284 -0.282919 -0.285598 -0.288312 -0.291051 -0.293808 -0.296574 -0.299339 -0.302095 -0.304832 -0.307536 -0.310194 -0.312791 -0.315310 -0.317732 -0.320036 -0.322201 -0.324205 -0.326026 -0.327642 -0.329029 -0.330167 