-0.000000 0.000000 0.000000 0.000000 0.000000 0.000000 0.000000 -0.000000 0.000000 -0.000000 -0.000000 0.000000 -0.000000 -0.000000 -0.000000 0.000000 -0.000000 -0.000000 -0.000000 -0.000000 0.000000 -0.000000 0.000000 -0.000000 0.000000 -0.000000 -0.000000 -0.000000 -0.000000 0.000000 0.000000 0.000000 -0.000000 -0.000000 0.000000 0.000000 0.000000 0.000000 0.000000 -0.000000 -0.000000 -0.000000 0.000000 0.000000 0.000000 0.000000 -0.000000 0.000000 -0.000000 -0.000000 0.000000 -0.000000 0.000000 0.000000 -0.000000 0.000000 -0.000000 0.000000 0.000000 0.000000 -0.000000 0.000000 0.000000 0.000000 0.000000 -0.000000 0.000000 0.000000 0.000000 -0.000000 0.000000 0.000000 -0.000000 0.000000 -0.000000 0.000000 -0.000000 0.000000 0.000000 -0.000000 0.000000 0.000000 0.000000 0.000000 -0.000000 0.000000 -0.000000 -0.000000 -0.000000 -0.000001 -0.000002 -0.000007 -0.000019 -0.000041 -0.000079 -0.000142 -0.000238 -0.000378 -0.000573 -0.000837 -0.001183 -0.001624 -0.002175 -0.002850 -0.003663 -0.004626 -0.005753 -0.007054 -0.008539 -0.010218 -0.012096 -0.014181 -0.016476 -0.018984 -0.021705 -0.024640 -0.027786 -0.031140 -0.034696 -0.038449 -0.042392 -0.046516 -0.050812 -0.055270 -0.059879 -0.064628 -0.069504 -0.074497 -0.079592 -0.084779 -0.090043 -0.095373 -0.100756 -0.106180 -0.111632 -0.117101 -0.122575 -0.128044 -0.133496 -0.138923 -0.144314 -0.149660 -0.154953 -0.160185 -0.165349 -0.170438 -0.175445 -0.180366 -0.185194 -0.189926 -0.194556 -0.199078 -0.203488 -0.207778 -0.211941 -0.215967 -0.219847 -0.223568 -0.227120 -0.230489 -0.233662 -0.236624 -0.239364 -0.241866 -0.244119 -0.246111 -0.247830 -0.249269 -0.250421 -0.251282 -0.251852 -0.252133 -0.252131 -0.251856 -0.251318 -0.250533 -0.249518 -0.248292 -0.246876 -0.245292 -0.243564 -0.241715 -0.239770 -0.237753 -0.235688 -0.233597 -0.231503 -0.229426 -0.227387 -0.225403 -0.223491 -0.221667 -0.219943 -0.218331 -0.216841 -0.215482 -0.214260 -0.213180 -0.212246 -0.211461 -0.210825 -0.210337 -0.209997 -0.209802 -0.209748 -0.209832 -0.210048 -0.210391 -0.210855 -0.211433 -0.212119 -0.212906 -0.213786 -0.214753 -0.215797 -0.216914 -0.218094 -0.219331 -0.220617 -0.221947 -0.223313 -0.224709 -0.226128 -0.227566 -0.229016 -0.230474 -0.231933 -0.233388 -0.234834 -0.236262 -0.237665 -0.239032 -0.240354 -0.241617 -0.242810 -0.243917 -0.244925 -0.245817 -0.246579 -0.247195 -0.247650 -0.247930 -0.248022 -0.247914 -0.247597 -0.247063 -0.246309 -0.245332 -0.244136 -0.242725 -0.241109 -0.239298 -0.237306 -0.235150 -0.232848 -0.230421 -0.227888 -0.225274 -0.222599 -0.219887 -0.217161 -0.214441 -0.211751 -0.209109 -0.206535 -0.204047 -0.201662 -0.199393 -0.197254 -0.195256 -0.193410 -0.191723 -0.190202 -0.188852 -0.187676 -0.186677 -0.185854 -0.185207 -0.184735 -0.184434 -0.184301 -0.184331 -0.184519 -0.184857 -0.185341 -0.185962 -0.186714 -0.187587 -0.188575 -0.189670 -0.190862 -0.192144 -0.193508 -0.194946 -0.196449 -0.198010 -0.199622 -0.201277 -0.202968 -0.204689 -0.206434 -0.208196 -0.209969 -0.211748 -0.213525 -0.215295 -0.217048 -0.218775 -0.220466 -0.222109 -0.223691 -0.225198 -0.226615 -0.227927 -0.229118 -0.230172 -0.231073 -0.231808 -0.232360 -0.232718 -0.232870 -0.232807 -0.232522 -0.232012 -0.231276 -0.230317 -0.229142 -0.227759 -0.226181 -0.224422 -0.222499 -0.220431 -0.218238 -0.215942 -0.213566 -0.211131 -0.208661 -0.206179 -0.203706 -0.201263 -0.198870 -0.196547 -0.194310 -0.192176 -0.190159 -0.188273 -0.186527 -0.184932 -0.183494 -0.182221 -0.181117 -0.180185 -0.179427 -0.178842 -0.178430 -0.178189 -0.178115 -0.178205 -0.178454 -0.178855 -0.179404 -0.180092 -0.180913 -0.181859 -0.182922 -0.184094 -0.185367 -0.186733 -0.188183 -0.189710 -0.191306 -0.192961 -0.194670 -0.196424 -0.198217 -0.200041 -0.201890 -0.203757 -0.205638 -0.207525 -0.209413 -0.211295 -0.213164 -0.215012 -0.216829 -0.218604 -0.220326 -0.221981 -0.223555 -0.225034 -0.226401 -0.227641 -0.228739 -0.229679 -0.230447 -0.231027 -0.231407 -0.231576 -0.231521 -0.231235 -0.230710 -0.229939 -0.228918 -0.227645 -0.226119 -0.224340 -0.222311 -0.220036 -0.217519 -0.214768 -0.211789 -0.208593 -0.205188 -0.201586 -0.197798 -0.193836 -0.189713 -0.185441 -0.181033 -0.176504 -0.171866 -0.167134 -0.162319 -0.157437 -0.152498 -0.147516 -0.142500 -0.137456 -0.132385 -0.127281 -0.122130 -0.116908 -0.111584 -0.106118 -0.100462 -0.094562 -0.088358 -0.081786 -0.074778 -0.067267 -0.059184 -0.050464 -0.041042 -0.030859 -0.019861 -0.007999 0.004767 0.018474 0.033147 0.048807 0.065464 0.083121 0.101775 0.121414 0.142018 0.163563 0.186016 0.209340 0.233493 0.258426 0.284088 0.310426 0.337381 0.364894 0.392902 0.421344 0.450156 0.479275 0.508637 0.538180 0.567842 0.597564 0.627286 0.656953 0.686510 0.715905 0.745088 0.774013 0.802636 0.830914 0.858811 0.886290 0.913319 0.939868 0.965909 0.991419 1.016373 1.040749 1.064520 1.087656 1.110123 1.131881 1.152883 1.173077 1.192405 1.210805 1.228210 1.244553 1.259764 1.273774 1.286516 1.297924 1.307939 1.316505 1.323576 1.329115 1.333095 1.335507 1.336355 1.335660 1.333461 1.329811 1.324780 1.318452 1.310925 1.302306 1.292711 1.282266 1.271097 1.259338 1.247121 1.234577 1.221835 1.209021 1.196256 1.183652 1.171316 1.159347 1.147834 1.136858 1.126490 1.116793 1.107820 1.099614 1.092210 1.085634 1.079906 1.075034 1.071022 1.067866 1.065557 1.064080 1.063414 1.063535 1.064414 1.066019 1.068316 1.071267 1.074835 1.078978 1.083657 1.088829 1.094452 1.100486 1.106889 1.113620 1.120640 1.127910 1.135392 1.143053 1.150856 1.158769 1.166761 1.174803 1.182867 1.190922 1.198936 1.206873 1.214691 1.222343 1.229774 1.236924 1.243727 1.250110 1.255999 1.261316 1.265980 1.269911 1.273032 1.275267 1.276544 1.276798 1.275974 1.274027 1.270926 1.266656 1.261219 1.254632 1.246929 1.238161 1.228393 1.217703 1.206182 1.193930 1.181055 1.167669 1.153892 1.139840 1.125635 1.111394 1.097232 1.083258 1.069578 1.056290 1.043484 1.031245 1.019646 1.008753 0.998625 0.989309 0.980845 0.973265 0.966591 0.960839 0.956017 0.952126 0.949159 0.947105 0.945948 0.945665 0.946229 0.947612 0.949779 0.952694 0.956319 0.960615 0.965538 0.971047 0.977099 0.983651 0.990658 0.998079 1.005871 1.013992 1.022403 1.031065 1.039939 1.048989 1.058182 1.067484 1.076863 1.086289 1.095731 1.105154 1.114519 1.123784 1.132899 1.141807 1.150446 1.158747 1.166639 1.174042 1.180877 1.187063 1.192517 1.197161 1.200917 1.203711 1.205477 1.206157 1.205704 1.204084 1.201280 1.197290 1.192130 1.185829 1.178438 1.170018 1.160647 1.150413 1.139415 1.127761 1.115563 1.102938 1.090007 1.076889 1.063703 1.050563 1.037582 1.024866 1.012515 1.000620 0.989266 0.978530 0.968480 0.959173 0.950660 0.942983 0.936174 0.930257 0.925249 0.921159 0.917988 0.915732 0.914380 0.913915 0.914317 0.915559 0.917612 0.920443 0.924016 0.928292 0.933232 0.938795 0.944937 0.951616 0.958788 0.966410 0.974439 0.982833 0.991549 1.000548 1.009790 1.019237 1.028853 1.038603 1.048454 1.058375 1.068334 1.078302 1.088243 1.098122 1.107896 1.117517 1.126930 1.136074 1.144882 1.153283 1.161199 1.168551 1.175259 1.181241 1.186417 1.190708 1.194042 1.196349 1.197566 1.197637 1.196512 1.194151 1.190520 1.185597 1.179366 1.171820 1.162962 1.152802 1.141358 1.128655 1.114727 1.099612 1.083355 1.066007 1.047622 1.028259 1.007979 0.986848 0.964932 0.942299 0.919019 0.895161 0.870796 0.845991 0.820816 0.795338 0.769621 0.743730 0.717724 0.691661 0.665593 0.639571 0.613640 0.587838 0.562204 0.536768 0.511558 0.486595 0.461900 0.437488 0.413373 0.389564 0.366069 0.342894 0.320044 0.297522 0.275328 0.253465 0.231933 0.210732 0.189862 0.169323 0.149115 0.129238 0.109693 0.090480 0.071599 0.053053 0.034843 0.016970 -0.000564 -0.017756 -0.034604 -0.051105 -0.067258 -0.083058 -0.098504 -0.113593 -0.128323 -0.142691 -0.156695 -0.170333 -0.183604 -0.196506 -0.209038 -0.221199 -0.232989 -0.244409 -0.255458 -0.266137 -0.276448 -0.286391 -0.295969 -0.305185 -0.314041 -0.322539 -0.330684 -0.338479 -0.345928 -0.353032 -0.359794 -0.366215 -0.372295 -0.378031 -0.383420 -0.388458 -0.393141 -0.397460 -0.401409 -0.404979 -0.408164 -0.410955 -0.413345 -0.415329 -0.416900 -0.418056 -0.418796 -0.419120 -0.419035 -0.418546 -0.417666 -0.416408 -0.414789 -0.412827 -0.410546 -0.407969 -0.405123 -0.402034 -0.398731 -0.395242 -0.391596 -0.387820 -0.383944 -0.379994 -0.375997 -0.371977 -0.367957 -0.363960 -0.360006 -0.356114 -0.352299 -0.348577 -0.344961 -0.341463 -0.338091 -0.334853 -0.331756 -0.328805 -0.326003 -0.323351 -0.320850 -0.318501 -0.316301 -0.314247 -0.312338 -0.310569 -0.308935 -0.307431 -0.306053 -0.304793 -0.303647 -0.302608 -0.301669 -0.300825 -0.300068 -0.299393 -0.298792 -0.298261 -0.297793 -0.297381 -0.297022 -0.296708 -0.296436 -0.296199 -0.295994 -0.295815 -0.295655 -0.295508 -0.295366 -0.295218 -0.295053 -0.294861 -0.294626 -0.294336 -0.293976 -0.293529 -0.292978 -0.292310 -0.291507 -0.290556 -0.289442 -0.288154 -0.286680 -0.285013 -0.283149 -0.281085 -0.278823 -0.276368 -0.273727 -0.270912 -0.267935 -0.264814 -0.261566 -0.258212 -0.254773 -0.251272 -0.247731 -0.244172 -0.240620 -0.237096 -0.233621 -0.230216 -0.226901 -0.223694 -0.220610 -0.217666 -0.214874 -0.212245 -0.209790 -0.207517 -0.205432 -0.203540 -0.201845 -0.200347 -0.199048 -0.197946 -0.197039 -0.196325 -0.195798 -0.195453 -0.195285 -0.195288 -0.195452 -0.195772 -0.196239 -0.196845 -0.197581 -0.198438 -0.199407 -0.200480 -0.201648 -0.202903 -0.204235 -0.205637 -0.207100 -0.208617 -0.210180 -0.211782 -0.213416 -0.215076 -0.216755 -0.218447 -0.220145 -0.221842 -0.223530 -0.225198 -0.226836 -0.228433 -0.229974 -0.231445 -0.232833 -0.234121 -0.235293 -0.236331 -0.237221 -0.237945 -0.238490 -0.238841 -0.238987 -0.238917 -0.238624 -0.238103 -0.237355 -0.236380 -0.235184 -0.233776 -0.232167 -0.230372 -0.228406 -0.226290 -0.224043 -0.221689 -0.219248 -0.216746 -0.214204 -0.211645 -0.209093 -0.206569 -0.204093 -0.201685 -0.199364 -0.197145 -0.195044 -0.193074 -0.191247 -0.189573 -0.188059 -0.186713 -0.185539 -0.184541 -0.183721 -0.183078 -0.182614 -0.182324 -0.182207 -0.182259 -0.182474 -0.182847 -0.183371 -0.184040 -0.184847 -0.185783 -0.186841 -0.188012 -0.189288 -0.190661 -0.192122 -0.193663 -0.195276 -0.196952 -0.198685 -0.200465 -0.202286 -0.204140 -0.206022 -0.207924 -0.209840 -0.211764 -0.213691 -0.215613 -0.217524 -0.219414 -0.221275 -0.223097 -0.224865 -0.226569 -0.228193 -0.229722 -0.231143 -0.232437 -0.233589 -0.234582 -0.235402 -0.236034 -0.236463 -0.236679 -0.236669 -0.236423 -0.235935 -0.235197 -0.234204 -0.232954 -0.231446 -0.229679 -0.227655 -0.225379 -0.222855 -0.220090 -0.217092 -0.213868 -0.210430 -0.206788 -0.202953 -0.198938 -0.194756 -0.190419 -0.185941 -0.181336 -0.176617 -0.171798 -0.166894 -0.161916 -0.156879 -0.151795 -0.146674 -0.141523 -0.136342 -0.131126 -0.125860 -0.120523 -0.115082 -0.109499 -0.103725 -0.097707 -0.091385 -0.084695 -0.077571 -0.069943 -0.061745 -0.052910 -0.043375 -0.033080 -0.021972 -0.010003 0.002870 0.016681 0.031456 0.047216 0.063970 0.081723 0.100470 0.120199 0.140891 0.162522 0.185058 0.208463 0.232693 0.257702 0.283438 0.309846 0.336869 0.364447 0.392519 0.421022 0.449893 0.479068 0.508485 0.538080 0.567792 0.597562 0.627330 0.657040 0.686639 0.716074 0.745295 0.774256 0.802913 0.831225 0.859153 0.886662 0.913718 0.940293 0.966360 0.991893 1.016870 1.041266 1.065056 1.088211 1.110695 1.132469 1.153486 1.173693 1.193034 1.211445 1.228861 1.245213 1.260433 1.274450 1.287198 1.298613 1.308634 1.317209 1.324296 1.329864 1.333898 1.336397 1.337376 1.336870 1.334926 1.331609 1.326998 1.321182 1.314265 1.306358 1.297577 1.288046 1.277891 1.267238 1.256214 1.244943 1.233545 1.222136 1.210824 1.199714 1.188899 1.178467 1.168496 1.159055 1.150206 1.142000 1.134480 1.127682 1.121631 1.116347 1.111842 1.108119 1.105177 1.103008 1.101600 1.100935 1.100990 1.101741 1.103158 1.105210 1.107863 1.111082 1.114830 1.119070 1.123762 1.128869 1.134352 1.140174 1.146296 1.152682 1.159296 1.166104 1.173073 1.180171 1.187368 1.194635 1.201944 1.209268 1.216578 1.223841 1.231019 1.238070 1.244944 1.251585 1.257930 1.263911 1.269456 1.274487 1.278927 1.282696 1.285714 1.287904 1.289192 1.289509 1.288795 1.287001 1.284089 1.280038 1.274843 1.268513 1.261077 1.252578 1.243075 1.232641 1.221360 1.209327 1.196645 1.183426 1.169783 1.155832 1.141692 1.127479 1.113307 1.099286 1.085521 1.072111 1.059148 1.046717 1.034893 1.023744 1.013331 1.003703 0.994902 0.986963 0.979911 0.973763 0.968529 0.964213 0.960812 0.958315 0.956708 0.955970 0.956078 0.957004 0.958715 0.961176 0.964352 0.968203 0.972689 0.977768 0.983399 0.989538 0.996143 1.003172 1.010584 1.018337 1.026391 1.034708 1.043250 1.051981 1.060867 1.069875 1.078972 1.088130 1.097316 1.106498 1.115638 1.124693 1.133616 1.142352 1.150839 1.159010 1.166793 1.174111 1.180885 1.187033 1.192473 1.197125 1.200911 1.203757 1.205593 1.206359 1.206005 1.204493 1.201801 1.197921 1.192863 1.186654 1.179338 1.170972 1.161631 1.151398 1.140372 1.128656 1.116363 1.103610 1.090517 1.077203 1.063790 1.050394 1.037129 1.024104 1.011420 0.999175 0.987454 0.976338 0.965897 0.956194 0.947282 0.939205 0.931998 0.925689 0.920297 0.915833 0.912301 0.909698 0.908014 0.907236 0.907343 0.908310 0.910109 0.912706 0.916067 0.920155 0.924927 0.930344 0.936363 0.942940 0.950031 0.957592 0.965580 0.973951 0.982664 0.991677 1.000949 1.010443 1.020120 1.029945 1.039884 1.049905 1.059976 1.070067 1.080144 1.090174 1.100114 1.109920 1.119540 1.128914 1.137978 1.146661 1.154889 1.162584 1.169665 1.176051 1.181660 1.186414 1.190237 1.193058 1.194811 1.195438 1.194886 1.193110 1.190076 1.185756 1.180130 1.173189 1.164933 1.155367 1.144507 1.132375 1.119003 1.104425 1.088686 1.071832 1.053918 1.034999 1.015138 0.994397 0.972843 0.950543 0.927566 0.903982 0.879861 0.855273 0.830284 0.804965 0.779380 0.753593 0.727667 0.701659 0.675624 0.649614 0.623674 0.597846 0.572169 0.546675 0.521392 0.496349 0.471563 0.447053 0.422832 0.398913 0.375304 0.352013 0.329045 0.306403 0.284091 0.262111 0.240463 0.219149 0.198169 0.177523 0.157211 0.137235 0.117594 0.098290 0.079322 0.060694 0.042405 0.024458 0.006854 -0.010403 -0.027313 -0.043873 -0.060079 -0.075931 -0.091425 -0.106558 -0.121330 -0.135737 -0.149778 -0.163451 -0.176754 -0.189686 -0.202247 -0.214436 -0.226253 -0.237697 -0.248770 -0.259472 -0.269805 -0.279770 -0.289369 -0.298605 -0.307480 -0.315999 -0.324163 -0.331977 -0.339445 -0.346569 -0.353352 -0.359795 -0.365897 -0.371658 -0.377075 -0.382143 -0.386859 -0.391216 -0.395207 -0.398826 -0.402063 -0.404913 -0.407367 -0.409420 -0.411067 -0.412303 -0.413128 -0.413542 -0.413548 -0.413154 -0.412369 -0.411206 -0.409681 -0.407812 -0.405620 -0.403128 -0.400361 -0.397347 -0.394113 -0.390686 -0.387095 -0.383368 -0.379532 -0.375616 -0.371644 -0.367643 -0.363635 -0.359643 -0.355688 -0.351788 -0.347960 -0.344219 -0.340580 -0.337054 -0.333650 -0.330377 -0.327242 -0.324250 -0.321405 -0.318708 -0.316161 -0.313764 -0.311515 -0.309413 -0.307455 -0.305637 -0.303955 -0.302404 -0.300979 -0.299674 -0.298483 -0.297401 -0.296420 -0.295535 -0.294740 -0.294027 -0.293391 -0.292826 -0.292325 -0.291883 -0.291494 -0.291153 -0.290855 -0.290595 -0.290367 -0.290168 -0.289990 -0.289829 -0.289675 -0.289520 -0.289354 -0.289166 -0.288942 -0.288670 -0.288335 -0.287922 -0.287415 -0.286798 -0.286057 -0.285176 -0.284141 -0.282940 -0.281562 -0.279999 -0.278245 -0.276298 -0.274157 -0.271827 -0.269315 -0.266629 -0.263783 -0.260791 -0.257671 -0.254442 -0.251125 -0.247740 -0.244311 -0.240858 -0.237405 -0.233973 -0.230583 -0.227256 -0.224010 -0.220863 -0.217833 -0.214933 -0.212177 -0.209578 -0.207144 -0.204884 -0.202804 -0.200911 -0.199207 -0.197695 -0.196375 -0.195247 -0.194309 -0.193558 -0.192990 -0.192600 -0.192383 -0.192333 -0.192442 -0.192704 -0.193110 -0.193653 -0.194325 -0.195116 -0.196019 -0.197024 -0.198124 -0.199310 -0.200574 -0.201907 -0.203302 -0.204751 -0.206246 -0.207782 -0.209350 -0.210945 -0.212560 -0.214190 -0.215827 -0.217465 -0.219096 -0.220710 -0.222297 -0.223847 -0.225345 -0.226779 -0.228134 -0.229396 -0.230546 -0.231571 -0.232453 -0.233177 -0.233728 -0.234093 -0.234260 -0.234217 -0.233957 -0.233474 -0.232768 -0.231838 -0.230689 -0.229329 -0.227768 -0.226020 -0.224098 -0.222023 -0.219814 -0.217493 -0.215081 -0.212601 -0.210075 -0.207527 -0.204980 -0.202454 -0.199970 -0.197549 -0.195207 -0.192964 -0.190832 -0.188827 -0.186960 -0.185242 -0.183681 -0.182284 -0.181056 -0.180002 -0.179124 -0.178422 -0.177897 -0.177546 -0.177367 -0.177357 -0.177510 -0.177822 -0.178286 -0.178896 -0.179644 -0.180523 -0.181526 -0.182644 -0.183869 -0.185192 -0.186606 -0.188102 -0.189671 -0.191307 -0.193000 -0.194743 -0.196530 -0.198352 -0.200203 -0.202077 -0.203967 -0.205867 -0.207772 -0.209675 -0.211569 -0.213448 -0.215300 -0.217118 -0.218889 -0.220602 -0.222241 -0.223794 -0.225246 -0.226580 -0.227781 -0.228833 -0.229721 -0.230430 -0.230946 -0.231256 -0.231350 -0.231217 -0.230849 -0.230238 -0.229379 -0.228269 -0.226906 -0.225290 -0.223421 -0.221303 -0.218940 -0.216338 -0.213504 -0.210446 -0.207174 -0.203698 -0.200028 -0.196176 -0.192155 -0.187978 -0.183657 -0.179206 -0.174638 -0.169967 -0.165206 -0.160369 -0.155467 -0.150516 -0.145526 -0.140510 -0.135483 -0.130458 -0.125449 -0.120473 -0.115547 -0.110688 -0.105915 -0.101249 -0.096708 -0.092313 -0.088085 -0.084043 -0.080207 -0.076596 -0.073226 -0.070114 -0.067274 -0.064720 -0.062463 -0.060512 -0.058875 -0.057557 -0.056562 -0.055892 -0.055546 -0.055522 -0.055817 -0.056424 -0.057338 -0.058550 -0.060051 -0.061829 -0.063873 -0.066171 -0.068709 -0.071474 -0.074451 -0.077627 -0.080985 -0.084511 -0.088190 -0.092007 -0.095948 -0.099998 -0.104143 -0.108369 -0.112663 -0.117012 -0.121403 -0.125826 -0.130267 -0.134718 -0.139168 -0.143607 -0.148026 -0.152418 -0.156775 -0.161089 -0.165354 -0.169564 -0.173712 -0.177790 -0.181790 -0.185702 -0.189518 -0.193224 -0.196808 -0.200258 -0.203557 -0.206692 -0.209648 -0.212408 -0.214959 -0.217287 -0.219377 -0.221217 -0.222797 -0.224109 -0.225148 -0.225912 -0.226401 -0.226619 -0.226575 -0.226279 -0.225744 -0.224988 -0.224027 -0.222883 -0.221576 -0.220131 -0.218570 -0.216918 -0.215198 -0.213433 -0.211648 -0.209863 -0.208101 -0.206380 -0.204719 -0.203134 -0.201642 -0.200254 -0.198983 -0.197839 -0.196830 -0.195963 -0.195242 -0.194672 -0.194254 -0.193990 -0.193878 -0.193917 -0.194104 -0.194436 -0.194908 -0.195515 -0.196251 -0.197109 -0.198083 -0.199166 -0.200350 -0.201628 -0.202992 -0.204433 -0.205945 -0.207520 -0.209149 -0.210826 -0.212544 -0.214295 -0.216073 -0.217871 -0.219684 -0.221505 -0.223328 -0.225149 -0.226962 -0.228760 -0.230537 -0.232283 -0.233989 -0.235645 -0.237238 -0.238755 -0.240183 -0.241505 -0.242706 -0.243772 -0.244685 -0.245432 -0.245996 -0.246365 -0.246526 -0.246469 -0.246184 -0.245667 -0.244916 -0.243931 -0.242716 -0.241280 -0.239632 -0.237786 -0.235758 -0.233567 -0.231233 -0.228777 -0.226221 -0.223589 -0.220905 -0.218193 -0.215475 -0.212773 -0.210111 -0.207508 -0.204983 -0.202554 -0.200237 -0.198047 -0.195997 -0.194097 -0.192356 -0.190783 -0.189384 -0.188162 -0.187120 -0.186260 -0.185582 -0.185084 -0.184764 -0.184618 -0.184643 -0.184832 -0.185180 -0.185680 -0.186325 -0.187107 -0.188018 -0.189051 -0.190196 -0.191446 -0.192792 -0.194225 -0.195737 -0.197320 -0.198966 -0.200666 -0.202414 -0.204201 -0.206021 -0.207867 -0.209733 -0.211613 -0.213500 -0.215388 -0.217270 -0.219140 -0.220987 -0.222801 -0.224573 -0.226288 -0.227933 -0.229494 -0.230955 -0.232301 -0.233514 -0.234580 -0.235482 -0.236206 -0.236738 -0.237064 -0.237175 -0.237062 -0.236720 -0.236147 -0.235345 -0.234317 -0.233073 -0.231623 -0.229979 -0.228160 -0.226183 -0.224067 -0.221834 -0.219507 -0.217109 -0.214662 -0.212189 -0.209714 -0.207258 -0.204842 -0.202485 -0.200207 -0.198024 -0.195951 -0.194003 -0.192191 -0.190525 -0.189015 -0.187668 -0.186488 -0.185480 -0.184646 -0.183987 -0.183503 -0.183192 -0.183051 -0.183076 -0.183264 -0.183609 -0.184104 -0.184744 -0.185521 -0.186427 -0.187455 -0.188596 -0.189843 -0.191187 -0.192621 -0.194134 -0.195721 -0.197371 -0.199079 -0.200835 -0.202633 -0.204466 -0.206327 -0.208209 -0.210106 -0.212013 -0.213923 -0.215830 -0.217727 -0.219606 -0.221457 -0.223271 -0.225035 -0.226736 -0.228361 -0.229895 -0.231321 -0.232624 -0.233789 -0.234798 -0.235638 -0.236292 -0.236748 -0.236992 -0.237013 -0.236801 -0.236348 -0.235646 -0.234691 -0.233480 -0.232010 -0.230282 -0.228298 -0.226060 -0.223574 -0.220846 -0.217883 -0.214693 -0.211287 -0.207675 -0.203868 -0.199879 -0.195720 -0.191404 -0.186944 -0.182355 -0.177650 -0.172843 -0.167947 -0.162976 -0.157943 -0.152861 -0.147744 -0.142603 -0.137454 -0.132309 -0.127185 -0.122097 -0.117063 -0.112101 -0.107229 -0.102467 -0.097835 -0.093354 -0.089043 -0.084922 -0.081010 -0.077325 -0.073885 -0.070704 -0.067797 -0.065176 -0.062853 -0.060836 -0.059132 -0.057746 -0.056681 -0.055939 -0.055519 -0.055419 -0.055634 -0.056159 -0.056987 -0.058109 -0.059516 -0.061198 -0.063142 -0.065336 -0.067767 -0.070421 -0.073285 -0.076343 -0.079581 -0.082985 -0.086539 -0.090229 -0.094041 -0.097960 -0.101973 -0.106066 -0.110225 -0.114440 -0.118696 -0.122984 -0.127291 -0.131607 -0.135924 -0.140230 -0.144519 -0.148781 -0.153009 -0.157197 -0.161338 -0.165426 -0.169453 -0.173412 -0.177295 -0.181093 -0.184795 -0.188389 -0.191864 -0.195204 -0.198397 -0.201428 -0.204280 -0.206941 -0.209395 -0.211629 -0.213628 -0.215383 -0.216882 -0.218119 -0.219088 -0.219789 -0.220222 -0.220393 -0.220310 -0.219983 -0.219426 -0.218657 -0.217692 -0.216552 -0.215258 -0.213834 -0.212301 -0.210684 -0.209006 -0.207290 -0.205558 -0.203831 -0.202130 -0.200474 -0.198880 -0.197364 -0.195941 -0.194623 -0.193422 -0.192347 -0.191405 -0.190604 -0.189947 -0.189438 -0.189078 -0.188868 -0.188807 -0.188894 -0.189124 -0.189496 -0.190003 -0.190642 -0.191405 -0.192287 -0.193281 -0.194379 -0.195575 -0.196861 -0.198229 -0.199672 -0.201181 -0.202751 -0.204372 -0.206039 -0.207744 -0.209479 -0.211240 -0.213019 -0.214810 -0.216608 -0.218408 -0.220204 -0.221990 -0.223760 -0.225507 -0.227223 -0.228897 -0.230519 -0.232078 -0.233559 -0.234948 -0.236232 -0.237394 -0.238419 -0.239293 -0.240000 -0.240526 -0.240858 -0.240984 -0.240894 -0.240581 -0.240041 -0.239272 -0.238276 -0.237059 -0.235628 -0.233994 -0.232172 -0.230179 -0.228031 -0.225750 -0.223357 -0.220873 -0.218322 -0.215727 -0.213111 -0.210495 -0.207902 -0.205352 -0.202865 -0.200458 -0.198150 -0.195954 -0.193884 -0.191953 -0.190170 -0.188544 -0.187081 -0.185788 -0.184667 -0.183721 -0.182951 -0.182357 -0.181936 -0.181686 -0.181603 -0.181684 -0.181921 -0.182311 -0.182845 -0.183516 -0.184318 -0.185243 -0.186282 -0.187428 -0.188671 -0.190005 -0.191420 -0.192910 -0.194465 -0.196078 -0.197741 -0.199448 -0.201190 -0.202962 -0.204758 -0.206570 -0.208393 -0.210222 -0.212049 -0.213868 -0.215671 -0.217449 -0.219191 -0.220886 -0.222521 -0.224083 -0.225557 -0.226927 -0.228178 -0.229294 -0.230260 -0.231060 -0.231680 -0.232107 -0.232328 -0.232335 -0.232119 -0.231677 -0.231006 -0.230110 -0.228993 -0.227663 -0.226131 -0.224413 -0.222523 -0.220482 -0.218308 -0.216023 -0.213649 -0.211209 -0.208727 -0.206224 -0.203724 -0.201248 -0.198816 -0.196449 -0.194163 -0.191976 -0.189903 -0.187957 -0.186150 -0.184492 -0.182991 -0.181655 -0.180487 -0.179493 -0.178673 -0.178029 -0.177559 -0.177263 -0.177138 -0.177178 -0.177381 -0.177740 -0.178250 -0.178903 -0.179692 -0.180610 -0.181649 -0.182801 -0.184058 -0.185411 -0.186852 -0.188372 -0.189965 -0.191621 -0.193333 -0.195094 -0.196895 -0.198730 -0.200593 -0.202476 -0.204374 -0.206281 -0.208191 -0.210098 -0.211994 -0.213872 -0.215722 -0.217535 -0.219298 -0.221000 -0.222626 -0.224162 -0.225592 -0.226902 -0.228074 -0.229094 -0.229947 -0.230618 -0.231093 -0.231361 -0.231410 -0.231230 -0.230813 -0.230152 -0.229243 -0.228082 -0.226667 -0.224999 -0.223080 -0.220912 -0.218500 -0.215850 -0.212969 -0.209867 -0.206552 -0.203035 -0.199327 -0.195439 -0.191385 -0.187177 -0.182828 -0.178351 -0.173761 -0.169070 -0.164291 -0.159439 -0.154526 -0.149564 -0.144567 -0.139547 -0.134517 -0.129491 -0.124484 -0.119512 -0.114591 -0.109739 -0.104975 -0.100319 -0.095789 -0.091408 -0.087194 -0.083167 -0.079347 -0.075753 -0.072400 -0.069306 -0.066486 -0.063951 -0.061714 -0.059783 -0.058166 -0.056869 -0.055894 -0.055244 -0.054919 -0.054915 -0.055230 -0.055858 -0.056792 -0.058024 -0.059544 -0.061341 -0.063404 -0.065721 -0.068278 -0.071060 -0.074055 -0.077248 -0.080623 -0.084165 -0.087860 -0.091693 -0.095649 -0.099714 -0.103874 -0.108114 -0.112421 -0.116783 -0.121188 -0.125622 -0.130076 -0.134539 -0.139000 -0.143450 -0.147880 -0.152282 -0.156649 -0.160973 -0.165248 -0.169467 -0.173623 -0.177709 -0.181718 -0.185638 -0.189461 -0.193175 -0.196766 -0.200222 -0.203529 -0.206670 -0.209631 -0.212398 -0.214955 -0.217288 -0.219383 -0.221228 -0.222812 -0.224128 -0.225170 -0.225934 -0.226423 -0.226639 -0.226591 -0.226288 -0.225744 -0.224975 -0.223999 -0.222836 -0.221508 -0.220038 -0.218450 -0.216767 -0.215014 -0.213215 -0.211393 -0.209569 -0.207767 -0.206004 -0.204301 -0.202674 -0.201139 -0.199709 -0.198396 -0.197211 -0.196161 -0.195255 -0.194497 -0.193892 -0.193440 -0.193144 -0.193002 -0.193014 -0.193176 -0.193486 -0.193938 -0.194528 -0.195249 -0.196095 -0.197059 -0.198135 -0.199314 -0.200589 -0.201952 -0.203395 -0.204911 -0.206491 -0.208128 -0.209814 -0.211543 -0.213306 -0.215098 -0.216911 -0.218740 -0.220578 -0.222420 -0.224260 -0.226093 -0.227913 -0.229712 -0.231482 -0.233214 -0.234898 -0.236521 -0.238071 -0.239534 -0.240893 -0.242135 -0.243244 -0.244204 -0.244999 -0.245615 -0.246038 -0.246255 -0.246254 -0.246028 -0.245570 -0.244877 -0.243950 -0.242792 -0.241410 -0.239814 -0.238017 -0.236034 -0.233884 -0.231586 -0.229161 -0.226632 -0.224022 -0.221355 -0.218654 -0.215943 -0.213244 -0.210579 -0.207970 -0.205434 -0.202992 -0.200658 -0.198447 -0.196374 -0.194448 -0.192681 -0.191079 -0.189650 -0.188397 -0.187323 -0.186432 -0.185721 -0.185192 -0.184840 -0.184664 -0.184658 -0.184819 -0.185139 -0.185612 -0.186231 -0.186989 -0.187878 -0.188890 -0.190016 -0.191248 -0.192577 -0.193996 -0.195494 -0.197065 -0.198701 -0.200392 -0.202132 -0.203913 -0.205729 -0.207571 -0.209434 -0.211312 -0.213199 -0.215088 -0.216973 -0.218846 -0.220698 -0.222520 -0.224301 -0.226029 -0.227689 -0.229268 -0.230750 -0.232120 -0.233360 -0.234457 -0.235393 -0.236153 -0.236723 -0.237090 -0.237243 -0.237173 -0.236872 -0.236339 -0.235573 -0.234577 -0.233357 -0.231925 -0.230292 -0.228474 -0.226488 -0.224354 -0.222093 -0.219727 -0.217280 -0.214775 -0.212234 -0.209683 -0.207142 -0.204634 -0.202179 -0.199797 -0.197506 -0.195321 -0.193259 -0.191331 -0.189549 -0.187922 -0.186460 -0.185167 -0.184048 -0.183106 -0.182344 -0.181760 -0.181355 -0.181125 -0.181068 -0.181179 -0.181454 -0.181885 -0.182467 -0.183193 -0.184055 -0.185045 -0.186155 -0.187377 -0.188703 -0.190123 -0.191630 -0.193215 -0.194870 -0.196586 -0.198357 -0.200174 -0.202029 -0.203917 -0.205829 -0.207760 -0.209704 -0.211654 -0.213605 -0.215549 -0.217480 -0.219388 -0.221264 -0.223097 -0.224874 -0.226583 -0.228209 -0.229736 -0.231149 -0.232432 -0.233568 -0.234543 -0.235341 -0.235947 -0.236348 -0.236532 -0.236488 -0.236207 -0.235681 -0.234904 -0.233871 -0.232579 -0.231029 -0.229220 -0.227155 -0.224838 -0.222274 -0.219470 -0.216434 -0.213175 -0.209702 -0.206027 -0.202162 -0.198119 -0.193911 -0.189551 -0.185052 -0.180428 -0.175694 -0.170862 -0.165946 -0.160960 -0.155917 -0.150829 -0.145704 -0.140547 -0.135357 -0.130125 -0.124833 -0.119455 -0.113958 -0.108298 -0.102425 -0.096283 -0.089810 -0.082941 -0.075609 -0.067746 -0.059285 -0.050160 -0.040310 -0.029677 -0.018211 -0.005865 0.007400 0.021615 0.036803 0.052981 0.070156 0.088329 0.107492 0.127630 0.148723 0.170741 0.193651 0.217412 0.241981 0.267307 0.293339 0.320020 0.347293 0.375095 0.403366 0.432043 0.461061 0.490358 0.519871 0.549538 0.579297 0.609089 0.638857 0.668545 0.698099 0.727469 0.756607 0.785465 0.814003 0.842179 0.869957 0.897301 0.924181 0.950568 0.976435 1.001760 1.026518 1.050686 1.074237 1.097138 1.119353 1.140839 1.161548 1.181425 1.200410 1.218440 1.235447 1.251362 1.266117 1.279642 1.291871 1.302742 1.312198 1.320190 1.326683 1.331653 1.335091 1.337005 1.337419 1.336375 1.333928 1.330151 1.325126 1.318952 1.311734 1.303586 1.294629 1.284984 1.274780 1.264140 1.253191 1.242052 1.230842 1.219672 1.208647 1.197865 1.187416 1.177383 1.167838 1.158846 1.150463 1.142736 1.135703 1.129395 1.123835 1.119036 1.115007 1.111750 1.109259 1.107525 1.106531 1.106259 1.106685 1.107781 1.109519 1.111865 1.114786 1.118246 1.122207 1.126633 1.131485 1.136726 1.142317 1.148222 1.154404 1.160826 1.167455 1.174257 1.181200 1.188254 1.195389 1.202578 1.209793 1.217007 1.224188 1.231301 1.238306 1.245156 1.251798 1.258171 1.264209 1.269842 1.274995 1.279590 1.283547 1.286787 1.289231 1.290804 1.291435 1.291062 1.289629 1.287098 1.283441 1.278647 1.272722 1.265690 1.257587 1.248470 1.238405 1.227474 1.215768 1.203388 1.190442 1.177041 1.163301 1.149339 1.135271 1.121211 1.107268 1.093549 1.080154 1.067176 1.054700 1.042805 1.031559 1.021026 1.011256 1.002294 0.994176 0.986929 0.980573 0.975120 0.970574 0.966935 0.964195 0.962340 0.961351 0.961207 0.961879 0.963338 0.965550 0.968479 0.972087 0.976335 0.981181 0.986585 0.992503 0.998895 1.005719 1.012932 1.020494 1.028366 1.036508 1.044883 1.053455 1.062190 1.071054 1.080017 1.089046 1.098113 1.107185 1.116224 1.125190 1.134037 1.142710 1.151149 1.159289 1.167059 1.174381 1.181178 1.187369 1.192870 1.197602 1.201486 1.204446 1.206415 1.207332 1.207148 1.205829 1.203353 1.199717 1.194935 1.189036 1.182065 1.174083 1.165165 1.155397 1.144874 1.133701 1.121988 1.109849 1.097402 1.084763 1.072048 1.059369 1.046837 1.034553 1.022617 1.011117 1.000137 0.989751 0.980026 0.971019 0.962778 0.955345 0.948752 0.943022 0.938172 0.934211 0.931140 0.928956 0.927648 0.927200 0.927592 0.928798 0.930791 0.933538 0.937004 0.941153 0.945946 0.951342 0.957301 0.963780 0.970738 0.978132 0.985920 0.994062 1.002518 1.011247 1.020212 1.029377 1.038705 1.048163 1.057718 1.067341 1.077001 1.086668 1.096307 1.105880 1.115346 1.124653 1.133748 1.142567 1.151043 1.159103 1.166670 1.173664 1.180004 1.185608 1.190398 1.194295 1.197227 1.199125 1.199928 1.199581 1.198036 1.195253 1.191201 1.185860 1.179213 1.171258 1.161997 1.151442 1.139613 1.126537 1.112247 1.096785 1.080194 1.062527 1.043839 1.024190 1.003640 0.982257 0.960106 0.937256 0.913776 0.889736 0.865206 0.840253 0.814947 0.789354 0.763539 0.737565 0.711491 0.685374 0.659268 0.633222 0.607281 0.581483 0.555866 0.530461 0.505294 0.480388 0.455764 0.431437 0.407418 0.383717 0.360343 0.337300 0.314593 0.292223 0.270193 0.248502 0.227151 0.206139 0.185465 0.165130 0.145131 0.125470 0.106144 0.087156 0.068503 0.050189 0.032212 0.014574 -0.002722 -0.019676 -0.036286 -0.052550 -0.068465 -0.084029 -0.099240 -0.114097 -0.128596 -0.142735 -0.156514 -0.169930 -0.182982 -0.195668 -0.207988 -0.219942 -0.231529 -0.242749 -0.253603 -0.264091 -0.274215 -0.283977 -0.293378 -0.302421 -0.311108 -0.319443 -0.327429 -0.335070 -0.342369 -0.349329 -0.355952 -0.362240 -0.368191 -0.373806 -0.379080 -0.384011 -0.388592 -0.392818 -0.396684 -0.400180 -0.403300 -0.406035 -0.408379 -0.410325 -0.411868 -0.413004 -0.413732 -0.414051 -0.413965 -0.413480 -0.412607 -0.411357 -0.409745 -0.407791 -0.405514 -0.402937 -0.400086 -0.396987 -0.393668 -0.390156 -0.386480 -0.382668 -0.378749 -0.374749 -0.370696 -0.366613 -0.362526 -0.358456 -0.354424 -0.350450 -0.346550 -0.342741 -0.339035 -0.335446 -0.331982 -0.328653 -0.325466 -0.322424 -0.319534 -0.316795 -0.314211 -0.311780 -0.309502 -0.307375 -0.305395 -0.303559 -0.301863 -0.300302 -0.298870 -0.297562 -0.296371 -0.295292 -0.294318 -0.293443 -0.292660 -0.291962 -0.291344 -0.290798 -0.290320 -0.289902 -0.289540 -0.289227 -0.288958 -0.288729 -0.288534 -0.288368 -0.288226 -0.288101 -0.287985 -0.287871 -0.287748 -0.287604 -0.287428 -0.287205 -0.286923 -0.286565 -0.286116 -0.285561 -0.284883 -0.284068 -0.283101 -0.281971 -0.280665 -0.279175 -0.277494 -0.275620 -0.273552 -0.271292 -0.268848 -0.266228 -0.263445 -0.260511 -0.257445 -0.254266 -0.250994 -0.247650 -0.244255 -0.240833 -0.237405 -0.233992 -0.230618 -0.227301 -0.224062 -0.220918 -0.217886 -0.214981 -0.212218 -0.209607 -0.207160 -0.204884 -0.202788 -0.200876 -0.199153 -0.197620 -0.196279 -0.195130 -0.194170 -0.193397 -0.192808 -0.192398 -0.192161 -0.192092 -0.192184 -0.192428 -0.192819 -0.193347 -0.194005 -0.194784 -0.195676 -0.196672 -0.197764 -0.198943 -0.200200 -0.201529 -0.202920 -0.204367 -0.205862 -0.207397 -0.208966 -0.210563 -0.212181 -0.213814 -0.215456 -0.217100 -0.218738 -0.220361 -0.221960 -0.223522 -0.225036 -0.226488 -0.227863 -0.229148 -0.230326 -0.231380 -0.232294 -0.233054 -0.233643 -0.234049 -0.234258 -0.234260 -0.234046 -0.233610 -0.232949 -0.232065 -0.230961 -0.229644 -0.228123 -0.226411 -0.224523 -0.222478 -0.220295 -0.217995 -0.215600 -0.213131 -0.210614 -0.208069 -0.205520 -0.202988 -0.200494 -0.198059 -0.195700 -0.193435 -0.191280 -0.189249 -0.187353 -0.185604 -0.184010 -0.182580 -0.181318 -0.180228 -0.179314 -0.178577 -0.178016 -0.177630 -0.177416 -0.177372 -0.177493 -0.177773 -0.178206 -0.178787 -0.179508 -0.180361 -0.181339 -0.182434 -0.183638 -0.184942 -0.186337 -0.187817 -0.189372 -0.190994 -0.192676 -0.194409 -0.196187 -0.198002 -0.199848 -0.201717 -0.203604 -0.205502 -0.207406 -0.209309 -0.211206 -0.213087 -0.214945 -0.216771 -0.218552 -0.220276 -0.221931 -0.223503 -0.224976 -0.226335 -0.227564 -0.228647 -0.229568 -0.230313 -0.230868 -0.231221 -0.231358 -0.231271 -0.230950 -0.230388 -0.229579 -0.228519 -0.227206 -0.225640 -0.223821 -0.221753 -0.219438 -0.216883 -0.214095 -0.211081 -0.207850 -0.204413 -0.200781 -0.196965 -0.192977 -0.188829 -0.184536 -0.180110 -0.175564 -0.170912 -0.166168 -0.161345 -0.156455 -0.151512 -0.146529 -0.141517 -0.136490 -0.131462 -0.126447 -0.121459 -0.116517 -0.111636 -0.106835 -0.102134 -0.097553 -0.093111 -0.088828 -0.084725 -0.080821 -0.077135 -0.073684 -0.070486 -0.067555 -0.064905 -0.062548 -0.060495 -0.058752 -0.057327 -0.056224 -0.055445 -0.054990 -0.054859 -0.055048 -0.055552 -0.056365 -0.057479 -0.058886 -0.060574 -0.062533 -0.064750 -0.067213 -0.069907 -0.072820 -0.075935 -0.079240 -0.082717 -0.086354 -0.090134 -0.094043 -0.098066 -0.102190 -0.106400 -0.110682 -0.115024 -0.119413 -0.123838 -0.128286 -0.132746 -0.137209 -0.141665 -0.146104 -0.150519 -0.154901 -0.159243 -0.163539 -0.167781 -0.171963 -0.176079 -0.180120 -0.184077 -0.187940 -0.191699 -0.195341 -0.198853 -0.202222 -0.205431 -0.208466 -0.211313 -0.213955 -0.216379 -0.218571 -0.220518 -0.222208 -0.223632 -0.224784 -0.225660 -0.226258 -0.226583 -0.226640 -0.226437 -0.225988 -0.225307 -0.224411 -0.223320 -0.222056 -0.220640 -0.219096 -0.217449 -0.215721 -0.213938 -0.212122 -0.210296 -0.208483 -0.206702 -0.204973 -0.203314 -0.201740 -0.200267 -0.198905 -0.197668 -0.196564 -0.195599 -0.194782 -0.194115 -0.193601 -0.193243 -0.193040 -0.192991 -0.193093 -0.193344 -0.193740 -0.194275 -0.194944 -0.195741 -0.196659 -0.197691 -0.198830 -0.200067 -0.201396 -0.202808 -0.204296 -0.205851 -0.207466 -0.209134 -0.210847 -0.212597 -0.214378 -0.216183 -0.218007 -0.219842 -0.221683 -0.223525 -0.225361 -0.227187 -0.228995 -0.230778 -0.232527 -0.234231 -0.235880 -0.237461 -0.238960 -0.240363 -0.241654 -0.242818 -0.243839 -0.244702 -0.245391 -0.245893 -0.246194 -0.246281 -0.246147 -0.245784 -0.245188 -0.244358 -0.243297 -0.242010 -0.240508 -0.238801 -0.236905 -0.234837 -0.232616 -0.230262 -0.227798 -0.225246 -0.222630 -0.219974 -0.217300 -0.214632 -0.211991 -0.209398 -0.206873 -0.204434 -0.202098 -0.199880 -0.197794 -0.195852 -0.194062 -0.192435 -0.190975 -0.189690 -0.188581 -0.187651 -0.186901 -0.186330 -0.185936 -0.185715 -0.185665 -0.185780 -0.186055 -0.186483 -0.187058 -0.187772 -0.188617 -0.189586 -0.190670 -0.191862 -0.193152 -0.194532 -0.195993 -0.197529 -0.199130 -0.200789 -0.202497 -0.204249 -0.206036 -0.207851 -0.209689 -0.211543 -0.213406 -0.215274 -0.217140 -0.218995 -0.220832 -0.222641 -0.224412 -0.226132 -0.227788 -0.229366 -0.230851 -0.232226 -0.233477 -0.234587 -0.235540 -0.236321 -0.236915 -0.237309 -0.237490 -0.237450 -0.237181 -0.236679 -0.235942 -0.234974 -0.233779 -0.232367 -0.230750 -0.228942 -0.226960 -0.224824 -0.222554 -0.220172 -0.217701 -0.215165 -0.212587 -0.209992 -0.207401 -0.204837 -0.202321 -0.199873 -0.197513 -0.195255 -0.193117 -0.191111 -0.189250 -0.187544 -0.186001 -0.184629 -0.183431 -0.182413 -0.181575 -0.180919 -0.180443 -0.180146 -0.180026 -0.180077 -0.180294 -0.180674 -0.181208 -0.181889 -0.182711 -0.183666 -0.184745 -0.185940 -0.187243 -0.188645 -0.190137 -0.191711 -0.193359 -0.195071 -0.196842 -0.198661 -0.200523 -0.202419 -0.204343 -0.206288 -0.208248 -0.210217 -0.212189 -0.214157 -0.216114 -0.218052 -0.219962 -0.221832 -0.223653 -0.225409 -0.227088 -0.228675 -0.230153 -0.231507 -0.232721 -0.233778 -0.234665 -0.235365 -0.235865 -0.236153 -0.236216 -0.236045 -0.235632 -0.234969 -0.234052 -0.232877 -0.231443 -0.229750 -0.227799 -0.225594 -0.223139 -0.220441 -0.217507 -0.214346 -0.210968 -0.207382 -0.203601 -0.199637 -0.195502 -0.191210 -0.186773 -0.182206 -0.177522 -0.172735 -0.167858 -0.162906 -0.157891 -0.152827 -0.147725 -0.142594 -0.137440 -0.132262 -0.127053 -0.121797 -0.116468 -0.111034 -0.105452 -0.099675 -0.093645 -0.087303 -0.080582 -0.073416 -0.065736 -0.057475 -0.048566 -0.038946 -0.028557 -0.017345 -0.005264 0.007727 0.021662 0.036565 0.052456 0.069343 0.087228 0.106106 0.125963 0.146780 0.168530 0.191180 0.214691 0.239019 0.264117 0.289933 0.316411 0.343494 0.371120 0.399230 0.427759 0.456644 0.485823 0.515232 0.544808 0.574491 0.604220 0.633938 0.663589 0.693119 0.722476 0.751611 0.780478 0.809034 0.837238 0.865052 0.892441 0.919374 0.945820 0.971753 0.997149 1.021985 1.046237 1.069878 1.092878 1.115201 1.136806 1.157644 1.177663 1.196803 1.215003 1.232194 1.248308 1.263277 1.277030 1.289502 1.300628 1.310351 1.318620 1.325396 1.330654 1.334382 1.336583 1.337279 1.336508 1.334323 1.330792 1.325997 1.320033 1.313004 1.305022 1.296207 1.286681 1.276570 1.265999 1.255094 1.243977 1.232766 1.221574 1.210506 1.199663 1.189137 1.179011 1.169360 1.160250 1.151739 1.143875 1.136699 1.130243 1.124531 1.119579 1.115396 1.111985 1.109342 1.107458 1.106319 1.105906 1.106196 1.107163 1.108777 1.111007 1.113818 1.117176 1.121043 1.125382 1.130156 1.135326 1.140854 1.146703 1.152836 1.159218 1.165812 1.172587 1.179509 1.186547 1.193673 1.200858 1.208075 1.215297 1.222492 1.229627 1.236662 1.243552 1.250245 1.256682 1.262798 1.268523 1.273783 1.278501 1.282597 1.285991 1.288606 1.290364 1.291193 1.291026 1.289803 1.287477 1.284011 1.279382 1.273586 1.266634 1.258553 1.249387 1.239197 1.228055 1.216048 1.203274 1.189837 1.175852 1.161434 1.146704 1.131783 1.116791 1.101847 1.087063 1.072549 1.058407 1.044733 1.031614 1.019130 1.007351 0.996341 0.986151 0.976826 0.968401 0.960903 0.954352 0.948758 0.944124 0.940448 0.937719 0.935924 0.935041 0.935046 0.935909 0.937597 0.940074 0.943303 0.947242 0.951851 0.957085 0.962901 0.969254 0.976100 0.983395 0.991096 0.999159 1.007543 1.016207 1.025112 1.034220 1.043495 1.052903 1.062410 1.071985 1.081596 1.091212 1.100795 1.110305 1.119696 1.128915 1.137903 1.146596 1.154921 1.162805 1.170168 1.176929 1.183007 1.188320 1.192789 1.196338 1.198897 1.200402 1.200801 1.200052 1.198130 1.195024 1.190742 1.185306 1.178756 1.171149 1.162552 1.153050 1.142736 1.131712 1.120088 1.107979 1.095502 1.082777 1.069922 1.057054 1.044284 1.031722 1.019469 1.007620 0.996263 0.985478 0.975336 0.965899 0.957222 0.949349 0.942317 0.936154 0.930880 0.926507 0.923041 0.920480 0.918815 0.918035 0.918119 0.919044 0.920782 0.923304 0.926574 0.930555 0.935209 0.940496 0.946374 0.952800 0.959732 0.967126 0.974941 0.983133 0.991662 1.000486 1.009567 1.018866 1.028347 1.037973 1.047713 1.057534 1.067405 1.077296 1.087175 1.097006 1.106750 1.116361 1.125788 1.134971 1.143846 1.152343 1.160389 1.167903 1.174806 1.181017 1.186454 1.191039 1.194696 1.197355 1.198949 1.199420 