-0.000000 -0.000000 -0.000000 0.000000 -0.000000 -0.000000 -0.000000 -0.000000 -0.000000 -0.000000 -0.000000 -0.000000 -0.000000 -0.000000 -0.000000 -0.000000 -0.000000 -0.000000 -0.000000 -0.000000 -0.000000 -0.000000 -0.000000 -0.000000 -0.000000 -0.000000 -0.000000 -0.000000 -0.000000 -0.000000 -0.000000 0.000000 0.000000 0.000000 0.000000 0.000000 0.000000 -0.000000 -0.000000 -0.000000 -0.000000 0.000000 -0.000000 -0.000000 0.000000 -0.000000 0.000000 0.000000 -0.000000 -0.000000 -0.000000 0.000000 -0.000000 -0.000000 -0.000000 0.000000 -0.000000 -0.000000 -0.000000 -0.000000 -0.000000 -0.000000 -0.000000 0.000000 -0.000000 -0.000000 -0.000000 -0.000000 -0.000000 -0.000000 -0.000000 0.000000 -0.000000 -0.000000 -0.000000 -0.000000 -0.000000 -0.000001 -0.000004 -0.000014 -0.000037 -0.000081 -0.000161 -0.000293 -0.000498 -0.000798 -0.001221 -0.001795 -0.002552 -0.003523 -0.004741 -0.006238 -0.008047 -0.010198 -0.012720 -0.015638 -0.018978 -0.022759 -0.026999 -0.031712 -0.036909 -0.042595 -0.048774 -0.055446 -0.062606 -0.070247 -0.078359 -0.086928 -0.095937 -0.105368 -0.115200 -0.125411 -0.135975 -0.146867 -0.158060 -0.169525 -0.181235 -0.193159 -0.205269 -0.217537 -0.229932 -0.242426 -0.254992 -0.267602 -0.280230 -0.292849 -0.305437 -0.317969 -0.330422 -0.342777 -0.355013 -0.367112 -0.379057 -0.390832 -0.402422 -0.413813 -0.424995 -0.435955 -0.446682 -0.457166 -0.467391 -0.477344 -0.487007 -0.496359 -0.505378 -0.514039 -0.522313 -0.530171 -0.537582 -0.544516 -0.550941 -0.556826 -0.562140 -0.566857 -0.570949 -0.574395 -0.577176 -0.579281 -0.580703 -0.581442 -0.581508 -0.580915 -0.579687 -0.577854 -0.575451 -0.572521 -0.569111 -0.565270 -0.561053 -0.556516 -0.551716 -0.546711 -0.541558 -0.536312 -0.531030 -0.525763 -0.520561 -0.515469 -0.510531 -0.505786 -0.501269 -0.497011 -0.493040 -0.489378 -0.486044 -0.483053 -0.480417 -0.478145 -0.476239 -0.474703 -0.473533 -0.472727 -0.472277 -0.472175 -0.472410 -0.472970 -0.473841 -0.475007 -0.476453 -0.478163 -0.480118 -0.482301 -0.484694 -0.487279 -0.490038 -0.492953 -0.496007 -0.499182 -0.502461 -0.505829 -0.509270 -0.512769 -0.516313 -0.519887 -0.523479 -0.527077 -0.530666 -0.534233 -0.537762 -0.541233 -0.544624 -0.547911 -0.551067 -0.554061 -0.556862 -0.559435 -0.561746 -0.563758 -0.565438 -0.566749 -0.567659 -0.568136 -0.568152 -0.567684 -0.566714 -0.565230 -0.563228 -0.560709 -0.557685 -0.554172 -0.550196 -0.545786 -0.540980 -0.535818 -0.530347 -0.524614 -0.518670 -0.512569 -0.506362 -0.500103 -0.493842 -0.487631 -0.481517 -0.475545 -0.469759 -0.464197 -0.458894 -0.453883 -0.449192 -0.444844 -0.440860 -0.437256 -0.434045 -0.431235 -0.428834 -0.426843 -0.425261 -0.424085 -0.423310 -0.422926 -0.422925 -0.423293 -0.424017 -0.425081 -0.426471 -0.428167 -0.430153 -0.432410 -0.434919 -0.437662 -0.440618 -0.443769 -0.447096 -0.450582 -0.454206 -0.457953 -0.461805 -0.465745 -0.469758 -0.473829 -0.477944 -0.482089 -0.486249 -0.490412 -0.494561 -0.498677 -0.502742 -0.506730 -0.510618 -0.514374 -0.517968 -0.521367 -0.524536 -0.527438 -0.530038 -0.532299 -0.534185 -0.535664 -0.536703 -0.537274 -0.537354 -0.536923 -0.535969 -0.534488 -0.532481 -0.529957 -0.526935 -0.523439 -0.519498 -0.515149 -0.510434 -0.505398 -0.500090 -0.494561 -0.488864 -0.483053 -0.477180 -0.471298 -0.465458 -0.459708 -0.454095 -0.448662 -0.443448 -0.438490 -0.433820 -0.429467 -0.425455 -0.421805 -0.418534 -0.415655 -0.413177 -0.411106 -0.409446 -0.408194 -0.407349 -0.406905 -0.406852 -0.407182 -0.407881 -0.408936 -0.410331 -0.412050 -0.414077 -0.416391 -0.418976 -0.421812 -0.424879 -0.428158 -0.431630 -0.435276 -0.439078 -0.443016 -0.447072 -0.451231 -0.455475 -0.459787 -0.464154 -0.468560 -0.472991 -0.477435 -0.481876 -0.486300 -0.490688 -0.495022 -0.499278 -0.503430 -0.507452 -0.511311 -0.514976 -0.518410 -0.521579 -0.524447 -0.526976 -0.529133 -0.530882 -0.532192 -0.533033 -0.533378 -0.533203 -0.532488 -0.531216 -0.529373 -0.526952 -0.523946 -0.520354 -0.516179 -0.511427 -0.506106 -0.500231 -0.493816 -0.486880 -0.479444 -0.471532 -0.463167 -0.454378 -0.445192 -0.435638 -0.425746 -0.415548 -0.405073 -0.394354 -0.383420 -0.372303 -0.361033 -0.349640 -0.338152 -0.326597 -0.315002 -0.303394 -0.291796 -0.280232 -0.268725 -0.257295 -0.245962 -0.234744 -0.223659 -0.212722 -0.201946 -0.191345 -0.180931 -0.170713 -0.160702 -0.150905 -0.141330 -0.131981 -0.122866 -0.113987 -0.105347 -0.096950 -0.088797 -0.080888 -0.073223 -0.065803 -0.058627 -0.051692 -0.044998 -0.038547 -0.032346 -0.026409 -0.020761 -0.015436 -0.010481 -0.005957 -0.001932 0.001513 0.004288 0.006297 0.007439 0.007610 0.006706 0.004623 0.001264 -0.003468 -0.009657 -0.017384 -0.026716 -0.037712 -0.050419 -0.064871 -0.081092 -0.099092 -0.118870 -0.140413 -0.163697 -0.188686 -0.215336 -0.243592 -0.273391 -0.304663 -0.337329 -0.371307 -0.406509 -0.442842 -0.480211 -0.518517 -0.557661 -0.597542 -0.638062 -0.679119 -0.720615 -0.762453 -0.804539 -0.846780 -0.889087 -0.931375 -0.973562 -1.015568 -1.057321 -1.098751 -1.139790 -1.180380 -1.220462 -1.259985 -1.298899 -1.337162 -1.374732 -1.411571 -1.447639 -1.482891 -1.517279 -1.550745 -1.583224 -1.614641 -1.644912 -1.673948 -1.701650 -1.727916 -1.752640 -1.775716 -1.797038 -1.816503 -1.834014 -1.849481 -1.862828 -1.873994 -1.882935 -1.889634 -1.894093 -1.896342 -1.896434 -1.894446 -1.890478 -1.884651 -1.877102 -1.867984 -1.857463 -1.845715 -1.832920 -1.819264 -1.804932 -1.790109 -1.774975 -1.759704 -1.744463 -1.729409 -1.714689 -1.700437 -1.686779 -1.673823 -1.661667 -1.650397 -1.640083 -1.630784 -1.622547 -1.615407 -1.609388 -1.604501 -1.600751 -1.598131 -1.596628 -1.596218 -1.596874 -1.598560 -1.601237 -1.604860 -1.609383 -1.614755 -1.620922 -1.627829 -1.635420 -1.643639 -1.652429 -1.661732 -1.671494 -1.681660 -1.692175 -1.702989 -1.714050 -1.725311 -1.736726 -1.748251 -1.759845 -1.771466 -1.783075 -1.794624 -1.806065 -1.817338 -1.828375 -1.839100 -1.849424 -1.859252 -1.868480 -1.876997 -1.884689 -1.891436 -1.897122 -1.901628 -1.904843 -1.906658 -1.906977 -1.905715 -1.902807 -1.898207 -1.891891 -1.883862 -1.874145 -1.862792 -1.849878 -1.835498 -1.819769 -1.802822 -1.784807 -1.765880 -1.746209 -1.725967 -1.705328 -1.684467 -1.663557 -1.642765 -1.622253 -1.602175 -1.582673 -1.563881 -1.545919 -1.528897 -1.512911 -1.498044 -1.484366 -1.471936 -1.460799 -1.450989 -1.442526 -1.435423 -1.429680 -1.425288 -1.422231 -1.420482 -1.420011 -1.420778 -1.422739 -1.425845 -1.430044 -1.435279 -1.441492 -1.448623 -1.456609 -1.465387 -1.474894 -1.485067 -1.495844 -1.507163 -1.518964 -1.531188 -1.543777 -1.556678 -1.569838 -1.583206 -1.596735 -1.610378 -1.624090 -1.637824 -1.651528 -1.665144 -1.678605 -1.691835 -1.704750 -1.717255 -1.729245 -1.740611 -1.751236 -1.761002 -1.769785 -1.777465 -1.783924 -1.789047 -1.792727 -1.794871 -1.795398 -1.794248 -1.791380 -1.786781 -1.780459 -1.772449 -1.762810 -1.751623 -1.738991 -1.725036 -1.709896 -1.693720 -1.676671 -1.658916 -1.640629 -1.621983 -1.603152 -1.584307 -1.565612 -1.547224 -1.529293 -1.511958 -1.495346 -1.479574 -1.464746 -1.450951 -1.438268 -1.426764 -1.416489 -1.407486 -1.399782 -1.393396 -1.388334 -1.384594 -1.382163 -1.381022 -1.381143 -1.382491 -1.385026 -1.388702 -1.393468 -1.399272 -1.406056 -1.413762 -1.422329 -1.431694 -1.441796 -1.452571 -1.463957 -1.475894 -1.488319 -1.501174 -1.514402 -1.527947 -1.541755 -1.555776 -1.569961 -1.584262 -1.598636 -1.613038 -1.627418 -1.641723 -1.655893 -1.669859 -1.683540 -1.696849 -1.709688 -1.721950 -1.733524 -1.744292 -1.754134 -1.762929 -1.770556 -1.776900 -1.781849 -1.785297 -1.787150 -1.787321 -1.785735 -1.782327 -1.777048 -1.769858 -1.760732 -1.749658 -1.736635 -1.721678 -1.704809 -1.686066 -1.665495 -1.643151 -1.619100 -1.593415 -1.566176 -1.537468 -1.507383 -1.476017 -1.443467 -1.409836 -1.375225 -1.339739 -1.303481 -1.266555 -1.229061 -1.191100 -1.152770 -1.114167 -1.075381 -1.036502 -0.997614 -0.958798 -0.920131 -0.881685 -0.843529 -0.805725 -0.768333 -0.731408 -0.695001 -0.659157 -0.623917 -0.589318 -0.555393 -0.522172 -0.489681 -0.457941 -0.426972 -0.396788 -0.367403 -0.338825 -0.311061 -0.284116 -0.257991 -0.232687 -0.208200 -0.184527 -0.161662 -0.139598 -0.118331 -0.097858 -0.078179 -0.059303 -0.041241 -0.024016 -0.007654 0.007811 0.022337 0.035881 0.048393 0.059820 0.070111 0.079210 0.087067 0.093632 0.098858 0.102705 0.105136 0.106120 0.105636 0.103666 0.100203 0.095244 0.088796 0.080872 0.071494 0.060688 0.048489 0.034937 0.020078 0.003963 -0.013353 -0.031811 -0.051347 -0.071897 -0.093392 -0.115764 -0.138940 -0.162850 -0.187421 -0.212581 -0.238262 -0.264392 -0.290904 -0.317731 -0.344808 -0.372071 -0.399461 -0.426919 -0.454390 -0.481821 -0.509162 -0.536367 -0.563391 -0.590193 -0.616735 -0.642984 -0.668905 -0.694466 -0.719639 -0.744393 -0.768694 -0.792506 -0.815787 -0.838489 -0.860560 -0.881942 -0.902572 -0.922382 -0.941304 -0.959267 -0.976199 -0.992029 -1.006691 -1.020118 -1.032250 -1.043034 -1.052421 -1.060374 -1.066867 -1.071886 -1.075435 -1.077531 -1.078207 -1.077513 -1.075513 -1.072286 -1.067920 -1.062518 -1.056188 -1.049046 -1.041215 -1.032817 -1.023979 -1.014823 -1.005473 -0.996046 -0.986656 -0.977411 -0.968411 -0.959749 -0.951509 -0.943767 -0.936592 -0.930041 -0.924164 -0.919001 -0.914585 -0.910940 -0.908082 -0.906020 -0.904756 -0.904285 -0.904598 -0.905679 -0.907507 -0.910055 -0.913298 -0.917205 -0.921742 -0.926872 -0.932558 -0.938760 -0.945440 -0.952555 -0.960067 -0.967935 -0.976118 -0.984578 -0.993276 -1.002175 -1.011240 -1.020437 -1.029733 -1.039095 -1.048494 -1.057902 -1.067292 -1.076635 -1.085903 -1.095062 -1.104075 -1.112897 -1.121480 -1.129767 -1.137698 -1.145206 -1.152221 -1.158670 -1.164479 -1.169572 -1.173876 -1.177320 -1.179836 -1.181359 -1.181835 -1.181216 -1.179466 -1.176564 -1.172502 -1.167289 -1.160947 -1.153518 -1.145056 -1.135630 -1.125321 -1.114219 -1.102426 -1.090050 -1.077202 -1.063998 -1.050555 -1.036990 -1.023416 -1.009946 -0.996685 -0.983734 -0.971187 -0.959132 -0.947647 -0.936803 -0.926663 -0.917280 -0.908699 -0.900956 -0.894081 -0.888094 -0.883008 -0.878828 -0.875554 -0.873178 -0.871687 -0.871063 -0.871282 -0.872319 -0.874144 -0.876724 -0.880021 -0.884000 -0.888619 -0.893837 -0.899614 -0.905906 -0.912671 -0.919867 -0.927452 -0.935385 -0.943626 -0.952137 -0.960880 -0.969817 -0.978914 -0.988136 -0.997453 -1.006833 -1.016248 -1.025667 -1.035057 -1.044382 -1.053601 -1.062666 -1.071524 -1.080116 -1.088377 -1.096238 -1.103626 -1.110465 -1.116678 -1.122188 -1.126920 -1.130801 -1.133762 -1.135740 -1.136681 -1.136543 -1.135294 -1.132921 -1.129422 -1.124814 -1.119129 -1.112414 -1.104730 -1.096150 -1.086759 -1.076652 -1.065930 -1.054700 -1.043073 -1.031161 -1.019077 -1.006932 -0.994836 -0.982891 -0.971197 -0.959847 -0.948927 -0.938516 -0.928684 -0.919494 -0.911001 -0.903250 -0.896280 -0.890119 -0.884791 -0.880310 -0.876684 -0.873913 -0.871993 -0.870913 -0.870655 -0.871200 -0.872525 -0.874602 -0.877398 -0.880881 -0.885015 -0.889762 -0.895083 -0.900938 -0.907288 -0.914090 -0.921306 -0.928894 -0.936816 -0.945032 -0.953505 -0.962198 -0.971077 -0.980107 -0.989255 -0.998492 -1.007789 -1.017115 -1.026442 -1.035738 -1.044967 -1.054088 -1.063055 -1.071814 -1.080307 -1.088470 -1.096233 -1.103525 -1.110268 -1.116388 -1.121806 -1.126448 -1.130240 -1.133114 -1.135006 -1.135856 -1.135613 -1.134232 -1.131676 -1.127916 -1.122930 -1.116707 -1.109241 -1.100536 -1.090603 -1.079462 -1.067137 -1.053661 -1.039071 -1.023413 -1.006733 -0.989084 -0.970523 -0.951108 -0.930901 -0.909966 -0.888368 -0.866172 -0.843444 -0.820250 -0.796655 -0.772723 -0.748519 -0.724102 -0.699534 -0.674871 -0.650170 -0.625482 -0.600859 -0.576347 -0.551993 -0.527840 -0.503924 -0.480283 -0.456951 -0.433958 -0.411331 -0.389098 -0.367279 -0.345896 -0.324966 -0.304505 -0.284525 -0.265039 -0.246054 -0.227578 -0.209617 -0.192174 -0.175251 -0.158848 -0.142966 -0.127601 -0.112753 -0.098416 -0.084591 -0.071282 -0.058499 -0.046263 -0.034605 -0.023568 -0.013206 -0.003585 0.005220 0.013124 0.020037 0.025862 0.030502 0.033856 0.035828 0.036324 0.035254 0.032538 0.028102 0.021882 0.013826 0.003892 -0.007951 -0.021719 -0.037420 -0.055047 -0.074582 -0.095997 -0.119252 -0.144297 -0.171074 -0.199516 -0.229548 -0.261089 -0.294051 -0.328343 -0.363868 -0.400525 -0.438216 -0.476837 -0.516284 -0.556454 -0.597244 -0.638552 -0.680277 -0.722323 -0.764595 -0.806999 -0.849449 -0.891858 -0.934148 -0.976239 -1.018061 -1.059545 -1.100628 -1.141251 -1.181358 -1.220900 -1.259830 -1.298104 -1.335683 -1.372523 -1.408581 -1.443803 -1.478130 -1.511497 -1.543825 -1.575030 -1.605019 -1.633693 -1.660948 -1.686677 -1.710771 -1.733123 -1.753630 -1.772192 -1.788718 -1.803131 -1.815367 -1.825383 -1.833160 -1.838699 -1.842028 -1.843199 -1.842290 -1.839398 -1.834643 -1.828162 -1.820107 -1.810643 -1.799944 -1.788192 -1.775570 -1.762264 -1.748456 -1.734328 -1.720052 -1.705794 -1.691712 -1.677951 -1.664647 -1.651922 -1.639887 -1.628638 -1.618261 -1.608826 -1.600391 -1.593004 -1.586699 -1.581499 -1.577417 -1.574457 -1.572611 -1.571866 -1.572199 -1.573582 -1.575979 -1.579352 -1.583657 -1.588845 -1.594866 -1.601668 -1.609195 -1.617391 -1.626200 -1.635565 -1.645429 -1.655737 -1.666435 -1.677468 -1.688786 -1.700337 -1.712075 -1.723954 -1.735930 -1.747963 -1.760010 -1.772031 -1.783982 -1.795812 -1.807462 -1.818865 -1.829944 -1.840611 -1.850772 -1.860322 -1.869151 -1.877143 -1.884182 -1.890150 -1.894929 -1.898406 -1.900477 -1.901043 -1.900023 -1.897352 -1.892987 -1.886908 -1.879119 -1.869649 -1.858551 -1.845903 -1.831801 -1.816364 -1.799726 -1.782034 -1.763446 -1.744130 -1.724258 -1.704002 -1.683537 -1.663033 -1.642657 -1.622568 -1.602917 -1.583845 -1.565483 -1.547949 -1.531351 -1.515782 -1.501323 -1.488043 -1.475999 -1.465233 -1.455777 -1.447653 -1.440870 -1.435427 -1.431316 -1.428519 -1.427010 -1.426755 -1.427718 -1.429852 -1.433109 -1.437438 -1.442782 -1.449083 -1.456282 -1.464317 -1.473125 -1.482644 -1.492812 -1.503568 -1.514850 -1.526599 -1.538758 -1.551270 -1.564082 -1.577141 -1.590399 -1.603809 -1.617326 -1.630902 -1.644492 -1.658041 -1.671492 -1.684776 -1.697814 -1.710521 -1.722800 -1.734545 -1.745646 -1.755985 -1.765443 -1.773897 -1.781226 -1.787313 -1.792046 -1.795317 -1.797033 -1.797112 -1.795493 -1.792134 -1.787018 -1.780153 -1.771569 -1.761325 -1.749501 -1.736198 -1.721538 -1.705660 -1.688715 -1.670866 -1.652285 -1.633148 -1.613633 -1.593917 -1.574176 -1.554578 -1.535288 -1.516458 -1.498233 -1.480746 -1.464117 -1.448455 -1.433855 -1.420399 -1.408156 -1.397183 -1.387523 -1.379206 -1.372254 -1.366675 -1.362466 -1.359619 -1.358111 -1.357917 -1.359002 -1.361324 -1.364837 -1.369489 -1.375226 -1.381991 -1.389722 -1.398357 -1.407833 -1.418084 -1.429045 -1.440654 -1.452845 -1.465555 -1.478725 -1.492293 -1.506202 -1.520396 -1.534823 -1.549430 -1.564171 -1.578998 -1.593866 -1.608728 -1.623531 -1.638218 -1.652722 -1.666967 -1.680869 -1.694332 -1.707254 -1.719525 -1.731028 -1.741644 -1.751252 -1.759732 -1.766965 -1.772837 -1.777241 -1.780078 -1.781257 -1.780699 -1.778334 -1.774108 -1.767976 -1.759909 -1.749888 -1.737910 -1.723982 -1.708124 -1.690368 -1.670757 -1.649342 -1.626186 -1.601358 -1.574937 -1.547005 -1.517653 -1.486974 -1.455066 -1.422029 -1.387966 -1.352980 -1.317175 -1.280654 -1.243520 -1.205874 -1.167815 -1.129439 -1.090840 -1.052107 -1.013328 -0.974584 -0.935954 -0.897512 -0.859328 -0.821468 -0.783992 -0.746957 -0.710418 -0.674419 -0.639004 -0.604212 -0.570078 -0.536632 -0.503903 -0.471913 -0.440684 -0.410230 -0.380567 -0.351705 -0.323652 -0.296413 -0.269991 -0.244386 -0.219598 -0.195622 -0.172455 -0.150089 -0.128517 -0.107734 -0.087734 -0.068514 -0.050074 -0.032414 -0.015542 0.000537 0.015810 0.030265 0.043888 0.056661 0.068570 0.079596 0.089723 0.098936 0.107222 0.114569 0.120967 0.126410 0.130894 0.134419 0.136988 0.138607 0.139286 0.139038 0.137880 0.135830 0.132911 0.129149 0.124570 0.119206 0.113087 0.106248 0.098724 0.090552 0.081768 0.072411 0.062520 0.052134 0.041294 0.030036 0.018399 0.006421 -0.005862 -0.018413 -0.031197 -0.044179 -0.057327 -0.070609 -0.083994 -0.097453 -0.110958 -0.124484 -0.138005 -0.151498 -0.164942 -0.178318 -0.191603 -0.204782 -0.217835 -0.230747 -0.243497 -0.256067 -0.268434 -0.280573 -0.292457 -0.304056 -0.315339 -0.326271 -0.336819 -0.346945 -0.356613 -0.365789 -0.374438 -0.382525 -0.390022 -0.396900 -0.403138 -0.408720 -0.413635 -0.417880 -0.421462 -0.424391 -0.426689 -0.428381 -0.429500 -0.430086 -0.430181 -0.429833 -0.429092 -0.428010 -0.426642 -0.425041 -0.423262 -0.421358 -0.419378 -0.417374 -0.415391 -0.413473 -0.411660 -0.409988 -0.408490 -0.407196 -0.406130 -0.405314 -0.404766 -0.404498 -0.404523 -0.404846 -0.405472 -0.406401 -0.407633 -0.409162 -0.410982 -0.413085 -0.415460 -0.418094 -0.420975 -0.424089 -0.427422 -0.430957 -0.434679 -0.438570 -0.442614 -0.446794 -0.451093 -0.455495 -0.459983 -0.464542 -0.469156 -0.473811 -0.478492 -0.483189 -0.487886 -0.492571 -0.497233 -0.501859 -0.506437 -0.510954 -0.515391 -0.519731 -0.523951 -0.528027 -0.531930 -0.535631 -0.539097 -0.542296 -0.545192 -0.547751 -0.549937 -0.551719 -0.553064 -0.553942 -0.554328 -0.554202 -0.553550 -0.552364 -0.550644 -0.548396 -0.545635 -0.542382 -0.538666 -0.534520 -0.529984 -0.525103 -0.519922 -0.514492 -0.508865 -0.503094 -0.497232 -0.491330 -0.485440 -0.479611 -0.473890 -0.468321 -0.462945 -0.457798 -0.452915 -0.448326 -0.444056 -0.440129 -0.436561 -0.433369 -0.430563 -0.428150 -0.426135 -0.424520 -0.423301 -0.422476 -0.422037 -0.421974 -0.422278 -0.422934 -0.423928 -0.425247 -0.426874 -0.428792 -0.430982 -0.433428 -0.436109 -0.439007 -0.442105 -0.445382 -0.448821 -0.452403 -0.456112 -0.459931 -0.463842 -0.467830 -0.471883 -0.475984 -0.480118 -0.484273 -0.488435 -0.492588 -0.496716 -0.500800 -0.504816 -0.508742 -0.512548 -0.516206 -0.519681 -0.522939 -0.525946 -0.528665 -0.531059 -0.533093 -0.534733 -0.535945 -0.536701 -0.536973 -0.536739 -0.535985 -0.534700 -0.532882 -0.530537 -0.527676 -0.524321 -0.520499 -0.516241 -0.511588 -0.506583 -0.501273 -0.495709 -0.489944 -0.484031 -0.478024 -0.471977 -0.465943 -0.459973 -0.454115 -0.448415 -0.442915 -0.437655 -0.432670 -0.427992 -0.423648 -0.419662 -0.416053 -0.412837 -0.410026 -0.407628 -0.405648 -0.404088 -0.402946 -0.402217 -0.401895 -0.401971 -0.402434 -0.403267 -0.404459 -0.405993 -0.407853 -0.410020 -0.412476 -0.415202 -0.418177 -0.421383 -0.424799 -0.428406 -0.432185 -0.436116 -0.440180 -0.444361 -0.448640 -0.453001 -0.457427 -0.461904 -0.466417 -0.470952 -0.475495 -0.480031 -0.484545 -0.489019 -0.493432 -0.497761 -0.501980 -0.506060 -0.509969 -0.513675 -0.517142 -0.520334 -0.523216 -0.525751 -0.527904 -0.529641 -0.530931 -0.531744 -0.532054 -0.531838 -0.531077 -0.529753 -0.527856 -0.525376 -0.522310 -0.518657 -0.514419 -0.509604 -0.504222 -0.498286 -0.491813 -0.484821 -0.477332 -0.469370 -0.460960 -0.452130 -0.442906 -0.433320 -0.423401 -0.413180 -0.402688 -0.391956 -0.381015 -0.369895 -0.358627 -0.347241 -0.335764 -0.324226 -0.312651 -0.301067 -0.289497 -0.277965 -0.266493 -0.255101 -0.243809 -0.232635 -0.221596 -0.210706 -0.199980 -0.189431 -0.179069 -0.168906 -0.158950 -0.149209 -0.139689 -0.130398 -0.121339 -0.112517 -0.103935 -0.095594 -0.087497 -0.079643 -0.072034 -0.064669 -0.057545 -0.050663 -0.044021 -0.037621 -0.031469 -0.025580 -0.019979 -0.014700 -0.009790 -0.005309 -0.001326 0.002077 0.004812 0.006783 0.007888 0.008023 0.007084 0.004969 0.001577 -0.003185 -0.009405 -0.017160 -0.026520 -0.037542 -0.050274 -0.064751 -0.080995 -0.099017 -0.118816 -0.140380 -0.163683 -0.188691 -0.215358 -0.243631 -0.273446 -0.304733 -0.337414 -0.371407 -0.406622 -0.442967 -0.480348 -0.518665 -0.557820 -0.597711 -0.638240 -0.679306 -0.720811 -0.762657 -0.804750 -0.846998 -0.889312 -0.931606 -0.973798 -1.015810 -1.057568 -1.099002 -1.140046 -1.180639 -1.220724 -1.260250 -1.299168 -1.337433 -1.375005 -1.411846 -1.447915 -1.483168 -1.517557 -1.551024 -1.583503 -1.614920 -1.645192 -1.674228 -1.701929 -1.728194 -1.752918 -1.775992 -1.797313 -1.816777 -1.834286 -1.849751 -1.863091 -1.874244 -1.883163 -1.889825 -1.894229 -1.896398 -1.896382 -1.894253 -1.890107 -1.884062 -1.876254 -1.866833 -1.855966 -1.843828 -1.830601 -1.816472 -1.801630 -1.786262 -1.770553 -1.754681 -1.738816 -1.723121 -1.707748 -1.692836 -1.678514 -1.664897 -1.652087 -1.640173 -1.629232 -1.619324 -1.610502 -1.602802 -1.596251 -1.590865 -1.586649 -1.583598 -1.581700 -1.580933 -1.581271 -1.582677 -1.585113 -1.588536 -1.592896 -1.598143 -1.604222 -1.611077 -1.618652 -1.626889 -1.635728 -1.645112 -1.654984 -1.665287 -1.675966 -1.686967 -1.698238 -1.709731 -1.721396 -1.733188 -1.745065 -1.756984 -1.768906 -1.780785 -1.792573 -1.804214 -1.815645 -1.826791 -1.837569 -1.847885 -1.857639 -1.866722 -1.875021 -1.882418 -1.888795 -1.894034 -1.898020 -1.900644 -1.901803 -1.901409 -1.899386 -1.895681 -1.890262 -1.883121 -1.874273 -1.863761 -1.851649 -1.838026 -1.823000 -1.806698 -1.789260 -1.770843 -1.751609 -1.731729 -1.711378 -1.690732 -1.669962 -1.649241 -1.628733 -1.608593 -1.588969 -1.570000 -1.551810 -1.534514 -1.518213 -1.502995 -1.488937 -1.476102 -1.464539 -1.454287 -1.445373 -1.437811 -1.431608 -1.426757 -1.423245 -1.421050 -1.420143 -1.420487 -1.422040 -1.424756 -1.428583 -1.433467 -1.439350 -1.446172 -1.453872 -1.462387 -1.471653 -1.481609 -1.492190 -1.503336 -1.514985 -1.527079 -1.539558 -1.552369 -1.565457 -1.578771 -1.592263 -1.605885 -1.619593 -1.633340 -1.647077 -1.660748 -1.674290 -1.687632 -1.700692 -1.713378 -1.725592 -1.737225 -1.748163 -1.758288 -1.767478 -1.775613 -1.782572 -1.788239 -1.792504 -1.795270 -1.796450 -1.795977 -1.793807 -1.789915 -1.784305 -1.777002 -1.768060 -1.757551 -1.745573 -1.732241 -1.717688 -1.702059 -1.685513 -1.668214 -1.650333 -1.632042 -1.613516 -1.594922 -1.576427 -1.558190 -1.540359 -1.523077 -1.506474 -1.490666 -1.475762 -1.461854 -1.449024 -1.437340 -1.426857 -1.417620 -1.409660 -1.402998 -1.397643 -1.393596 -1.390848 -1.389380 -1.389167 -1.390178 -1.392372 -1.395707 -1.400134 -1.405601 -1.412053 -1.419431 -1.427677 -1.436729 -1.446526 -1.457005 -1.468104 -1.479764 -1.491923 -1.504522 -1.517504 -1.530815 -1.544399 -1.558207 -1.572189 -1.586299 -1.600491 -1.614722 -1.628944 -1.643105 -1.657146 -1.671000 -1.684589 -1.697827 -1.710619 -1.722859 -1.734437 -1.745236 -1.755136 -1.764017 -1.771758 -1.778241 -1.783355 -1.786992 -1.789055 -1.789456 -1.788117 -1.784973 -1.779968 -1.773062 -1.764228 -1.753450 -1.740726 -1.726066 -1.709492 -1.691038 -1.670749 -1.648677 -1.624888 -1.599451 -1.572447 -1.543958 -1.514077 -1.482896 -1.450515 -1.417034 -1.382555 -1.347182 -1.311018 -1.274167 -1.236730 -1.198809 -1.160501 -1.121902 -1.083105 -1.044198 -1.005268 -0.966396 -0.927659 -0.889131 -0.850880 -0.812971 -0.775464 -0.738414 -0.701875 -0.665891 -0.630504 -0.595753 -0.561670 -0.528288 -0.495631 -0.463723 -0.432582 -0.402226 -0.372667 -0.343915 -0.315977 -0.288857 -0.262559 -0.237082 -0.212425 -0.188583 -0.165551 -0.143323 -0.121893 -0.101258 -0.081418 -0.062378 -0.044151 -0.026756 -0.010219 0.005427 0.020143 0.033885 0.046605 0.058250 0.068769 0.078107 0.086212 0.093034 0.098526 0.102646 0.105356 0.106626 0.106430 0.104751 0.101580 0.096912 0.090753 0.083115 0.074018 0.063487 0.051555 0.038262 0.023652 0.007774 -0.009315 -0.027558 -0.046893 -0.067255 -0.088576 -0.110787 -0.133817 -0.157595 -0.182048 -0.207105 -0.232696 -0.258752 -0.285202 -0.311980 -0.339021 -0.366260 -0.393638 -0.421096 -0.448577 -0.476028 -0.503400 -0.530644 -0.557715 -0.584573 -0.611177 -0.637495 -0.663492 -0.689135 -0.714395 -0.739243 -0.763644 -0.787564 -0.810962 -0.833790 -0.855999 -0.877530 -0.898321 -0.918307 -0.937418 -0.955584 -0.972734 -0.988796 -1.003701 -1.017386 -1.029787 -1.040850 -1.050526 -1.058779 -1.065582 -1.070924 -1.074808 -1.077254 -1.078295 -1.077985 -1.076386 -1.073578 -1.069653 -1.064709 -1.058857 -1.052211 -1.044892 -1.037021 -1.028721 -1.020115 -1.011321 -1.002456 -0.993629 -0.984946 -0.976502 -0.968389 -0.960688 -0.953472 -0.946806 -0.940745 -0.935336 -0.930619 -0.926624 -0.923372 -0.920879 -0.919153 -0.918195 -0.917999 -0.918555 -0.919847 -0.921854 -0.924551 -0.927910 -0.931903 -0.936495 -0.941651 -0.947335 -0.953508 -0.960132 -0.967168 -0.974576 -0.982317 -0.990353 -0.998645 -1.007158 -1.015855 -1.024702 -1.033667 -1.042718 -1.051824 -1.060957 -1.070089 -1.079194 -1.088245 -1.097210 -1.106055 -1.114740 -1.123220 -1.131443 -1.139351 -1.146880 -1.153964 -1.160531 -1.166507 -1.171817 -1.176387 -1.180144 -1.183018 -1.184942 -1.185858 -1.185713 -1.184469 -1.182098 -1.178588 -1.173943 -1.168182 -1.161339 -1.153465 -1.144623 -1.134891 -1.124354 -1.113111 -1.101264 -1.088923 -1.076200 -1.063210 -1.050067 -1.036884 -1.023770 -1.010831 -0.998166 -0.985869 -0.974027 -0.962719 -0.952015 -0.941979 -0.932666 -0.924121 -0.916381 -0.909478 -0.903431 -0.898257 -0.893961 -0.890545 -0.888004 -0.886325 -0.885492 -0.885485 -0.886276 -0.887839 -0.890142 -0.893150 -0.896828 -0.901137 -0.906037 -0.911488 -0.917449 -0.923878 -0.930736 -0.937980 -0.945572 -0.953471 -0.961639 -0.970040 -0.978640 -0.987403 -0.996294 -1.005285 -1.014343 -1.023442 -1.032550 -1.041635 -1.050661 -1.059588 -1.068367 -1.076946 -1.085266 -1.093262 -1.100865 -1.108002 -1.114597 -1.120573 -1.125854 -1.130364 -1.134029 -1.136782 -1.138560 -1.139311 -1.138994 -1.137582 -1.135061 -1.131435 -1.126723 -1.120960 -1.114195 -1.106490 -1.097922 -1.088575 -1.078544 -1.067932 -1.056843 -1.045388 -1.033677 -1.021822 -1.009931 -0.998110 -0.986459 -0.975076 -0.964050 -0.953463 -0.943392 -0.933904 -0.925057 -0.916905 -0.909489 -0.902846 -0.897002 -0.891978 -0.887786 -0.884433 -0.881917 -0.880233 -0.879368 -0.879306 -0.880024 -0.881499 -0.883703 -0.886605 -0.890171 -0.894365 -0.899150 -0.904489 -0.910341 -0.916667 -0.923428 -0.930583 -0.938095 -0.945923 -0.954030 -0.962380 -0.970937 -0.979668 -0.988538 -0.997518 -1.006577 -1.015686 -1.024818 -1.033942 -1.043024 -1.052029 -1.060911 -1.069623 -1.078110 -1.086310 -1.094157 -1.101581 -1.108508 -1.114861 -1.120564 -1.125540 -1.129714 -1.133016 -1.135378 -1.136737 -1.137038 -1.136231 -1.134275 -1.131135 -1.126786 -1.121209 -1.114395 -1.106343 -1.097059 -1.086558 -1.074860 -1.061995 -1.047996 -1.032904 -1.016764 -0.999627 -0.981546 -0.962578 -0.942784 -0.922226 -0.900968 -0.879075 -0.856612 -0.833647 -0.810244 -0.786468 -0.762383 -0.738052 -0.713535 -0.688891 -0.664177 -0.639448 -0.614754 -0.590146 -0.565670 -0.541370 -0.517286 -0.493458 -0.469921 -0.446706 -0.423842 -0.401358 -0.379277 -0.357621 -0.336408 -0.315657 -0.295380 -0.275592 -0.256301 -0.237516 -0.219243 -0.201488 -0.184252 -0.167538 -0.151345 -0.135672 -0.120518 -0.105878 -0.091748 -0.078124 -0.065002 -0.052381 -0.040260 -0.028642 -0.017533 -0.006943 0.003116 0.012628 0.021577 0.029941 0.037699 0.044830 0.051310 0.057118 0.062232 0.066633 0.070302 0.073223 0.075386 0.076778 0.077395 0.077232 0.076291 0.074575 0.072091 0.068850 0.064865 0.060155 0.054738 0.048638 0.041879 0.034488 0.026495 0.017930 0.008826 -0.000784 -0.010866 -0.021384 -0.032304 -0.043591 -0.055209 -0.067124 -0.079301 -0.091705 -0.104305 -0.117066 -0.129959 -0.142952 -0.156017 -0.169126 -0.182252 -0.195369 -0.208455 -0.221487 -0.234443 -0.247305 -0.260054 -0.272673 -0.285146 -0.297457 -0.309592 -0.321535 -0.333268 -0.344771 -0.356022 -0.366997 -0.377669 -0.388007 -0.397981 -0.407556 -0.416700 -0.425378 -0.433555 -0.441199 -0.448278 -0.454761 -0.460624 -0.465843 -0.470403 -0.474293 -0.477512 -0.480063 -0.481959 -0.483219 -0.483869 -0.483943 -0.483479 -0.482521 -0.481115 -0.479312 -0.477167 -0.474732 -0.472062 -0.469214 -0.466240 -0.463192 -0.460122 -0.457076 -0.454099 -0.451233 -0.448515 -0.445978 -0.443654 -0.441569 -0.439745 -0.438200 -0.436950 -0.436005 -0.435374 -0.435062 -0.435070 -0.435396 -0.436038 -0.436989 -0.438242 -0.439784 -0.441606 -0.443694 -0.446036 -0.448615 -0.451417 -0.454424 -0.457621 -0.460989 -0.464513 -0.468176 -0.471960 -0.475849 -0.479827 -0.483878 -0.487988 -0.492142 -0.496327 -0.500529 -0.504737 -0.508936 -0.513117 -0.517265 -0.521368 -0.525408 -0.529367 -0.533224 -0.536953 -0.540527 -0.543917 -0.547090 -0.550013 -0.552652 -0.554970 -0.556934 -0.558510 -0.559664 -0.560366 -0.560589 -0.560309 -0.559509 -0.558176 -0.556306 -0.553901 -0.550971 -0.547533 -0.543611 -0.539236 -0.534445 -0.529280 -0.523786 -0.518014 -0.512016 -0.505843 -0.499552 -0.493196 -0.486828 -0.480501 -0.474263 -0.468163 -0.462244 -0.456548 -0.451111 -0.445967 -0.441145 -0.436671 -0.432567 -0.428850 -0.425533 -0.422628 -0.420140 -0.418073 -0.416426 -0.415197 -0.414380 -0.413968 -0.413949 -0.414312 -0.415042 -0.416125 -0.417545 -0.419284 -0.421323 -0.423645 -0.426229 -0.429056 -0.432107 -0.435362 -0.438802 -0.442407 -0.446159 -0.450040 -0.454031 -0.458117 -0.462282 -0.466510 -0.470784 -0.475092 -0.479420 -0.483752 -0.488075 -0.492370 -0.496618 -0.500798 -0.504883 -0.508847 -0.512658 -0.516285 -0.519692 -0.522843 -0.525703 -0.528236 -0.530405 -0.532176 -0.533517 -0.534398 -0.534792 -0.534678 -0.534042 -0.532873 -0.531172 -0.528943 -0.526200 -0.522964 -0.519263 -0.515130 -0.510605 -0.505732 -0.500557 -0.495132 -0.489510 -0.483743 -0.477885 -0.471990 -0.466111 -0.460296 -0.454595 -0.449052 -0.443709 -0.438605 -0.433774 -0.429248 -0.425053 -0.421212 -0.417744 -0.414664 -0.411984 -0.409712 -0.407851 -0.406404 -0.405368 -0.404739 -0.404509 -0.404670 -0.405208 -0.406112 -0.407368 -0.408959 -0.410868 -0.413077 -0.415568 -0.418322 -0.421319 -0.424540 -0.427966 -0.431576 -0.435352 -0.439275 -0.443327 -0.447490 -0.451747 -0.456082 -0.460478 -0.464921 -0.469397 -0.473891 -0.478391 -0.482880 -0.487344 -0.491764 -0.496118 -0.500384 -0.504534 -0.508538 -0.512367 -0.515985 -0.519357 -0.522448 -0.525222 -0.527642 -0.529673 -0.531283 -0.532440 -0.533115 -0.533283 -0.532922 -0.532011 -0.530537 -0.528487 -0.525855 -0.522636 -0.518830 -0.514442 -0.509480 -0.503953 -0.497876 -0.491266 -0.484142 -0.476526 -0.468442 -0.459917 -0.450976 -0.441650 -0.431967 -0.421959 -0.411655 -0.401086 -0.390285 -0.379281 -0.368106 -0.356789 -0.345360 -0.333846 -0.322277 -0.310678 -0.299074 -0.287490 -0.275949 -0.264473 -0.253081 -0.241794 -0.230629 -0.219602 -0.208729 -0.198022 -0.187494 -0.177157 -0.167021 -0.157094 -0.147384 -0.137898 -0.128641 -0.119618 -0.110833 -0.102288 -0.093986 -0.085928 -0.078115 -0.070546 -0.063220 -0.056138 -0.049297 -0.042696 -0.036338 -0.030230 -0.024381 -0.018812 -0.013547 -0.008619 -0.004068 0.000057 0.003705 0.006817 0.009333 0.011187 0.012316 0.012656 0.012143 0.010719 0.008328 0.004919 0.000449 -0.005121 -0.011822 -0.019678 -0.028705 -0.038910 -0.050295 -0.062852 -0.076569 -0.091423 -0.107387 -0.124428 -0.142505 -0.161576 -0.181591 -0.202496 -0.224237 -0.246754 -0.269987 -0.293871 -0.318343 -0.343339 -0.368794 -0.394642 -0.420821 -0.447267 -0.473918 -0.500715 -0.527598 -0.554511 -0.581402 -0.608217 -0.634909 -0.661430 -0.687738 -0.713791 -0.739551 -0.764984 -0.790058 -0.814741 -0.839006 -0.862829 -0.886184 -0.909043 -0.931375 -0.953147 -0.974318 -0.994841 -1.014667 -1.033738 -1.051993 -1.069368 -1.085795 -1.101208 -1.115537 -1.128717 -1.140682 -1.151374 -1.160739 -1.168732 -1.175321 -1.180485 -1.184218 -1.186532 -1.187451 -1.187018 -1.185288 -1.182331 -1.178229 -1.173076 -1.166973 -1.160029 -1.152359 -1.144078 -1.135306 -1.126161 -1.116759 -1.107215 -1.097638 -1.088130 -1.078790 -1.069707 -1.060965 -1.052639 -1.044794 -1.037490 -1.030777 -1.024695 -1.019280 -1.014557 -1.010544 -1.007253 -1.004690 -1.002854 -1.001737 -1.001328 -1.001611 -1.002565 -1.004166 -1.006388 -1.009200 -1.012572 -1.016470 -1.020859 -1.025704 -1.030967 -1.036613 -1.042606 -1.048908 -1.055485 -1.062301 -1.069323 -1.076518 -1.083855 -1.091302 -1.098832 -1.106417 -1.114031 -1.121647 -1.129239 -1.136777 -1.144227 -1.151548 -1.158696 -1.165618 -1.172258 -1.178552 -1.184432 -1.189826 -1.194661 -1.198861 -1.202352 -1.205060 -1.206914 -1.207849 -1.207804 -1.206727 -1.204578 -1.201330 -1.196970 -1.191501 -1.184941 -1.177325 -1.168702 -1.159135 -1.148700 -1.137484 -1.125584 -1.113101 -1.100146 -1.086829 -1.073265 -1.059568 -1.045849 -1.032218 -1.018779 -1.005632 -0.992870 -0.980580 -0.968839 -0.957719 -0.947283 -0.937583 -0.928666 -0.920568 -0.913321 -0.906943 -0.901451 -0.896851 -0.893142 -0.890319 -0.888371 -0.887281 -0.887028 -0.887585 -0.888924 -0.891013 -0.893818 -0.897302 -0.901425 -0.906149 -0.911433 -0.917236 -0.923515 -0.930230 -0.937340 -0.944805 -0.952584 -0.960640 -0.968936 -0.977434 -0.986102 -0.994906 -1.003815 -1.012798 -1.021827 -1.030871 -1.039897 -1.048870 -1.057747 -1.066483 -1.075022 -1.083307 -1.091273 -1.098849 -1.105963 -1.112539 -1.118500 -1.123769 -1.128269 -1.131929 -1.134679 -1.136457 -1.137210 -1.136898 -1.135493 -1.132981 -1.129367 -1.124669 -1.118921 -1.112173 -1.104487 -1.095938 -1.086613 -1.076605 -1.066017 -1.054953 -1.043524 -1.031841 -1.020013 -1.008150 -0.996358 -0.984738 -0.973385 -0.962389 -0.951833 -0.941793 -0.932336 -0.923522 -0.915401 -0.908017 -0.901406 -0.895594 -0.890602 -0.886442 -0.883120 -0.880635 -0.878982 -0.878148 -0.878117 -0.878868 -0.880375 -0.882611 -0.885543 -0.889139 -0.893363 -0.898178 -0.903545 -0.909426 -0.915780 -0.922567 -0.929750 -0.937287 -0.945140 -0.953273 -0.961647 -0.970228 -0.978982 -0.987875 -0.996877 -1.005957 -1.015088 -1.024240 -1.033384 -1.042486 -1.051509 -1.060410 -1.069140 -1.077644 -1.085861 -1.093725 -1.101165 -1.108107 -1.114475 -1.120192 -1.125182 -1.129370 -1.132685 -1.135060 -1.136431 -1.136744 -1.135949 -1.134004 -1.130875 -1.126536 -1.120969 -1.114165 -1.106122 -1.096847 -1.086355 -1.074666 -1.061808 -1.047817 -1.032733 -1.016601 -0.999470 -0.981395 -0.962434 -0.942646 -0.922094 -0.900842 -0.878954 -0.856497 -0.833537 -0.810138 -0.786367 -0.762287 -0.737960 -0.713447 -0.688807 -0.664097 -0.639371 -0.614681 -0.590077 -0.565604 -0.541306 -0.517225 -0.493399 -0.469864 -0.446651 -0.423791 -0.401309 -0.379230 -0.357576 -0.336366 -0.315616 -0.295342 -0.275555 -0.256266 -0.237483 -0.219212 -0.201458 -0.184224 -0.167511 -0.151319 -0.135648 -0.120495 -0.105856 -0.091728 -0.078107 -0.064990 -0.052378 -0.040273 -0.028679 -0.017604 -0.007061 0.002936 0.012371 0.021224 0.029475 0.037100 0.044078 0.050387 0.056003 0.060908 0.065082 0.068509 0.071176 0.073070 0.074185 0.074516 0.074062 0.072826 0.070813 0.068034 0.064500 0.060228 0.055237 0.049547 0.043184 0.036174 0.028545 0.020328 0.011554 0.002256 -0.007531 -0.017774 -0.028437 -0.039483 -0.050878 -0.062587 -0.074575 -0.086808 -0.099252 -0.111874 -0.124643 -0.137528 -0.150499 -0.163528 -0.176588 -0.189652 -0.202696 -0.215697 -0.228634 -0.241486 -0.254236 -0.266865 -0.279356 -0.291695 -0.303865 -0.315852 -0.327639 -0.339206 -0.350533 -0.361595 -0.372367 -0.382820 -0.392923 -0.402644 -0.411948 -0.420801 -0.429170 -0.437020 -0.444318 -0.451034 -0.457141 -0.462612 -0.467430 -0.471579 -0.475053 -0.477853 -0.479986 -0.481466 -0.482316 -0.482567 -0.482251 -0.481412 -0.480094 -0.478347 -0.476223 -0.473776 -0.471062 -0.468136 -0.465054 -0.461869 -0.458635 -0.455400 -0.452213 -0.449118 -0.446154 -0.443359 -0.440766 -0.438405 -0.436299 -0.434471 -0.432939 -0.431715 -0.430811 -0.430232 -0.429982 -0.430063 -0.430471 -0.431202 -0.432249 -0.433603 -0.435252 -0.437185 -0.439387 -0.441845 -0.444543 -0.447464 -0.450591 -0.453908 -0.457397 -0.461040 -0.464820 -0.468721 -0.472724 -0.476815 -0.480977 -0.485196 -0.489455 -0.493743 -0.498046 -0.502351 -0.506646 -0.510918 -0.515154 -0.519341 -0.523460 -0.527493 -0.531417 -0.535208 -0.538836 -0.542272 -0.545483 -0.548435 -0.551094 -0.553425 -0.555392 -0.556962 -0.558103 -0.558785 -0.558981 -0.558671 -0.557838 -0.556473 -0.554575 -0.552148 -0.549205 -0.545767 -0.541860 -0.537517 -0.532777 -0.527682 -0.522281 -0.516622 -0.510759 -0.504744 -0.498631 -0.492473 -0.486322 -0.480228 -0.474239 -0.468401 -0.462755 -0.457341 -0.452193 -0.447342 -0.442817 -0.438640 -0.434831 -0.431405 -0.428375 -0.425748 -0.423531 -0.421724 -0.420326 -0.419334 -0.418741 -0.418538 -0.418715 -0.419257 -0.420152 -0.421384 -0.422936 -0.424792 -0.426933 -0.429340 -0.431995 -0.434878 -0.437970 -0.441252 -0.444706 -0.448312 -0.452053 -0.455910 -0.459868 -0.463910 -0.468022 -0.472187 -0.476391 -0.480621 -0.484862 -0.489100 -0.493319 -0.497500 -0.501623 -0.505663 -0.509595 -0.513387 -0.517010 -0.520428 -0.523608 -0.526512 -0.529104 -0.531349 -0.533211 -0.534657 -0.535658 -0.536186 -0.536220 -0.535746 -0.534756 -0.533248 -0.531229 -0.528713 -0.525721 -0.522282 -0.518428 -0.514197 -0.509635 -0.504786 -0.499700 -0.494427 -0.489020 -0.483530 -0.478009 -0.472506 -0.467068 -0.461742 -0.456571 -0.451594 -0.446846 -0.442362 -0.438168 -0.434292 -0.430753 -0.427570 -0.424755 -0.422320 -0.420272 -0.418613 -0.417344 -0.416464 -0.415967 -0.415846 -0.416092 -0.416695 -0.417639 -0.418911 -0.420498 -0.422381 -0.424545 -0.426971 -0.429641 -0.432537 -0.435640 -0.438933 -0.442395 -0.446010 -0.449760 -0.453627 -0.457595 -0.461647 -0.465769 -0.469945 -0.474162 -0.478406 -0.482663 -0.486921 -0.491163 -0.495372 -0.499529 -0.503612 -0.507595 -0.511449 -0.515145 -0.518649 -0.521927 -0.524942 -0.527660 -0.530044 -0.532058 -0.533669 -0.534844 -0.535553 -0.535770 -0.535471 -0.534635 -0.533245 -0.531288 -0.528756 -0.525643 -0.521947 -0.517671 -0.512820 -0.507405 -0.501438 -0.494934 -0.487912 -0.480393 -0.472399 -0.463957 -0.455092 -0.445833 -0.436208 -0.426249 -0.415985 -0.405447 -0.394666 -0.383674 -0.372500 -0.361176 -0.349730 -0.338191 -0.326588 -0.314946 -0.303293 -0.291652 -0.280048 -0.268501 -0.257034 -0.245665 -0.234413 -0.223296 -0.212327 -0.201522 -0.190894 -0.180453 -0.170211 -0.160177 -0.150358 -0.140762 -0.131395 -0.122261 -0.113366 -0.104711 -0.096300 -0.088134 -0.080213 -0.072538 -0.065108 -0.057923 -0.050981 -0.044280 -0.037822 -0.031608 -0.025647 -0.019954 -0.014549 -0.009461 -0.004725 -0.000385 0.003510 0.006905 0.009740 0.011954 0.013480 0.014256 0.014218 0.013303 0.011455 0.008619 0.004748 -0.000200 -0.006261 -0.013463 -0.021826 -0.031364 -0.042081 -0.053975 -0.067037 -0.081249 -0.096588 -0.113024 -0.130520 -0.149036 -0.168525 -0.188937 -0.210217 -0.232308 -0.255151 -0.278683 -0.302842 -0.327562 -0.352779 -0.378428 -0.404445 -0.430766 -0.457328 -0.484071 -0.510935 -0.537862 -0.564797 -0.591687 -0.618482 -0.645134 -0.671597 -0.697829 -0.723790 -0.749444 -0.774756 -0.799695 -0.824233 -0.848343 -0.871999 -0.895175 -0.917843 -0.939972 -0.961523 -0.982455 -1.002720 -1.022264 -1.041029 -1.058952 -1.075968 -1.092010 -1.107008 -1.120895 -1.133607 -1.145079 -1.155254 -1.164079 -1.171513 -1.177520 -1.182083 -1.185197 -1.186870 -1.187129 -1.186016 -1.183588 -1.179916 -1.175083 -1.169183 -1.162320 -1.154606 -1.146157 -1.137093 -1.127535 -1.117606 -1.107426 -1.097110 -1.086773 -1.076522 -1.066456 -1.056670 -1.047249 -1.038272 -1.029807 -1.021916 -1.014650 -1.008053 -1.002160 -0.996999 -0.992589 -0.988942 -0.986065 -0.983955 -0.982607 -0.982009 -0.982143 -0.982988 -0.984519 -0.986709 -0.989526 -0.992938 -0.996909 -1.001404 -1.006385 -1.011813 -1.017652 -1.023862 -1.030406 -1.037246 -1.044346 -1.051670 -1.059183 -1.066852 -1.074646 -1.082534 -1.090487 -1.098478 -1.106480 -1.114466 -1.122406 -1.130268 -1.138014 -1.145601 -1.152979 -1.160091 -1.166878 -1.173272 -1.179203 -1.184599 -1.189383 -1.193480 -1.196817 -1.199322 -1.200926 -1.201566 -1.201185 -1.199739 -1.197194 -1.193528 -1.188738 -1.182834 -1.175842 -1.167806 -1.158781 -1.148837 -1.138058 -1.126534 -1.114367 -1.101663 -1.088534 -1.075094 -1.061457 -1.047738 -1.034048 -1.020496 -1.007184 -0.994210 -0.981666 -0.969633 -0.958188 -0.947397 -0.937321 -0.928009 -0.919504 -0.911838 -0.905039 -0.899124 -0.894103 -0.889981 -0.886755 -0.884416 -0.882949 -0.882337 -0.882555 -0.883575 -0.885367 -0.887898 -0.891131 -0.895028 -0.899551 -0.904658 -0.910308 -0.916460 -0.923071 -0.930100 -0.937506 -0.945248 -0.953288 -0.961588 -0.970109 -0.978817 -0.987678 -0.996659 -1.005729 -1.014859 -1.024018 -1.033176 -1.042300 -1.051350 -1.060283 -1.069050 -1.077594 -1.085855 -1.093765 -1.101253 -1.108246 -1.114666 -1.120437 -1.125482 -1.129725 -1.133096 -1.135529 -1.136966 -1.137359 -1.136675 -1.134893 -1.132007 -1.128030 -1.122988 -1.116922 -1.109888 -1.101956 -1.093206 -1.083728 -1.073619 -1.062982 -1.051926 -1.040559 -1.028991 -1.017333 -1.005689 -0.994164 -0.982854 -0.971852 -0.961244 -0.951107 -0.941513 -0.932524 -0.924196 -0.916574 -0.909699 -0.903600 -0.898301 -0.893818 -0.890161 -0.887330 -0.885324 -0.884133 -0.883743 -0.884135 -0.885286 -0.887170 -0.889756 -0.893014 -0.896909 -0.901405 -0.906464 -0.912048 -0.918118 -0.924634 -0.931558 -0.938851 -0.946474 -0.954389 -0.962559 -0.970950 -0.979526 -0.988254 -0.997104 -1.006044 -1.015047 -1.024083 -1.033124 -1.042139 -1.051091 -1.059941 -1.068641 -1.077140 -1.085378 -1.093293 -1.100813 -1.107868 -1.114381 -1.120276 -1.125477 -1.129907 -1.133494 -1.136169 -1.137867 -1.138531 -1.138106 -1.136550 -1.133825 -1.129900 -1.124756 -1.118380 -1.110766 -1.101919 -1.091848 -1.080574 -1.068121 -1.054522 -1.039814 -1.024041 -1.007251 -0.989497 -0.970834 -0.951321 -0.931021 -0.909996 -0.888311 -0.866032 -0.843224 -0.819954 -0.796286 -0.772285 -0.748014 -0.723534 -0.698905 -0.674184 -0.649428 -0.624688 -0.600015 -0.575456 -0.551057 -0.526860 -0.502903 -0.479225 -0.455858 -0.432832 -0.410175 -0.387913 -0.366068 -0.344661 -0.323708 -0.303227 -0.283229 -0.263725 -0.244726 -0.226237 -0.208264 -0.190810 -0.173878 -0.157469 -0.141581 -0.126213 -0.111361 -0.097023 -0.083198 -0.069890 -0.057109 -0.044877 -0.033224 -0.022192 -0.011837 -0.002224 0.006572 0.014467 0.021370 0.027184 0.031812 0.035154 0.037113 0.037594 0.036510 0.033779 0.029327 0.023091 0.015019 0.005068 -0.006792 -0.020578 -0.036297 -0.053942 -0.073496 -0.094929 -0.118203 -0.143267 -0.170063 -0.198525 -0.228576 -0.260136 -0.293118 -0.327429 -0.362973 -0.399652 -0.437363 -0.476004 -0.515470 -0.555658 -0.596467 -0.637793 -0.679537 -0.721602 -0.763891 -0.806313 -0.848781 -0.891208 -0.933514 -0.975623 -1.017462 -1.058962 -1.100061 -1.140699 -1.180822 -1.220379 -1.259324 -1.297613 -1.335207 -1.372062 -1.408133 -1.443369 -1.477710 -1.511090 -1.543431 -1.574649 -1.604650 -1.633336 -1.660603 -1.686343 -1.710448 -1.732812 -1.753329 -1.771901 -1.788437 -1.802856 -1.815096 -1.825112 -1.832879 -1.838399 -1.841697 -1.842822 -1.841850 -1.838876 -1.834019 -1.827415 -1.819215 -1.809584 -1.798697 -1.786734 -1.773882 -1.760327 -1.746253 -1.731843 -1.717272 -1.702708 -1.688312 -1.674231 -1.660603 -1.647553 -1.635193 -1.623624 -1.612932 -1.603189 -1.594457 -1.586784 -1.580205 -1.574747 -1.570422 -1.567235 -1.565180 -1.564244 -1.564405 -1.565636 -1.567901 -1.571160 -1.575369 -1.580482 -1.586447 -1.593210 -1.600716 -1.608909 -1.617732 -1.627127 -1.637036 -1.647404 -1.658174 -1.669294 -1.680709 -1.692369 -1.704226 -1.716232 -1.728346 -1.740523 -1.752722 -1.764903 -1.777022 -1.789028 -1.800866 -1.812469 -1.823762 -1.834660 -1.845068 -1.854885 -1.864000 -1.872300 -1.879668 -1.885984 -1.891133 -1.895000 -1.897477 -1.898461 -1.897862 -1.895603 -1.891625 -1.885889 -1.878381 -1.869111 -1.858112 -1.845444 -1.831190 -1.815455 -1.798362 -1.780053 -1.760684 -1.740419 -1.719434 -1.697909 -1.676025 -1.653964 -1.631904 -1.610018 -1.588473 -1.567426 -1.547025 -1.527405 -1.508690 -1.490991 -1.474406 -1.459019 -1.444901 -1.432110 -1.420691 -1.410675 -1.402084 -1.394927 -1.389203 -1.384900 -1.382000 -1.380473 -1.380284 -1.381393 -1.383750 -1.387304 -1.391999 -1.397775 -1.404571 -1.412323 -1.420964 -1.430429 -1.440651 -1.451563 -1.463101 -1.475199 -1.487795 -1.500827 -1.514235 -1.527961 -1.541953 -1.556157 -1.570521 -1.585000 -1.599545 -1.614109 -1.628641 -1.643083 -1.657370 -1.671426 -1.685168 -1.698503 -1.711328 -1.723534 -1.735006 -1.745624 -1.755267 -1.763814 -1.771145 -1.777145 -1.781706 -1.784731 -1.786137 -1.785859 -1.783854 -1.780102 -1.774608 -1.767401 -1.758537 -1.748091 -1.736164 -1.722874 -1.708356 -1.692759 -1.676241 -1.658971 -1.641122 -1.622866 -1.604380 -1.585833 -1.567393 -1.549218 -1.531461 -1.514262 -1.497752 -1.482049 -1.467260 -1.453478 -1.440785 -1.429248 -1.418924 -1.409855 -1.402072 -1.395596 -1.390437 -1.386592 -1.384052 -1.382800 -1.382808 -1.384044 -1.386467 -1.390034 -1.394695 -1.400398 -1.407088 -1.414705 -1.423189 -1.432478 -1.442511 -1.453224 -1.464556 -1.476444 -1.488829 -1.501650 -1.514851 -1.528374 -1.542168 -1.556179 -1.570360 -1.584663 -1.599043 -1.613456 -1.627853 -1.642184 -1.656389 -1.670401 -1.684142 -1.697526 -1.710457 -1.722831 -1.734537 -1.745458 -1.755474 -1.764465 -1.772311 -1.778894 -1.784101 -1.787827 -1.789974 -1.790454 -1.789189 -1.786114 -1.781174 -1.774329 -1.765551 -1.754826 -1.742150 -1.727534 -1.711002 -1.692586 -1.672331 -1.650291 -1.626530 -1.601119 -1.574137 -1.545668 -1.515804 -1.484639 -1.452271 -1.418801 -1.384331 -1.348964 -1.312806 -1.275958 -1.238523 -1.200602 -1.162293 -1.123691 -1.084890 -1.045978 -1.007041 -0.968161 -0.929416 -0.890878 -0.852617 