1.511044 1.511044 1.511044 1.511044 1.511044 1.511044 1.511044 1.511044 1.511044 1.441459 1.616566 1.612350 1.607528 1.602714 1.598562 1.943785 1.943242 1.937467 1.931792 1.938098 1.934043 1.928480 1.924607 1.918840 1.916652 1.910947 1.918175 1.916480 1.913602 1.908252 1.907264 1.910624 1.985298 1.986550 1.980599 1.981172 1.979154 1.992952 2.011549 2.011746 2.013748 2.016477 2.010502 2.009414 2.004770 2.009823 2.007062 2.010788 2.010432 2.011395 2.007948 2.002651 2.004952 1.998949 2.004545 2.001276 1.996990 1.991080 2.006278 2.008483 2.007857 2.004683 2.003536 2.005858 2.013402 2.010913 2.008665 2.030535 2.025156 2.042175 2.037855 2.034505 2.034223 2.035598 2.031154 2.031693 2.029771 2.035250 2.036664 2.038711 2.039874 2.042477 2.065367 2.068584 2.072215 2.070506 2.084703 2.086134 2.087279 2.082085 2.086076 2.089777 2.097439 2.105285 2.111817 2.124301 2.128992 2.144597 2.148097 2.160932 2.163837 2.162065 2.163541 2.163937 2.163727 2.183071 2.187558 2.182735 2.179029 2.178643 2.185426 2.185173 2.187668 2.193386 2.186984 2.186909 2.182677 2.182884 2.181576 2.179384 2.182638 2.181912 2.188121 2.184261 2.179427 2.179410 2.179897 2.179529 2.178584 2.176377 2.175349 2.170170 2.172952 2.174459 2.176527 2.181882 2.180952 2.181069 2.176497 2.170940 2.170669 2.172360 2.175922 2.182485 2.184263 2.180002 2.181898 2.183686 2.183024 2.187225 2.184269 2.187620 2.186299 2.191388 2.186701 2.187675 2.184279 2.184931 2.192220 2.189012 2.187573 2.188400 2.189725 2.195086 2.192070 2.189668 2.188057 2.185150 2.188620 2.191303 2.187714 2.185475 2.182178 2.188651 2.188021 2.185344 2.189391 2.189048 2.186799 2.185769 2.180868 2.176446 2.177038 2.174905 2.176532 2.174741 2.169701 2.170098 2.172582 2.172042 2.170690 2.173148 2.169332 2.175183 2.176618 2.175826 2.174898 2.169805 2.168694 2.178584 2.184562 2.181860 2.184648 2.181999 2.182059 2.179748 2.183574 2.181054 2.185347 2.185892 2.188141 2.187579 2.189150 2.188729 2.189161 2.186764 2.190912 2.187913 2.195198 2.193778 2.191583 2.190777 2.190301 2.186734 2.191294 2.192697 2.194798 2.195016 2.199805 2.196344 2.199961 2.196359 2.196411 2.205126 2.204574 2.201550 2.201446 2.202466 2.199611 2.197449 2.195719 2.189979 2.188858 2.187155 2.193219 2.188365 2.183930 2.181485 2.179911 2.180117 2.177605 2.172347 2.167424 2.166108 2.160737 2.163307 2.167160 2.171446 2.173834 2.179858 2.183074 2.178496 2.174799 2.176805 2.174915 2.179087 2.178095 2.172657 2.173425 2.177795 2.177319 2.172784 2.173297 2.176521 2.176545 2.178987 2.183766 2.178987 2.177336 2.176115 2.175442 2.176178 2.173237 2.175127 2.175707 2.173227 2.183257 2.185921 2.182757 2.184943 2.185367 2.181451 2.180945 2.180232 2.182527 2.185557 2.186119 2.187507 2.192546 2.189268 2.186102 2.192584 2.196723 2.193772 2.193995 2.192780 2.193037 2.194857 2.194424 2.190601 2.187463 2.189833 2.188989 2.191711 2.193893 2.189518 2.191865 2.192745 2.191227 2.187768 2.188083 2.193546 2.192902 2.204143 2.201163 2.198119 2.195896 2.198822 2.198489 2.194802 2.196166 2.195335 2.193975 2.196213 2.197496 2.194312 2.197447 2.198657 2.201260 2.202857 2.205571 2.206093 2.209485 2.213709 2.213323 2.214192 2.216322 2.214243 2.214506 2.214352 2.215079 2.217956 2.217502 2.217252 2.216587 2.218943 2.218522 2.217713 2.218948 2.220345 2.227374 2.224331 2.219935 2.219035 2.224133 2.222622 2.234361 2.233416 2.232734 2.231205 2.229187 2.227016 2.225147 2.223408 2.226426 2.233960 2.231335 2.231017 2.230756 2.230116 2.226796 2.226350 2.231852 2.230227 2.234760 2.232412 2.230849 2.231670 2.239786 2.237043 2.238974 2.236739 2.232588 2.229788 2.228185 2.223847 2.221996 2.224928 2.221432 2.218262 2.217465 2.220274 2.226194 2.226102 2.223045 2.221599 2.222542 2.220953 2.216879 2.218124 2.218055 2.214395 2.218725 2.217845 2.218421 2.216857 2.219215 2.221650 2.224437 2.221815 2.220883 2.224055 2.221606 2.218064 2.215673 2.215809 2.227483 2.227419 2.226936 2.227328 2.231984 2.230086 2.235298 2.232828 2.235573 2.236711 2.234184 2.231761 2.229249 2.231665 2.234607 2.230651 2.227159 2.227465 2.224776 2.222476 2.220596 2.219458 2.219860 2.214436 2.220872 2.224764 2.222073 2.218711 2.222037 2.226201 2.225910 2.223681 2.223091 2.224518 2.229295 2.228139 2.226444 2.226330 2.230399 2.229315 2.233789 2.233806 2.235860 2.236420 2.237059 2.237940 2.236175 2.235838 2.233047 2.237863 2.237891 2.236904 2.234515 2.231290 2.237947 2.250073 2.249699 2.246755 2.243727 2.243547 2.244355 2.250272 2.248846 2.246388 2.255465 2.251587 2.250610 2.255226 2.253045 2.251497 2.256128 2.251784 2.250534 2.248923 2.247808 2.249127 2.254872 2.257533 2.259716 2.260188 2.261318 2.260791 2.264277 2.273488 2.275945 2.273469 2.277956 2.280153 2.279042 2.278198 2.280246 2.276432 2.275488 2.272318 2.280917 2.283753 2.279962 2.282199 2.284399 2.290411 2.288078 2.288289 2.287924 2.291309 2.294506 2.294064 2.294964 2.295006 2.295280 2.301665 2.300938 2.310608 2.311411 2.310470 2.318737 2.314949 2.311441 2.314639 2.315965 2.316921 2.314260 2.310446 2.314449 2.313189 2.317051 2.312647 2.309948 2.307266 2.302999 2.305654 2.314166 2.312690 2.311676 2.307991 2.313792 2.316832 2.314967 2.313653 2.314292 2.311382 2.316914 2.317834 2.318355 2.320390 2.323490 2.323393 2.319388 2.317689 2.316622 2.316149 2.316027 2.314976 2.316599 2.313120 2.310829 2.318726 2.321057 2.326742 2.322636 2.327085 2.328365 2.336612 2.338801 2.339739 2.342568 2.339607 2.341271 2.345535 2.343124 2.341305 2.340823 2.341155 2.347289 2.346835 2.345045 2.342351 2.344057 2.345178 2.351509 2.349626 2.355766 2.353834 2.358355 2.360112 2.359528 2.357490 2.361482 2.365373 2.369448 2.369453 2.372111 2.376478 2.373371 2.373139 2.372553 2.381570 2.379514 2.383754 2.385622 2.382789 2.381531 2.385433 2.388127 2.390302 2.386304 2.382575 2.386508 2.391811 2.391855 2.392161 2.396722 2.398158 2.402109 2.405975 2.414183 2.418290 2.418888 2.420030 2.417805 2.417360 2.421978 2.423442 2.424974 2.430412 2.433220 2.436367 2.439708 2.446897 2.441437 2.441030 2.440324 2.437959 2.438119 2.437520 2.435927 2.439672 2.436682 2.437314 2.440588 2.439576 2.437903 2.443665 2.438801 2.439867 2.440104 2.436784 2.440037 2.448621 2.445462 2.444046 2.443604 2.446586 2.446333 2.446227 2.445220 2.443106 2.443515 2.444695 2.440056 2.436807 2.433384 2.438243 2.435950 2.439283 2.445942 2.448140 2.448322 2.449463 2.452861 2.450129 2.447841 2.448331 2.449778 2.448764 2.447061 2.445649 2.444217 2.440751 2.443804 2.449438 2.445299 2.445218 2.443502 2.443833 2.441000 2.439975 2.437976 2.435270 2.432387 2.429801 2.435090 2.434582 2.434833 2.433997 2.434213 2.429421 2.429330 2.430470 2.429278 2.425671 2.424623 2.426839 2.425489 2.422758 2.420181 2.421105 2.419898 2.419620 2.419842 2.420115 2.421614 2.417855 2.416481 2.416200 2.411507 2.415093 2.414054 2.413058 2.418369 2.416425 2.417148 2.416826 2.413306 2.412032 2.415598 2.419692 2.418690 2.413149 2.412285 2.417743 2.416085 2.419807 2.421454 2.418806 2.421429 2.418845 2.417040 2.417663 2.418767 2.419058 2.418512 2.415860 2.417680 2.424992 2.425058 2.423542 2.420262 2.419867 2.418993 2.414880 2.420008 2.421940 2.420947 2.420779 2.417107 2.411792 2.414352 2.409150 2.407735 2.410255 2.407954 2.405337 2.401768 2.399445 2.398316 2.397022 2.391697 2.394021 2.390523 2.386915 2.385296 2.389358 2.389386 2.384674 2.384680 2.391690 2.392449 2.391430 2.396701 2.400311 2.394881 2.398135 2.399106 2.401781 2.398548 2.395857 2.398945 2.398712 2.394163 2.391005 2.388220 2.387600 2.388432 2.382861 2.380419 2.375883 2.372025 2.368223 2.368264 2.368942 2.367601 2.368672 2.369863 2.366992 2.366463 2.367278 2.373534 2.376585 2.379077 2.380013 2.379482 2.377618 2.376563 2.377372 2.373349 2.373582 2.369801 2.370597 2.367299 2.368145 2.365066 2.371676 2.369928 2.374035 2.370878 2.371346 2.367123 2.371232 2.367519 2.363742 2.359772 2.375002 2.378633 2.380090 2.384487 2.383852 2.379284 2.375149 2.378283 2.381930 2.381233 2.377228 2.373905 2.370188 2.371578 2.369989 2.367379 2.367131 2.368688 2.367919 2.365268 2.361632 2.362562 2.359232 2.356587 2.361614 2.359671 2.359693 2.360953 2.359171 2.360125 2.358633 2.356077 2.350918 2.349269 2.351490 2.353507 2.352635 2.347600 2.346179 2.345545 2.344569 2.345301 2.341233 2.344399 2.342889 2.347639 2.343718 2.343040 2.339719 2.336496 2.334315 2.339988 2.345985 2.343307 2.338448 2.337387 2.333659 2.329857 2.330437 2.331074 2.326684 2.323299 2.321263 2.316791 2.311230 2.308411 2.308466 2.305580 2.303177 2.302292 2.300267 2.303301 2.301893 2.298239 2.306076 2.304140 2.306035 2.306452 2.306014 2.304060 2.303271 2.300724 2.295664 2.295798 2.297648 2.294524 2.291806 2.294329 2.291422 2.296431 2.299899 2.295320 2.294606 2.291306 2.287385 2.285354 2.284162 2.282764 2.286363 2.284517 2.286053 2.285850 2.285085 2.285661 2.285438 2.286336 2.288485 2.287868 2.287222 2.281687 2.287757 2.282500 2.287371 2.290593 2.288458 2.284985 2.281173 2.284147 2.286655 2.286526 2.283854 2.280530 2.280041 2.285688 2.290538 2.291465 2.291081 2.292057 2.291177 2.288295 2.290795 2.292542 2.292067 2.292737 2.293324 2.289443 2.287620 2.290482 2.290530 2.291597 2.305556 2.302239 2.305396 2.307551 2.312735 2.311472 2.307835 2.312806 2.314658 2.317730 2.313808 2.311476 2.308382 2.305256 2.304917 2.305522 2.304016 2.301967 2.300963 2.302781 2.298621 2.298749 2.296621 2.294185 2.297471 2.296042 2.295984 2.302950 2.302913 2.311239 2.311170 2.313037 2.314926 2.312112 2.310604 2.311520 2.311304 2.314370 2.311188 2.313481 2.314481 2.319149 2.317412 2.315039 2.313880 2.311487 2.314338 2.312198 2.313824 2.313427 2.317544 2.320139 2.317285 2.317832 2.316120 2.323556 2.321679 2.324133 2.332179 2.339084 2.338897 2.340180 2.337127 2.338756 2.336399 2.336966 2.340816 2.342684 2.341766 2.337873 2.338622 2.339269 2.343427 2.339063 2.340375 2.341613 2.337951 2.337947 2.346020 2.344287 2.338657 2.336449 2.335457 2.333904 2.334950 2.337742 2.337316 2.338297 2.337744 2.334037 2.339236 2.351958 2.348259 2.348990 2.348045 2.347597 2.346288 2.347079 2.350364 2.351881 2.350138 2.347388 2.350854 2.349727 2.354489 2.357896 2.353087 2.354707 2.351541 2.359148 2.359880 2.355377 2.355863 2.357647 2.359827 2.361830 2.360630 2.363165 2.360189 2.360147 2.358531 2.359308 2.361587 2.363930 2.366557 2.366981 2.365653 2.362209 2.358905 2.356643 2.354451 2.352635 2.350050 2.344883 2.355707 2.355743 2.355335 2.355343 2.355533 2.355035 2.357687 2.354609 2.354181 2.353703 2.354935 2.355978 2.363066 2.359569 2.359111 2.362672 2.364826 2.365589 2.364298 2.361103 2.360577 2.359387 2.362321 2.362784 2.368662 2.373962 2.375218 2.380152 2.378370 2.377837 2.376545 2.375998 2.373688 2.371661 2.368957 2.365752 2.360373 2.358357 2.356827 2.358812 2.356013 2.355271 2.349902 2.351907 2.353234 2.350445 2.350818 2.349776 2.350475 2.351953 2.355217 2.352326 2.353213 2.351358 2.354887 2.355905 2.357178 2.358241 2.353873 2.358669 2.363562 2.362415 2.361905 2.358214 2.356730 2.355399 2.353987 2.360301 2.357187 2.365113 2.361937 2.359824 2.360632 2.355688 2.356631 2.356680 2.358697 2.362560 2.362747 2.361240 2.357600 2.358889 2.358143 2.357459 2.358527 2.367203 2.371907 2.376501 2.375924 2.376059 2.372553 2.373816 2.369859 2.373532 2.374693 2.375481 2.378404 2.376708 2.384619 2.383841 2.382229 2.383043 2.379796 2.380167 2.376372 2.373653 2.372139 2.370327 2.368408 2.366774 2.367932 2.368360 2.368215 2.371408 2.367938 2.367362 2.364433 2.368701 2.372083 2.370854 2.369582 2.365721 2.369129 2.371435 2.368101 2.370721 2.368466 2.368031 2.368496 2.366677 2.366689 2.365740 2.369403 2.377012 2.375592 2.375551 2.381770 2.382820 2.386764 2.391055 2.390870 2.391316 2.387822 2.391127 2.387508 2.385835 2.381956 2.378152 2.375121 2.373087 2.376245 2.375131 2.369934 2.373401 2.374531 2.373011 2.372255 2.377064 2.375818 2.371466 2.370654 2.371840 2.372898 2.371152 2.370356 2.369075 2.367161 2.362762 2.363632 2.363124 2.363554 2.365414 2.361892 2.360246 2.356797 2.353645 2.353909 2.355215 2.354854 2.351685 2.350840 2.346526 2.347440 2.349176 2.347332 2.344667 2.345724 2.344236 2.342657 2.339906 2.339687 2.337158 2.331845 2.328645 2.331992 2.329708 2.330978 2.327982 2.325564 2.329641 2.329876 2.328016 2.327828 2.323855 2.318591 2.320316 2.324481 2.331880 2.332198 2.336231 2.337241 2.335714 2.339416 2.337732 2.340815 2.342691 2.345291 2.347744 2.349043 2.348155 2.347333 2.343902 2.348969 2.353331 2.353055 2.353235 2.355185 2.353030 2.353811 2.350882 2.356148 2.355106 2.353265 2.347586 2.359424 2.358555 2.367293 2.362493 2.361890 2.362173 2.359551 2.358351 2.354211 2.356290 2.355557 2.358366 2.356081 2.351854 2.349058 2.347257 2.347539 2.350551 2.348714 2.353334 2.352220 2.352845 2.351099 2.351516 2.349507 2.348588 2.349175 2.348171 2.344239 2.343901 2.343134 2.341493 2.339968 2.339128 2.336426 2.338039 2.341451 2.335609 2.335557 2.337448 2.335046 2.335886 2.332199 2.329619 2.335089 2.336065 2.335888 2.335689 2.338499 2.336712 2.338629 2.341548 2.339855 2.338391 2.340635 2.336976 2.339227 2.336142 2.335982 2.341503 2.345080 2.342223 2.339937 2.338057 2.334119 2.335462 2.334316 2.334145 2.333129 2.331715 2.330206 2.330968 2.329043 2.329790 2.334997 2.332733 2.335884 2.331973 2.334331 2.333562 2.335687 2.334590 2.331145 2.332626 2.332977 2.331266 2.327470 2.325424 2.326604 2.326121 2.325185 2.324507 2.324176 2.324619 2.329276 2.326519 2.325918 2.326892 2.325938 2.324533 2.322850 2.319900 2.320367 2.323605 2.319843 2.318939 2.317036 2.316408 2.314287 2.312446 2.309235 2.308424 2.306016 2.301508 2.302207 2.299827 2.300524 2.297970 2.297218 2.292496 2.297057 2.295304 2.294063 2.293099 2.290352 2.291591 2.294417 2.297833 2.296978 2.298921 2.297315 2.295593 2.292709 2.296214 2.297762 2.302670 2.302779 2.300730 2.298370 2.298480 2.298423 2.298928 2.298217 2.302772 2.307166 2.306531 2.304189 2.299807 2.295962 2.296168 2.291664 2.294430 2.293858 2.289885 2.286701 2.286345 2.283915 2.283849 2.283721 2.289312 2.285883 2.281984 2.279729 2.277737 2.280033 2.274664 2.271171 2.266163 2.265110 2.264057 2.264651 2.263049 2.267034 2.267454 2.269931 2.270775 2.267450 2.266843 2.265871 2.268952 2.265669 2.265546 2.267384 2.265799 2.264635 2.264018 2.271833 2.274800 2.274715 2.283167 2.280499 2.278608 2.280297 2.280129 2.277876 2.276420 2.276984 2.274546 2.274399 2.273083 2.271468 2.272731 2.274647 2.273884 2.272640 2.280793 2.280749 2.277556 2.277004 2.278184 2.275998 2.276990 2.273332 2.279755 2.281423 2.280243 2.280054 2.278231 2.281704 2.289831 2.287493 2.286463 2.287030 2.286714 2.289550 2.292222 2.288921 2.291640 2.290909 2.293861 2.291178 2.290161 2.286266 2.290771 2.289379 2.287245 2.284851 2.282285 2.278486 2.275553 2.274238 2.272204 2.272586 2.271875 2.268064 2.275329 2.273672 2.275091 2.277011 2.278862 2.280225 2.279062 2.276026 2.278446 2.285232 2.284836 2.282814 2.282256 2.281996 2.286014 2.296908 2.298005 2.296403 2.291812 2.290197 2.289313 2.287441 2.284606 2.288222 2.284943 2.282179 2.281995 2.279203 2.280806 2.275594 2.274601 2.271567 2.272744 2.272531 2.277459 2.273842 2.271461 2.270852 2.267393 2.271644 2.273389 2.276677 2.272757 2.273728 2.270551 2.271051 2.271232 2.276989 2.279768 2.281628 2.279307 2.277256 2.279690 2.283591 2.284396 2.281370 2.278640 2.278222 2.280885 2.278185 2.279814 2.279930 2.279643 2.279409 2.275280 2.274236 2.281900 2.284786 2.280759 2.279512 2.281621 2.278986 2.284399 2.286666 2.284203 2.286866 2.284002 2.279384 2.284292 2.283910 2.279673 2.279426 2.284662 2.285598 2.284667 2.286987 2.295624 2.292784 2.292940 2.296007 2.298465 2.297072 2.292552 2.288162 2.287454 2.287208 2.285313 2.281990 2.281551 2.281586 2.279451 2.283322 2.290895 2.295308 2.296445 2.297529 2.296279 2.292195 2.292678 2.296574 2.295321 2.295780 2.293742 2.292217 2.291014 2.288236 2.288340 2.287378 2.283767 2.278692 2.277148 2.275540 2.276999 2.277159 2.282039 2.292396 2.290288 2.286366 2.290153 2.286817 2.285032 2.299495 2.304540 2.304328 2.303699 2.306960 2.305685 2.303654 2.307249 2.303879 2.303307 2.302152 2.305848 2.304882 2.302677 2.300307 2.300538 2.305782 2.302703 2.300721 2.301930 2.300901 2.301680 2.299586 2.303685 2.298650 2.299081 2.305644 2.301040 2.297406 2.299536 2.295072 2.295736 2.295800 2.295760 2.296032 2.295403 2.295889 2.301099 2.299064 2.300752 2.312114 2.315336 2.316550 2.316604 2.320921 2.316818 2.313660 2.313202 2.311356 2.307884 2.305278 2.302567 2.298737 2.297132 2.296819 2.300685 2.296648 2.296913 2.295841 2.295219 2.292741 2.289025 2.289117 2.294969 2.290559 2.296134 2.295963 2.299716 2.295955 2.304292 2.308897 2.304676 2.304586 2.311207 2.313003 2.310682 2.307972 2.310758 2.313154 2.311482 2.308728 2.305176 2.306631 2.306775 2.310957 2.312543 2.314475 2.310258 2.306893 2.308792 2.308252 2.317687 2.312883 2.313876 2.314148 2.315109 2.317150 2.316059 2.312342 2.309849 2.310440 2.312974 2.313371 2.310998 2.313437 2.310344 2.309191 2.306119 2.304222 2.302327 2.300770 2.304796 2.306610 2.310126 2.310377 2.309163 2.311517 2.312657 2.312079 2.313032 2.311077 2.313946 2.310956 2.309271 2.311690 2.311173 2.311316 2.311767 2.310140 2.307936 2.306069 2.309183 2.307208 2.310021 2.306173 2.304834 2.302098 2.301394 2.305864 2.308083 2.305395 2.302035 2.302039 2.304377 2.300713 2.303381 2.306162 2.301001 2.308329 2.312961 2.315493 2.313255 2.315220 2.313776 2.316064 2.314224 2.311950 2.311821 2.307765 2.303129 2.302354 2.307256 2.304661 2.301906 2.296480 2.297782 2.294758 2.294733 2.293048 2.292021 2.296908 2.306239 2.304531 2.303445 2.299618 2.299006 2.296057 2.291582 2.294604 2.293550 2.293925 2.294224 2.296231 2.300642 2.299318 2.297223 2.301436 2.298776 2.300331 2.298509 2.296788 2.302961 2.304273 2.305625 2.308821 2.310018 2.313245 2.312371 2.310012 2.310323 2.311513 2.305930 2.301529 2.300633 2.301566 2.298549 2.294577 2.298709 2.302392 2.302916 2.298864 2.301306 2.300448 2.300099 2.301881 2.300799 2.302290 2.296921 2.303205 2.303524 2.300680 2.295465 2.292746 2.289067 2.287063 2.288697 2.285820 2.287540 2.287018 2.284255 2.280633 2.279998 2.280626 2.282137 2.278070 2.276891 2.273501 2.272957 2.269344 2.267615 2.279699 2.279267 2.287458 2.283794 2.282355 2.285195 2.286132 2.287857 2.289075 2.293138 2.291110 2.289293 2.290056 2.288903 2.291986 2.291207 2.288220 2.290976 2.293241 2.288121 2.287766 2.285306 2.281983 2.284692 2.283033 2.288928 2.287602 2.288530 2.290819 2.292343 2.288334 2.291416 2.288849 2.292519 2.289087 2.285531 2.287136 2.288468 2.286428 2.286700 2.291788 2.287152 2.287206 2.283230 2.285511 2.283547 2.280558 2.279781 2.277531 2.274936 2.275000 2.274565 2.281545 2.279639 2.280545 2.278491 2.279204 2.281127 2.278458 2.274633 2.276454 2.277166 2.283201 2.279893 2.281476 2.285627 2.280702 2.281463 2.278975 2.274915 2.275354 2.276851 2.272920 2.278671 2.278555 2.276494 2.273424 2.276998 2.276116 2.282377 2.285958 2.284298 2.278401 2.276379 2.270931 2.267856 2.269204 2.271449 2.274278 2.274851 2.270711 2.267222 2.267335 2.264622 2.263983 2.262556 2.259894 2.264626 2.269524 2.265075 2.260451 2.257724 2.255906 2.255897 2.265625 2.273120 2.274285 2.277391 2.275085 2.275534 2.274563 2.274692 2.277448 2.278260 2.277646 2.282548 2.288508 2.286409 2.281312 2.283216 2.283740 2.295640 2.298235 2.298942 2.297878 2.296071 2.293675 2.292935 2.293851 2.290023 2.295435 2.295675 2.296881 2.296701 2.293674 2.294330 2.296182 2.298159 2.296406 2.294956 2.291913 2.290255 2.289293 2.287906 2.284750 2.287949 2.292568 2.291028 2.289013 2.289846 2.285867 2.283667 2.283050 2.284827 2.280894 2.280183 2.282122 2.287441 2.285117 2.280911 2.284163 2.284653 2.290936 2.296411 2.295315 2.297177 2.294155 2.294204 2.295906 2.300440 2.301496 2.299627 2.297280 2.294924 2.297333 2.300986 2.299265 2.298341 2.298105 2.300841 2.297290 2.296821 2.296855 2.301103 2.299381 2.298816 2.305683 2.302593 2.302812 2.300512 2.300231 2.299709 2.298617 2.299833 2.300512 2.296211 2.302487 2.299106 2.299107 2.298176 2.298286 2.293587 2.291890 2.288446 2.287547 2.283736 2.286986 2.285648 2.288014 2.285917 2.282052 2.284433 2.281098 2.278938 2.275836 2.279358 2.285638 2.284705 2.282084 2.282056 2.279957 2.278430 2.278620 2.279491 2.278779 2.275132 2.276561 2.277438 2.275716 2.279043 2.280925 2.278894 2.281775 2.280109 2.283622 2.278833 2.275976 2.276220 2.279960 2.275136 2.273993 2.269041 2.268770 2.265967 2.264542 2.265374 2.265541 2.266017 2.268845 2.266951 2.270866 2.267254 2.264774 2.265756 2.264182 2.259948 2.257022 2.256086 2.256214 2.255329 2.256158 2.254732 2.255646 2.251052 2.250327 2.251060 2.248857 2.247488 2.245004 2.247081 2.244597 2.244850 2.246188 2.242788 2.243884 2.247590 2.245238 2.242992 2.240002 2.243505 2.244574 2.242264 2.247737 2.245874 2.244856 2.244282 2.251212 2.252220 2.251346 2.254568 2.252212 2.250562 2.258361 2.256139 2.253388 2.250702 2.251079 2.250312 2.254328 2.253078 2.254290 2.256926 2.255649 2.256656 2.257350 2.255140 2.252495 2.252624 2.248858 2.247268 2.246323 2.246304 2.244638 2.243015 2.245458 2.241368 2.242625 2.239582 2.242438 2.247126 2.245880 2.245227 2.242338 2.241498 2.245017 2.242731 2.240648 2.237580 2.240459 2.237171 2.239416 2.236668 2.243652 2.247116 2.247399 2.250039 2.249635 2.249678 2.247101 2.246677 2.248633 2.255238 2.250984 2.248063 2.247736 2.245807 2.253347 2.256130 2.251699 2.249207 2.247827 2.250546 2.247574 2.247110 2.245123 2.241243 2.239907 2.241846 2.243966 2.242482 2.243369 2.242134 2.249119 2.249358 2.254517 2.254212 2.255182 2.254610 2.255770 2.253919 2.251987 2.252365 2.252666 2.253045 2.251335 2.248929 2.247673 2.246232 2.242154 2.242276 2.243314 2.246747 2.245876 2.244023 2.243348 2.240196 2.235647 2.235004 2.237919 2.236724 2.233767 2.229583 2.236289 2.234528 2.231704 2.234524 2.238452 2.239106 2.236704 2.241002 2.241884 2.244705 2.241216 2.244068 2.246811 2.248085 2.244447 2.240362 2.235358 2.233738 2.230435 2.227205 2.224395 2.221051 2.224933 2.227477 2.223531 2.226864 2.228050 2.224224 2.223994 2.220524 2.222690 2.222997 2.222204 2.220288 2.220643 2.220513 2.217294 2.216354 2.212228 2.216099 2.214442 2.213031 2.210433 2.207646 2.205906 2.206948 2.206681 2.208137 2.212564 2.215211 2.212589 2.210882 2.212176 2.210807 2.209685 2.214350 2.211287 2.213073 2.215307 2.212329 2.208338 2.214345 2.212523 2.211048 2.208406 2.208300 2.211268 2.207059 2.210502 2.217532 2.220383 2.219430 2.217577 2.215331 2.212905 2.212874 2.208963 2.208197 2.204611 2.203743 2.202910 2.201789 2.200828 2.196522 2.197892 2.197195 2.195078 2.192794 2.190344 2.191691 2.190850 2.191669 2.188510 2.188362 2.186624 2.183557 2.184872 2.189578 2.189051 2.190462 2.191747 2.188149 2.187799 2.185400 2.185325 2.181150 2.180748 2.185775 2.183819 2.185252 2.185830 2.184692 2.185765 2.185455 2.184974 2.185428 2.183427 2.181829 2.186333 2.185446 2.187303 2.187290 2.183842 2.190715 2.195825 2.193286 2.193986 2.202049 2.197043 2.205281 2.205117 2.202368 2.202030 2.204065 2.204099 2.201415 2.201136 2.202403 2.201457 2.199730 2.197662 2.204306 2.201715 2.198836 2.197582 2.193362 2.192842 2.192535 2.193142 2.189372 2.190132 2.188265 2.186307 2.185487 2.183344 2.184846 2.183425 2.185939 2.186810 2.191608 2.190371 2.192088 2.194810 2.194333 2.194886 2.192725 2.192454 2.195187 2.196549 2.196621 2.194061 2.193103 2.197042 2.195950 2.197952 2.196209 2.195542 2.201569 2.200542 2.197125 2.198566 2.195011 2.195661 2.195930 2.195345 2.192506 2.193647 2.193470 2.194994 2.203248 2.200008 2.196825 2.198861 2.203332 2.200087 2.195810 2.194609 2.192743 2.191531 2.192990 2.189592 2.194592 2.197658 2.199507 2.196250 2.196363 2.204221 2.202858 2.201505 2.209101 2.210436 2.209141 2.207054 2.208279 2.207168 2.211181 2.208495 2.206378 2.205402 2.201747 2.200683 2.200588 2.196523 2.194886 2.196582 2.193355 2.191619 2.188675 2.187946 2.186672 2.182072 2.179995 2.175694 2.178166 2.179225 2.175925 2.177684 2.174400 2.171466 2.171281 2.172904 2.175617 2.175025 2.176773 2.172635 2.168592 2.170216 2.167441 2.167062 2.166027 2.161528 2.161084 2.165318 2.163898 2.162675 2.158683 2.157708 2.156298 2.153593 2.150403 2.148533 2.152557 2.152837 2.151491 2.156062 2.156929 2.155559 2.156430 2.161341 2.165449 2.162437 2.159563 2.163043 2.160280 2.161782 2.161875 2.161319 2.159388 2.159767 2.162322 2.162047 2.160734 2.159420 2.164725 2.163653 2.164473 2.161344 2.158919 2.161614 2.162477 2.162570 2.161422 2.169204 2.164920 2.160722 2.157621 2.154871 2.159326 2.155806 2.158319 2.157294 2.156487 2.155797 2.159190 2.155232 2.154008 2.156146 2.164813 2.167649 2.167377 2.166571 2.173331 2.171075 2.171388 2.172584 2.173978 2.171067 2.176028 2.178013 2.181253 2.183784 2.188597 2.186487 2.190041 2.189817 2.185578 2.189753 2.188979 2.186799 2.189059 2.189632 2.191771 2.194379 2.198078 2.198941 2.197510 2.200398 2.197154 2.198574 2.199901 2.197926 2.198501 2.201086 2.197224 2.196742 2.195862 2.193155 2.189353 2.186043 2.186459 2.186538 2.183837 2.183716 2.187469 2.187302 2.184324 2.186803 2.184658 2.182462 2.179952 2.181567 2.182062 2.182633 2.184141 2.181810 2.182743 2.182607 2.178791 2.183483 2.181513 2.183311 2.180529 2.177883 2.177471 2.178299 2.174227 2.169846 2.171755 2.170745 2.168359 2.165203 2.168842 2.165125 2.168401 2.170747 2.171516 2.168773 2.167346 2.164425 2.164844 2.167156 2.165179 2.166742 2.171109 2.175985 2.172411 2.172687 2.174822 2.179680 2.178565 2.175681 2.177291 2.175730 2.185122 2.183025 2.183958 2.185137 2.183865 2.182893 2.181938 2.181376 2.182028 2.177684 2.173713 2.178799 2.175670 2.174118 2.172387 2.173687 2.178095 2.187666 2.186978 2.187497 2.186440 2.182664 2.179403 2.179650 2.178368 2.177743 2.174673 2.179409 2.175932 2.173803 2.173521 2.174674 2.175535 2.176146 2.179218 2.176096 2.172057 2.175810 2.175984 2.177894 2.174871 2.176167 2.176492 2.178526 2.182612 2.182942 2.180850 2.177323 2.177451 2.174807 2.172838 2.173546 2.174311 2.180893 2.178885 2.177535 2.174893 2.175751 2.174057 2.174468 2.172798 2.175842 2.173745 2.175968 2.179109 2.182519 2.184396 2.181473 2.179905 2.179269 2.177868 2.177154 2.174851 2.172064 2.175124 2.174778 2.181066 2.177874 2.176806 2.176635 2.177391 2.177688 2.180271 2.185156 2.183151 2.185510 2.185068 2.184424 2.182126 2.182847 2.186697 2.188046 2.189018 2.196493 2.198441 2.199290 2.201189 2.199488 2.196463 2.194612 2.195932 2.196318 2.193204 2.190040 2.186614 2.183514 2.185728 2.181525 2.180917 2.177259 2.178838 2.179357 2.178833 2.180538 2.181879 2.185675 2.189486 2.190448 2.191584 2.192284 2.190288 2.190909 2.197555 2.195358 2.195541 2.193374 2.191248 2.186795 2.184836 2.187241 2.190526 2.188531 2.187567 2.194035 2.193614 2.191834 2.190954 2.192723 2.190205 2.194775 2.192791 2.200138 2.200449 2.205416 2.211183 2.210216 2.213920 2.210232 2.208270 2.204189 2.203135 2.201887 2.200105 2.202724 2.201083 2.202231 2.200704 2.201903 2.203124 2.203181 2.203547 2.204531 2.199345 2.199665 2.201213 2.199323 2.198957 2.203579 2.207212 2.207907 2.207990 2.211110 2.210553 2.210935 2.211287 2.208453 2.214016 2.214734 2.214132 2.222630 2.228694 2.231923 2.235060 2.235077 2.235210 2.230397 2.232454 2.233155 2.235331 2.244272 2.245246 2.247333 2.247275 2.245859 2.244896 2.242009 2.246354 2.252676 2.253544 2.248390 2.247471 2.248981 2.250996 2.251016 2.256486 2.254037 2.255633 2.256040 2.253753 2.251450 2.255545 2.263288 2.264291 2.262772 2.263594 2.265415 2.264009 2.259643 2.259455 2.259197 2.257481 2.261490 2.259661 2.257204 2.252903 2.250295 2.248315 2.251161 2.254201 2.254216 2.251503 2.254308 2.254193 2.250703 2.249807 2.255427 2.256010 2.259172 2.256508 2.255603 2.253344 2.251100 2.251052 2.256727 2.252430 2.258271 2.265481 2.280194 2.279199 2.283313 2.281340 2.278601 2.279234 2.276761 2.273606 2.275184 2.284195 2.282472 2.283088 2.283215 2.280730 2.277605 2.281818 2.287308 2.289272 2.286379 2.281530 2.282317 2.278319 2.279717 2.280276 2.285197 2.289252 2.286451 2.293918 2.294357 2.304406 2.307101 2.306762 2.308308 2.310042 2.310259 2.310275 2.306388 2.304191 2.299728 2.300301 2.298539 2.297696 2.300157 2.299676 2.293682 2.292757 2.298525 2.298360 2.299646 2.299105 2.300707 2.301569 2.300363 2.297831 2.295560 2.294369 2.293751 2.297171 2.304912 2.303943 2.301589 2.298288 2.295538 2.299254 2.301923 2.297790 2.299399 2.302567 2.303150 2.302421 2.305074 2.307761 2.308163 2.310394 2.308509 2.310644 2.308457 2.304625 2.301087 2.302763 2.302902 2.299572 2.300384 2.302251 2.304162 2.304171 2.312065 2.319717 2.315921 2.311372 2.307414 2.304961 2.302669 2.303593 2.299527 2.305063 2.304925 2.306257 2.302553 2.306180 2.303245 2.307925 2.305873 2.308269 2.304712 2.305257 2.309459 2.307534 2.302905 2.301925 2.301383 2.301682 2.298762 2.300783 2.300273 2.296001 2.299487 2.298241 2.297459 2.294940 2.292946 2.289618 2.289588 2.287609 2.291207 2.288871 2.290835 2.293556 2.293223 2.288488 2.285848 2.284749 2.288573 2.291916 2.290319 2.286347 2.293465 2.291141 2.293608 2.290452 2.290289 2.292799 2.291190 2.294529 2.292668 2.288817 2.287760 2.284762 2.282105 2.282101 2.287919 2.286608 2.287212 2.281777 2.280802 2.282037 2.285297 2.283161 2.281853 2.281471 2.279906 2.275720 2.274534 2.275253 2.275596 2.279792 2.282983 2.282362 2.284877 2.284659 2.290222 2.291383 2.290018 2.289814 2.293331 2.293162 2.293037 2.288760 2.289471 2.289263 2.285714 2.293573 2.289732 2.293345 2.291277 2.293440 2.296360 2.298338 2.295639 2.300038 2.302083 2.305993 2.309502 2.307865 2.308240 2.306457 2.309647 2.309129 2.306813 2.305176 2.300950 2.303292 2.300255 2.299770 2.298174 2.302669 2.299643 2.299810 2.295904 2.294018 2.301462 2.300608 2.300424 2.302265 2.299848 2.301919 2.301770 2.298557 2.295629 2.295491 2.292253 2.290713 2.292912 2.292103 2.287308 2.286489 2.286685 2.289557 2.296402 2.298760 2.303049 2.300463 2.303190 2.303703 2.299347 2.298206 2.299351 2.298082 2.298815 2.302230 2.299852 2.301455 2.300290 2.305653 2.300849 2.301320 2.302800 2.300632 2.300722 2.299322 2.303197 2.298702 2.307588 2.309051 2.307377 2.309023 2.307476 2.304535 2.307111 2.304621 2.304451 2.299455 2.294277 2.301588 2.312610 2.319392 2.318835 2.319395 2.316343 2.313479 2.311490 2.312098 2.308798 2.305481 2.301232 2.296717 2.295956 2.293034 2.291453 2.291786 2.286564 2.292398 2.291857 2.294288 2.294933 2.294303 2.292860 2.293780 2.293671 2.293189 2.290265 2.291398 2.293186 2.291389 2.290333 2.291372 2.288861 2.287594 2.287735 2.290972 2.292640 2.290925 2.289151 2.290283 2.287604 2.285204 2.284839 2.283901 2.286150 2.283809 2.280586 2.276634 2.275599 2.277862 2.280983 2.275443 2.271245 2.273804 2.273261 2.275566 2.281686 2.279036 2.277381 2.283076 2.283845 2.283300 2.285686 2.286004 2.283610 2.281692 2.279689 2.277144 2.279590 2.276178 2.276092 2.274880 2.271862 2.269956 2.270091 2.274490 2.270718 2.270582 2.268955 2.267502 2.264666 2.264161 2.260186 2.263078 2.262449 2.264512 2.262169 2.264099 2.264822 2.270870 2.268208 2.267579 2.262468 2.260765 2.264805 2.262210 2.265109 2.263426 2.266990 2.265510 2.261289 2.268378 2.266499 2.264488 2.262297 2.257358 2.256310 2.253219 2.251856 2.246812 2.249222 2.246529 2.246158 2.242378 2.242480 2.238781 2.253633 2.251064 2.255813 2.252325 2.248455 2.251751 2.252769 2.252265 2.249776 2.251041 2.252769 2.252845 2.250138 2.251841 2.254227 2.257498 2.259577 2.256976 2.256815 2.260735 2.260327 2.261043 2.259691 2.259991 2.256366 2.256469 2.260270 2.258585 2.254866 2.254355 2.256456 2.256192 2.257931 2.255550 2.254234 2.253900 2.253251 2.253401 2.250205 2.252983 2.250431 2.245883 2.253926 2.254411 2.252576 2.252241 2.249815 2.253095 2.251757 2.250957 2.247013 2.252922 2.255050 2.250605 2.246559 2.244965 2.251441 2.249267 2.254068 2.252717 2.252618 2.250508 2.250100 2.246289 2.248207 2.246181 2.241711 2.240065 2.242876 2.240803 2.243564 2.242794 2.249221 2.255231 2.254661 2.253325 2.254634 2.256571 2.252805 2.252186 2.250966 2.249575 2.245870 2.243035 2.241195 2.237708 2.234299 2.234015 2.237607 2.234929 2.232250 2.230894 2.232390 2.229914 2.229369 2.232224 2.232624 2.233958 2.239238 2.235283 2.235527 2.232032 2.233769 2.232063 2.229433 2.228477 2.230702 2.228318 2.225229 2.225044 2.222206 2.224371 2.222046 2.221525 2.222246 2.225513 2.226594 2.226770 2.225727 2.229843 2.230660 2.232338 2.229240 2.227094 2.231160 2.234259 2.237761 2.235439 2.239328 2.240924 2.241091 2.240897 2.243110 2.247733 2.246962 2.249026 2.250127 2.254385 2.251938 2.253334 2.262068 2.261884 2.261439 2.257361 2.253223 2.256678 2.252866 2.255899 2.253169 2.254625 2.250332 2.250441 2.247741 2.247043 2.251851 2.248499 2.251157 2.253921 2.254585 2.257380 2.261580 2.259773 2.257464 2.254435 2.252098 2.259146 2.258529 2.260603 2.256528 2.253698 2.255037 2.251962 2.248870 2.247444 2.244070 2.243321 2.246127 2.245037 2.245974 2.245471 2.247608 2.247204 2.241847 2.244249 2.243629 2.243024 2.247151 2.246118 2.248147 2.245728 2.244943 2.246122 2.246827 2.244860 2.242071 2.241808 2.239725 2.239735 2.239515 2.239349 2.236498 2.234097 2.231831 2.235655 2.237357 2.237971 2.234514 2.235738 2.235066 2.232580 2.229517 2.230404 2.233910 2.232682 2.231216 2.233094 2.237281 2.239745 2.240800 2.241470 2.239611 2.236897 2.232965 2.235290 2.235435 2.233913 2.231998 2.234437 2.234052 2.239001 2.237659 2.240247 2.241890 2.243296 2.242291 2.239227 2.236859 2.238249 2.235967 2.235004 2.238210 2.235886 2.238495 2.235043 2.234286 2.233081 2.230581 2.229835 2.231570 2.228458 2.228571 2.229444 2.224507 2.225242 2.225357 2.228454 2.229089 2.228134 2.224372 2.223615 2.223665 2.221261 2.221295 2.218350 2.216015 2.213677 2.210739 2.220766 2.219170 2.214679 2.215043 2.215077 2.215785 2.213795 2.218894 2.213782 2.211230 2.214073 2.213363 2.214167 2.210998 2.208070 2.206746 2.204729 2.207913 2.210978 2.210596 2.212081 2.209726 2.211063 2.207178 2.205993 2.208939 2.212272 2.212087 2.208984 2.212500 2.213264 2.212041 2.207508 2.221063 2.224215 2.225918 2.232614 2.234276 2.238057 2.237422 2.235129 2.233841 2.233523 2.233458 2.231090 2.233381 2.232688 2.234590 2.230174 2.238964 2.237392 2.234411 2.233980 2.234558 2.239433 2.241610 2.236969 2.236938 2.235770 2.235275 2.232305 2.228767 2.224918 2.225889 2.231902 2.236599 2.240416 2.241768 2.247171 2.243816 2.242847 2.242589 2.240776 2.244563 2.249201 2.249343 2.254772 2.252204 2.255771 2.256857 2.260801 2.263348 2.267782 2.267524 2.267313 2.272881 2.271597 2.277884 2.275712 2.275830 2.272410 2.276062 2.274852 2.282759 2.279214 2.274837 2.271112 2.277041 2.273995 2.271729 2.268075 2.264613 2.264182 2.265591 2.266095 2.264978 2.264346 2.268325 2.269532 2.269977 2.271109 2.269826 2.265558 2.265142 2.266443 2.267997 2.267459 2.271764 2.268269 2.265251 2.272695 2.269130 2.273359 2.272773 2.267764 2.266054 2.261244 2.262759 2.263539 2.264699 2.267535 2.270131 2.266668 2.263778 2.259679 2.260935 2.261842 2.261449 2.262470 2.261022 2.262722 2.259315 2.257162 2.254028 2.252465 2.251913 2.251846 2.252278 2.253982 2.252764 2.248518 2.247053 2.249262 2.249434 2.255578 2.253386 2.255868 2.257247 2.258525 2.257283 2.258753 2.260958 2.261192 2.267701 2.266330 2.268143 2.264403 2.260161 2.257648 2.253394 2.251298 2.245324 2.242727 2.240436 2.235773 2.236513 2.235305 2.235191 2.234201 2.235700 2.233944 2.234652 2.232984 2.231573 2.230870 2.229122 2.227995 2.226065 2.224872 2.222583 2.222373 2.219219 2.218407 2.221307 2.219562 2.223826 2.223622 2.218222 2.215357 2.211401 2.219303 2.217310 2.214745 2.215430 2.216770 2.218530 2.214147 2.214083 2.217792 2.217152 2.215466 2.218345 2.216505 2.220318 2.223814 2.218216 2.219557 2.224762 2.223755 2.218518 2.220591 2.217748 2.218925 2.220457 2.218686 2.217298 2.217952 2.219804 2.221598 2.221630 2.218242 2.215728 2.215969 2.213664 2.208986 2.210338 2.208051 2.207735 2.207825 2.204697 2.206427 2.210194 2.209532 2.205425 2.201928 2.211186 2.207699 2.209580 2.212763 2.211961 2.208663 2.207496 2.209737 2.206212 2.203940 2.200544 2.200394 2.201483 2.204049 2.203313 2.200893 2.202793 2.201565 2.207852 2.208173 2.207787 2.204179 2.210544 2.211028 2.207943 2.204320 2.203686 2.200600 2.201133 2.200510 2.195288 2.196608 2.191652 2.192090 2.188701 2.189693 2.187627 2.184372 2.182960 2.186738 2.188184 2.187534 2.188236 2.186050 2.186767 2.186815 2.188001 2.188119 2.193897 2.189377 2.186366 2.184595 2.180375 2.183203 2.181967 2.182525 2.182612 2.181326 2.178919 2.174777 2.170370 2.169292 2.170921 2.173142 2.172066 2.170969 2.171792 2.172911 2.170674 2.168550 2.167502 2.175329 2.171519 2.168959 2.171047 2.167027 2.163140 2.162563 2.162944 2.161610 2.164127 2.167395 2.162083 2.164929 2.170705 2.168428 2.169372 2.169005 2.168245 2.170653 2.170999 2.166048 2.167385 2.170092 2.172359 2.173137 2.170962 2.167913 2.169337 2.171203 2.172339 2.170982 2.173342 2.176039 2.175465 2.171662 2.168057 2.166032 2.163270 2.162008 2.157771 2.153049 2.148551 2.145659 2.147322 2.151867 2.151034 2.146598 2.147717 2.147119 2.143569 2.139782 2.134639 2.137013 2.134522 2.132933 2.135203 2.133846 2.136114 2.133438 2.132724 2.128124 2.132642 2.132445 2.132184 2.133813 2.134290 2.133027 2.134055 2.136119 2.135029 2.135474 2.134373 2.133766 2.130685 2.140219 2.142845 2.143132 2.139922 2.140883 2.138329 2.133739 2.132350 2.136040 2.135834 2.134521 2.132047 2.133525 2.131668 2.130958 2.128757 2.128791 2.124992 2.128712 2.131577 2.132693 2.129327 2.132502 2.132878 2.134212 2.137770 2.135573 2.133377 2.134394 2.133136 2.130186 2.134428 2.136992 2.134481 2.132037 2.134413 2.133205 2.130374 2.133489 2.131396 2.130476 2.130313 2.130032 2.132517 2.127488 2.126341 2.122830 2.123002 2.119347 2.118682 
