-0.00000000000000005442 0.00000000000000000000 -0.00000000000000006123 
-0.00000000000000004242 0.00000000000000010885 0.00000000000000004422 
-0.00000000000000004103 -0.00000000000000010885 0.00000000000000000510 
-0.00000000000000001894 -0.00000000000000016327 0.00000000000000008844 
-0.00000000000000009333 -0.00000000000000005442 0.00000000000000001361 
0.00000000000000004435 0.00000000000000005442 0.00000000000000002891 
0.00000000000000003788 -0.00000000000000010885 -0.00000000000000000340 
-0.00000000000000000574 -0.00000000000000005442 -0.00000000000000007993 
-0.00000000000000002499 0.00000000000000005442 0.00000000000000001361 
-0.00000000000000007236 -0.00000000000000005442 -0.00000000000000003572 
0.00000000000000004603 0.00000000000000000000 -0.00000000000000011905 
-0.00000000000000006163 0.00000000000000000000 0.00000000000000001020 
-0.00000000000000004619 0.00000000000000000000 -0.00000000000000002721 
0.00000000000000000410 0.00000000000000000000 -0.00000000000000001871 
-0.00000000000000001415 -0.00000000000000005442 -0.00000000000000007143 
-0.00000000000000000589 0.00000000000000000000 0.00000000000000002211 
0.00000000000000001086 0.00000000000000005442 -0.00000000000000002041 
0.00000000000000004336 0.00000000000000005442 -0.00000000000000001871 
-0.00000000000000005412 -0.00000000000000005442 -0.00000000000000005782 
-0.00000000000000010467 0.00000000000000005442 -0.00000000000000001191 
0.00000000000000002656 0.00000000000000005442 0.00000000000000004847 
-0.00000000000000003032 -0.00000000000000010885 -0.00000000000000006123 
0.00000000000000000430 -0.00000000000000005442 0.00000000000000003742 
0.00000000000000006246 -0.00000000000000021769 -0.00000000000000007058 
0.00000000000000002203 0.00000000000000000000 0.00000000000000001191 
-0.00000000000000003552 0.00000000000000005442 -0.00000000000000003061 
0.00000000000000002928 0.00000000000000000000 -0.00000000000000001361 
-0.00000000000000005740 -0.00000000000000016327 -0.00000000000000006378 
-0.00000000000000006030 0.00000000000000010885 -0.00000000000000005953 
-0.00000000000000006698 0.00000000000000000000 0.00000000000000011905 
-0.00000000000000003100 -0.00000000000000005442 0.00000000000000000680 
-0.00000000000000002852 0.00000000000000000000 0.00000000000000007143 
-0.00000000000000009209 0.00000000000000000000 -0.00000000000000005017 
0.00000000000000010843 0.00000000000000010885 0.00000000000000004082 
-0.00000000000000001866 0.00000000000000005442 0.00000000000000002636 
-0.00000000000000009682 -0.00000000000000005442 0.00000000000000010374 
-0.00000000000000004070 0.00000000000000005442 0.00000000000000002806 
-0.00000000000000004450 -0.00000000000000010885 0.00000000000000002764 
-0.00000000000000005275 0.00000000000000000000 0.00000000000000007016 
0.00000000000000000537 -0.00000000000000005442 -0.00000000000000007356 
0.00000000000000006347 0.00000000000000000000 -0.00000000000000004677 
0.00000000000000000220 0.00000000000000005442 -0.00000000000000006505 
0.00000000000000002994 -0.00000000000000010885 0.00000000000000004890 
-0.00000000000000002390 0.00000000000000000000 0.00000000000000003401 
0.00000000000000000610 0.00000000000000000000 0.00000000000000002721 
0.00000000000000001045 0.00000000000000005442 0.00000000000000008844 
-0.00000000000000008630 -0.00000000000000005442 -0.00000000000000003912 
-0.00000000000000003573 0.00000000000000005442 0.00000000000000003572 
-0.00000000000000010556 -0.00000000000000005442 -0.00000000000000004379 
0.00000000000000001684 0.00000000000000010885 0.00000000000000000595 
-0.00000000000000009999 -0.00000000000000005442 0.00000000000000010715 
-0.00000000000000002324 0.00000000000000000000 -0.00000000000000002976 
-0.00000000000000001208 0.00000000000000005442 0.00000000000000007547 
-0.00000000000000003721 -0.00000000000000005442 0.00000000000000006463 
-0.00000000000000001341 0.00000000000000010885 -0.00000000000000001042 
0.00000000000000005360 -0.00000000000000005442 0.00000000000000000128 
-0.00000000000000005000 0.00000000000000005442 -0.00000000000000002572 
-0.00000000000000011324 0.00000000000000005442 0.00000000000000012309 
-0.00000000000000006494 0.00000000000000005442 0.00000000000000003593 
-0.00000000000000005412 -0.00000000000000005442 0.00000000000000005081 
-0.00000000000000006513 0.00000000000000010885 -0.00000000000000003614 
-0.00000000000000006788 0.00000000000000005442 0.00000000000000002360 
0.00000000000000003598 0.00000000000000005442 0.00000000000000004549 
-0.00000000000000004216 0.00000000000000005442 0.00000000000000003763 
-0.00000000000000000463 -0.00000000000000005442 0.00000000000000002700 
0.00000000000000001208 0.00000000000000010885 -0.00000000000000005910 
-0.00000000000000006824 0.00000000000000000000 0.00000000000000004146 
-0.00000000000000004460 0.00000000000000000000 0.00000000000000005304 
-0.00000000000000009276 0.00000000000000010885 0.00000000000000009524 
0.00000000000000004669 0.00000000000000000000 -0.00000000000000003189 
-0.00000000000000005849 -0.00000000000000005442 0.00000000000000004124 
0.00000000000000002012 0.00000000000000000000 0.00000000000000006590 
0.00000000000000008918 0.00000000000000005442 -0.00000000000000001818 
0.00000000000000003927 0.00000000000000005442 0.00000000000000007334 
-0.00000000000000001095 0.00000000000000005442 -0.00000000000000001743 
-0.00000000000000008336 0.00000000000000000000 0.00000000000000008078 
0.00000000000000006785 0.00000000000000010885 -0.00000000000000005102 
-0.00000000000000002511 -0.00000000000000005442 0.00000000000000000138 
-0.00000000000000005116 0.00000000000000005442 0.00000000000000004794 
-0.00000000000000010346 0.00000000000000010885 -0.00000000000000012957 
-0.00000000000000005279 -0.00000000000000005442 0.00000000000000003508 
0.00000000000000000274 0.00000000000000000000 0.00000000000000003439 
-0.00000000000000008858 0.00000000000000000000 -0.00000000000000000489 
-0.00000000000000000905 0.00000000000000010885 0.00000000000000005846 
-0.00000000000000000427 0.00000000000000010885 0.00000000000000001031 
0.00000000000000008253 -0.00000000000000005442 0.00000000000000003603 
-0.00000000000000002591 0.00000000002093889777 -0.00000000000000007132 
0.00000000000000003514 0.00000001685737286265 -0.00000000000000004289 
0.00000000000000000313 0.00000033636529227530 0.00000000000000003582 
-0.00000000000000001784 0.00000233442274688370 -0.00000000000000002668 
-0.00000000000000006350 0.00000969950675688162 0.00000000000000002982 
-0.00000000000000010162 0.00002972323914011775 -0.00000000000000006096 
0.00000000000000003976 0.00007443489206550407 -0.00000000000000010220 
-0.00000000000000003422 0.00016145207641459771 -0.00000000000000000603 
-0.00000000000000008524 0.00031448883691487890 0.00000000000000003080 
0.00000000000000004895 0.00056351033071426351 -0.00000000000000004977 
0.00000000000000006182 0.00094455514775551022 -0.00000000000000011746 
0.00000000000000004319 0.00149926611064911874 0.00000000000000004002 
-0.00000000000000008660 0.00227418121276072019 0.00000000000000003694 
-0.00000000000000004676 0.00331984068796422086 0.00000000000000006032 
0.00000000000000000945 0.00468976598074794752 0.00000000000000011209 
0.00000000000000007029 0.00643936308756325702 -0.00000000000000006904 
-0.00000000000000005669 0.00862479750205596106 0.00000000000000001993 
0.00000000000000004322 0.01130188166802856622 -0.00000000000000016340 
0.00000000000000009490 0.01452500905026640407 -0.00000000000000008666 
-0.00000000000000001298 0.01834616212361506529 0.00000000000000004215 
-0.00000000000000005324 0.02281401506597654366 -0.00000000000000011732 
-0.00000000000000005572 0.02797314592570652667 0.00000000000000003888 
0.00000000000000004384 0.03386336764158493634 -0.00000000000000005049 
-0.00000000000000003840 0.04051918258647358578 -0.00000000000000006792 
-0.00000000000000006551 0.04796936130156650990 0.00000000000000003481 
0.00000000000000000674 0.05623664277229987324 -0.00000000000000011786 
0.00000000000000013307 0.06533755093295778860 -0.00000000000000005379 
0.00000000000000006653 0.07528232002388128563 -0.00000000000000002402 
0.00000000000000002325 0.08607491990361532119 0.00000000000000002619 
-0.00000000000000004603 0.09771317137497630145 -0.00000000000000008387 
-0.00000000000000005665 0.11018894095487631601 -0.00000000000000000335 
0.00000000000000000479 0.12348840424044675579 0.00000000000000001639 
-0.00000000000000001678 0.13759236703950064595 -0.00000000000000008234 
0.00000000000000004421 0.15247663368699307385 -0.00000000000000013188 
0.00000000000000004894 0.16811241241118410339 -0.00000000000000007020 
-0.00000000000000001020 0.18446674819929684275 -0.00000000000000005668 
-0.00000000000000000177 0.20150297430354888184 0.00000000000000000450 
-0.00000000000000003573 0.21918117429070918534 -0.00000000000000003998 
0.00000000000000011037 0.23745864734293953280 -0.00000000000000016280 
0.00000000000000000011 0.25629037034041252108 0.00000000000000006024 
0.00000000000000001611 0.27562945107711678272 -0.00000000000000002566 
0.00000000000000009450 0.29542756776420420195 -0.00000000000000005396 
-0.00000000000000001102 0.31563539074757190894 -0.00000000000000010901 
0.00000000000000003604 0.33620298309836255113 0.00000000000000001605 
-0.00000000000000011043 0.35708017741968561820 -0.00000000000000004975 
-0.00000000000000004199 0.37821692684527835615 0.00000000000000015140 
-0.00000000000000000054 0.39956362878310919262 0.00000000000000009590 
-0.00000000000000003287 0.42107142047777673666 -0.00000000000000010523 
-0.00000000000000003367 0.44269244592993217680 -0.00000000000000001762 
0.00000000000000001131 0.46438009411987363206 -0.00000000000000013119 
0.00000000000000003423 0.48608920883781520095 -0.00000000000000015620 
0.00000000000000007739 0.50777627072758779736 -0.00000000000000005605 
0.00000000000000000096 0.52939955240665148573 -0.00000000000000001416 
-0.00000000000000000787 0.55091924773659139980 -0.00000000000000001704 
0.00000000000000008189 0.57229757648819468141 -0.00000000000000002212 
0.00000000000000010715 0.59349886577738131255 -0.00000000000000005721 
-0.00000000000000015822 0.61448960974627842013 0.00000000000000003036 
-0.00000000000000002392 0.63523850903115641753 -0.00000000000000008353 
0.00000000000000014134 0.65571649159926126416 -0.00000000000000003820 
0.00000000000000000886 0.67589671655307492770 -0.00000000000000007973 
0.00000000000000001622 0.69575456249574052503 -0.00000000000000013603 
0.00000000000000003405 0.71526759482081858632 -0.00000000000000012437 
0.00000000000000004637 0.73441535676786995346 0.00000000000000008235 
0.00000000000000004762 0.75317861708872513304 -0.00000000000000001190 
0.00000000000000005655 0.77153814052432068138 -0.00000000000000010444 
0.00000000000000003763 0.78947332314863116753 -0.00000000000000005054 
0.00000000000000008886 0.80696094087442737930 -0.00000000000000014949 
-0.00000000000000007621 0.82397415695410480829 -0.00000000000000005415 
0.00000000000000001105 0.84048186031649096961 -0.00000000000000006688 
0.00000000000000003370 0.85644835476986036493 -0.00000000000000006634 
0.00000000000000001531 0.87183338426948797650 -0.00000000000000009238 
0.00000000000000012033 0.88659245744137249456 0.00000000000000000406 
-0.00000000000000005974 0.90067742207723111569 -0.00000000000000000457 
0.00000000000000005336 0.91403723477468634684 -0.00000000000000005121 
0.00000000000000006590 0.92661887026452549598 -0.00000000000000007945 
0.00000000000000009226 0.93836831767733319687 -0.00000000000000005956 
-0.00000000000000001276 0.94923161585792537043 0.00000000000000001944 
-0.00000000000000003614 0.95915588673247509366 0.00000000000000006289 
0.00000000000000003827 0.96809039388440965013 -0.00000000000000006197 
-0.00000000000000001446 0.97598793343366430086 -0.00000000000000004132 
0.00000000000000002126 0.98280669914561413769 0.00000000000000002453 
-0.00000000000000005782 0.98851230340907680905 -0.00000000000000023931 
0.00000000000000010289 0.99307964904626833125 -0.00000000000000005405 
-0.00000000000000004252 0.99649446471181535312 -0.00000000000000013093 
0.00000000000000002211 0.99875440526313252754 -0.00000000000000003716 
0.00000000000000003912 0.99986968181167734659 0.00000000000000001861 
0.00000000000000005272 0.99986322991180653919 0.00000000000000005372 
0.00000000000000008674 0.99877045310908674214 -0.00000000000000000922 
-0.00000000000000012415 0.99663859652950070878 -0.00000000000000000057 
0.00000000000000003742 0.99352581426609687387 -0.00000000000000011446 
-0.00000000000000002041 0.98949999731427140670 0.00000000000000000689 
0.00000000000000007483 0.98463742752281990800 -0.00000000000000005959 
0.00000000000000000510 0.97902131886026566576 0.00000000000000007186 
0.00000000000000003061 0.97274030131192523729 -0.00000000000000000536 
0.00000000000000004422 0.96588689572706643016 0.00000000000000003042 
0.00000000000000005782 0.95855602052241162259 0.00000000000000002639 
0.00000000000000008504 0.95084356374758416397 -0.00000000000000003037 
-0.00000000000000003742 0.94284504692961212946 -0.00000000000000019624 
-0.00000000000000004082 0.93465440053628812134 -0.00000000000000011838 
0.00000000000000001361 0.92636286495370401273 -0.00000000000000005340 
0.00000000000000003061 0.91805802562506988451 -0.00000000000000006708 
-0.00000000000000007143 0.90982298646603831926 -0.00000000000000003366 
0.00000000000000006123 0.90173568184508212653 0.00000000000000002216 
0.00000000000000003401 0.89386832426300566468 -0.00000000000000003688 
-0.00000000000000007483 0.88628698233594926936 -0.00000000000000009326 
0.00000000000000000000 0.87905128172499513717 -0.00000000000000004577 
-0.00000000000000005442 0.87221422020196748282 -0.00000000000000007794 
0.00000000000000005782 0.86582208703310781228 -0.00000000000000008856 
-0.00000000000000000680 0.85991447623907968367 0.00000000000000000682 
0.00000000000000000000 0.85452438299279809275 0.00000000000000002625 
-0.00000000000000014286 0.84967837239145282968 -0.00000000000000001913 
-0.00000000000000008844 0.84539681003572009210 -0.00000000000000013617 
-0.00000000000000004762 0.84169414422237509577 -0.00000000000000013512 
-0.00000000000000005442 0.83857923006611057026 -0.00000000000000006288 
0.00000000000000000000 0.83605568647704864294 -0.00000000000000006402 
-0.00000000000000007483 0.83412227760161916645 -0.00000000000000009182 
-0.00000000000000003401 0.83277331106009200301 -0.00000000000000002850 
-0.00000000000000004082 0.83199904606207686353 -0.00000000000000005263 
-0.00000000000000001361 0.83178610523356466544 -0.00000000000000001125 
0.00000000000000006123 0.83211788473074699279 -0.00000000000000007670 
-0.00000000000000001361 0.83297495793512532636 0.00000000000000000647 
0.00000000000000003401 0.83433546871218211560 -0.00000000000000009180 
-0.00000000000000006803 0.83617551086529817717 -0.00000000000000002490 
-0.00000000000000007483 0.83846949102285694977 -0.00000000000000006658 
-0.00000000000000002721 0.84119047275639646788 0.00000000000000003562 
-0.00000000000000000680 0.84431050023959408612 0.00000000000000000944 
-0.00000000000000006123 0.84780090022118215209 0.00000000000000003654 
0.00000000000000001361 0.85163256150006660938 -0.00000000000000006056 
-0.00000000000000002721 0.85577619145909522569 -0.00000000000000010129 
0.00000000000000005442 0.86020254953687369515 -0.00000000000000004128 
0.00000000000000005442 0.86488265779698547675 -0.00000000000000003767 
-0.00000000000000005442 0.86978798899346343454 -0.00000000000000006714 
-0.00000000000000008164 0.87489063273316769465 -0.00000000000000006133 
-0.00000000000000009524 0.88016344050271044797 -0.00000000000000006071 
0.00000000000000005442 0.88558015046270655013 -0.00000000000000004969 
0.00000000000000000000 0.89111549301834369619 -0.00000000000000003153 
-0.00000000000000016327 0.89674527825544436688 -0.00000000000000002940 
0.00000000000000005442 0.90244646621616453341 -0.00000000000000005097 
-0.00000000000000010885 0.90819718711410624135 -0.00000000000000007988 
0.00000000000000000000 0.91397643077013046575 -0.00000000000000006920 
-0.00000000000000013606 0.91976314416688131903 -0.00000000000000004805 
0.00000000000000000000 0.92553498607613082783 -0.00000000000000003061 
-0.00000000000000008164 0.93126705671771392581 0.00000000000000011318 
-0.00000000000000005442 0.93693080584353349849 -0.00000000000000003563 
0.00000000000000000000 0.94249323236123083714 0.00000000000000005021 
0.00000000000000002721 0.94791642422888566788 -0.00000000000000018491 
-0.00000000000000016327 0.95315744292608295396 0.00000000000000000925 
-0.00000000000000010885 0.95816852757999315671 -0.00000000000000008215 
0.00000000000000000000 0.96289757600873004950 -0.00000000000000010176 
0.00000000000000000000 0.96728885054083380002 0.00000000000000000292 
0.00000000000000000000 0.97128385312648812810 -0.00000000000000000886 
0.00000000000000005442 0.97482231514279660267 -0.00000000000000008148 
-0.00000000000000021769 0.97784325100337510239 -0.00000000000000008007 
0.00000000000000000000 0.98028603014210902167 -0.00000000000000003942 
-0.00000000000000010885 0.98209143555919076185 0.00000000000000000169 
0.00000000000000010885 0.98320283337623426423 0.00000000000000000681 
-0.00000000000000005442 0.98356779651447001633 -0.00000000000000004538 
0.00000000000000005442 0.98314009857431672312 -0.00000000000000003406 
-0.00000000000000005442 0.98188172392178507675 0.00000000000000004883 
0.00000000000000010885 0.97976463888964560045 -0.00000000000000004237 
-0.00000000000000005442 0.97677217590984088957 -0.00000000000000005774 
-0.00000000000000005442 0.97289996013061663671 -0.00000000000000012158 
0.00000000000000005442 0.96815636294579510146 0.00000000000000001238 
-0.00000000000000010885 0.96256250411837818159 -0.00000000000000009744 
-0.00000000000000005442 0.95615184802388475394 -0.00000000000000001300 
-0.00000000000000010885 0.94896945332666204909 0.00000000000000000349 
0.00000000000000000000 0.94107094179403083523 0.00000000000000001883 
0.00000000000000000000 0.93252125303909749743 -0.00000000000000004611 
-0.00000000000000005442 0.92339324939214295629 -0.00000000000000004975 
-0.00000000000000010885 0.91376623008804369608 0.00000000000000006735 
0.00000000000000000000 0.90372440747821347617 -0.00000000000000001468 
0.00000000000000005442 0.89335539074490810663 0.00000000000000001553 
-0.00000000000000010885 0.88274871513754893382 -0.00000000000000008493 
-0.00000000000000010885 0.87199444743867726704 -0.00000000000000001281 
0.00000000000000010885 0.86118189145762169545 0.00000000000000008485 
-0.00000000000000005442 0.85039841100845403599 0.00000000000000002498 
0.00000000000000000000 0.83972838215175860110 0.00000000000000004146 
0.00000000000000010885 0.82925228151157470702 -0.00000000000000006198 
0.00000000000000000000 0.81904591322597652958 -0.00000000000000003722 
-0.00000000000000010885 0.80917977353122394479 0.00000000000000003355 
-0.00000000000000010885 0.79971854907574502214 -0.00000000000000003880 
0.00000000000000000000 0.79072074275980386293 -0.00000000000000003379 
0.00000000000000000000 0.78223841914106728712 0.00000000000000008112 
-0.00000000000000010885 0.77431706017380397267 -0.00000000000000006416 
-0.00000000000000010885 0.76699552119824798702 -0.00000000000000008501 
-0.00000000000000010885 0.76030607660663607206 -0.00000000000000006121 
0.00000000000000000000 0.75427454442670283097 -0.00000000000000005910 
0.00000000000000000000 0.74892047912916515084 -0.00000000000000003539 
0.00000000000000000000 0.74425742223486690552 0.00000000000000003345 
0.00000000000000000000 0.74029320072655635521 -0.00000000000000009601 
0.00000000000000000000 0.73703026382151337614 0.00000000000000001364 
0.00000000000000010885 0.73446604930103809306 -0.00000000000000007973 
-0.00000000000000005442 0.73259337129241752784 -0.00000000000000007186 
-0.00000000000000005442 0.73140082213395729571 -0.00000000000000006347 
-0.00000000000000005442 0.73087318170359494296 0.00000000000000002188 
0.00000000000000000000 0.73099182833964526651 -0.00000000000000001940 
-0.00000000000000010885 0.73173514621483348730 -0.00000000000000003339 
0.00000000000000000000 0.73307892473122560073 -0.00000000000000002176 
-0.00000000000000005442 0.73499674617578636404 0.00000000000000004575 
0.00000000000000000000 0.73746035850811719747 0.00000000000000000212 
-0.00000000000000010885 0.74044003073926611957 -0.00000000000000003383 
0.00000000000000000000 0.74390488890085848528 -0.00000000000000000649 
-0.00000000000000005442 0.74782323109590675969 0.00000000000000002493 
0.00000000000000005442 0.75216282056636940556 -0.00000000000000002742 
-0.00000000000000016327 0.75689115610860280281 -0.00000000000000001755 
0.00000000000000000000 0.76197571951765730169 -0.00000000000000001418 
0.00000000000000000000 0.76738420004691376697 0.00000000000000007119 
0.00000000000000000000 0.77308469613315977664 -0.00000000000000010016 
0.00000000000000000000 0.77904589486150421784 -0.00000000000000002038 
-0.00000000000000005442 0.78523722983236587947 -0.00000000000000014005 
0.00000000000000000000 0.79162901824699849485 0.00000000000000008385 
-0.00000000000000005442 0.79819257815165156611 -0.00000000000000006380 
0.00000000000000010885 0.80490032687635482134 -0.00000000000000009872 
0.00000000000000000000 0.81172586177536143470 -0.00000000000000010470 
0.00000000000000005442 0.81864402176310602233 0.00000000000000009951 
0.00000000000000016327 0.82563082759034389646 -0.00000000000000002174 
-0.00000000000000005442 0.83266293440225336298 -0.00000000000000002996 
0.00000000000000010885 0.83971654791371297399 -0.00000000000000001266 
0.00000000000000005442 0.84676613763900798748 -0.00000000000000004136 
0.00000000000000005442 0.85378321923823852213 -0.00000000000000006072 
0.00000000000000005442 0.86073536971487685232 -0.00000000000000001749 
0.00000000000000000000 0.86758556007679565880 -0.00000000000000008229 
0.00000000000000005442 0.87429183431458812326 -0.00000000000000000481 
0.00000000000000016327 0.88080732571757625049 -0.00000000000000002338 
-0.00000000000000005442 0.88708057729255773705 -0.00000000000000002460 
0.00000000000000000000 0.89305611892020941855 -0.00000000000000009983 
0.00000000000000000000 0.89867524715576474481 -0.00000000000000001776 
0.00000000000000000000 0.90387695212373397879 -0.00000000000000004414 
0.00000000000000005442 0.90859893812044456585 0.00000000000000003552 
0.00000000000000000000 0.91277868905884373962 -0.00000000000000000886 
0.00000000000000005442 0.91635453583340864547 0.00000000000000011648 
0.00000000000000005442 0.91926670598848203575 0.00000000000000001279 
-0.00000000000000010885 0.92145854496055223937 0.00000000000000000540 
0.00000000000000010885 0.92287821911108236517 -0.00000000000000007881 
-0.00000000000000010885 0.92348071675773357736 0.00000000000000004075 
0.00000000000000010885 0.92322980242707064491 0.00000000000000000084 
-0.00000000000000010885 0.92209969413224257551 0.00000000000000007499 
0.00000000000000000000 0.92007633395601051696 -0.00000000000000002105 
0.00000000000000016327 0.91715819477039062235 0.00000000000000010001 
-0.00000000000000005442 0.91335661676106139062 0.00000000000000002536 
0.00000000000000000000 0.90869570157065138183 -0.00000000000000002737 
0.00000000000000016327 0.90321181335527633838 -0.00000000000000010158 
0.00000000000000010885 0.89695274806938551926 0.00000000000000008203 
0.00000000000000005442 0.88997663739112720105 0.00000000000000009343 
0.00000000000000005442 0.88235065386399991194 -0.00000000000000010756 
0.00000000000000000000 0.87414958060742287138 -0.00000000000000000601 
0.00000000000000010885 0.86545430352800956086 0.00000000000000015529 
0.00000000000000000000 0.85635027724633316915 -0.00000000000000010708 
-0.00000000000000010885 0.84692600861281375213 -0.00000000000000002304 
0.00000000000000005442 0.83727159421103747317 0.00000000000000000789 
-0.00000000000000010885 0.82747734098410130610 0.00000000000000005103 
0.00000000000000010885 0.81763249230470858020 0.00000000000000003910 
-0.00000000000000021769 0.80782407559190938517 0.00000000000000000603 
0.00000000000000000000 0.79813588204052632324 -0.00000000000000007617 
0.00000000000000000000 0.78864758420844682796 0.00000000000000003280 
0.00000000000000010885 0.77943399310159477977 -0.00000000000000007531 
0.00000000000000000000 0.77056445298063547256 -0.00000000000000003437 
-0.00000000000000005442 0.76210236934442698864 0.00000000000000001042 
-0.00000000000000005442 0.75410486336909410277 0.00000000000000004830 
-0.00000000000000005442 0.74662254443863751430 -0.00000000000000008929 
0.00000000000000005442 0.73969939123096950517 0.00000000000000004324 
0.00000000000000000000 0.73337273106032996317 -0.00000000000000007448 
0.00000000000000000000 0.72767330676335384432 0.00000000000000004114 
0.00000000000000010885 0.72262542029539977850 -0.00000000000000010499 
0.00000000000000000000 0.71824714232401931646 -0.00000000000000001555 
0.00000000000000000000 0.71455057742049499225 0.00000000000000004582 
-0.00000000000000016327 0.71154217491583537925 -0.00000000000000005639 
0.00000000000000000000 0.70922307606729317886 -0.00000000000000002958 
-0.00000000000000005442 0.70758948884283390246 -0.00000000000000003809 
0.00000000000000010885 0.70663308234621580173 -0.00000000000000000112 
0.00000000000000005442 0.70634139365083237205 0.00000000000000007714 
0.00000000000000000000 0.70669824056656660449 -0.00000000000000007708 
0.00000000000000000000 0.70768413461449208857 0.00000000000000000359 
0.00000000000000016327 0.70927668921642939015 -0.00000000000000014908 
-0.00000000000000005442 0.71145101880992978050 0.00000000000000005352 
0.00000000000000000000 0.71418012526664664819 -0.00000000000000004317 
-0.00000000000000010885 0.71743526861759177038 0.00000000000000001060 
0.00000000000000005442 0.72118631966879609418 -0.00000000000000006326 
0.00000000000000005442 0.72540209262315213934 0.00000000000000000617 
0.00000000000000000000 0.73005065630772703056 -0.00000000000000003136 
-0.00000000000000021769 0.73509962304072606898 -0.00000000000000011055 
-0.00000000000000005442 0.74051641455944905434 0.00000000000000004667 
0.00000000000000005442 0.74626850477159345498 0.00000000000000003588 
0.00000000000000010885 0.75232363938922286462 -0.00000000000000005065 
0.00000000000000000000 0.75865003276004583377 -0.00000000000000006925 
0.00000000000000005442 0.76521654242709291616 0.00000000000000002894 
0.00000000000000016327 0.77199282212825881544 -0.00000000000000002983 
0.00000000000000000000 0.77894945409447891027 -0.00000000000000007132 
-0.00000000000000005442 0.78605806162246461000 0.00000000000000000059 
0.00000000000000000000 0.79329140298788758390 -0.00000000000000000741 
-0.00000000000000005442 0.80062344782985428449 0.00000000000000003662 
0.00000000000000000000 0.80802942997276161474 -0.00000000000000016731 
0.00000000000000000000 0.81548572119171747197 -0.00000000000000009662 
0.00000000000000005442 0.82296915848867402410 -0.00000000000000007529 
-0.00000000000000005442 0.83045589085486515302 0.00000000000000005870 
0.00000000000000005442 0.83792008740103984810 -0.00000000000000001771 
0.00000000000000000000 0.84533275502034077586 0.00000000000000000485 
0.00000000000000000000 0.85266081132831772482 -0.00000000000000013678 
0.00000000000000005442 0.85986648466948056857 0.00000000000000005414 
0.00000000000000016327 0.86690706120257932099 0.00000000000000002280 
-0.00000000000000010885 0.87373496427480767945 -0.00000000000000001563 
-0.00000000000000010885 0.88029812931485995620 -0.00000000000000001243 
-0.00000000000000005442 0.88654062502146113722 0.00000000000000001010 
0.00000000000000005442 0.89240346610297194285 -0.00000000000000009206 
0.00000000000000010885 0.89782556220888065646 -0.00000000000000000838 
0.00000000000000005442 0.90274475041906043771 -0.00000000000000010770 
0.00000000000000000000 0.90709886352488777739 0.00000000000000013479 
0.00000000000000005442 0.91082679244677500208 -0.00000000000000011163 
-0.00000000000000010885 0.91386950781938613986 -0.00000000000000004753 
0.00000000000000010885 0.91617101255820521111 -0.00000000000000000120 
0.00000000000000000000 0.91767920376357059453 -0.00000000000000002222 
-0.00000000000000005442 0.91834662839732061901 -0.00000000000000007626 
-0.00000000000000010885 0.91813112264516705263 -0.00000000000000006492 
-0.00000000000000005442 0.91699632968172728464 -0.00000000000000002261 
0.00000000000000000000 0.91491209465943590384 0.00000000000000007377 
0.00000000000000021769 0.91185473915626746866 0.00000000000000000986 
0.00000000000000005442 0.90780722007316050348 0.00000000000000000647 
0.00000000000000000000 0.90275918011874844993 -0.00000000000000009779 
-0.00000000000000005442 0.89670689861450103564 -0.00000000000000001314 
0.00000000000000000000 0.88965315246038823016 -0.00000000000000008526 
0.00000000000000000000 0.88160699778373019520 0.00000000000000001656 
0.00000000000000000000 0.87258348311473055148 -0.00000000000000002131 
0.00000000000000000000 0.86260330495099468706 0.00000000000000008263 
0.00000000000000000000 0.85169241634564263332 -0.00000000000000009223 
0.00000000000000010885 0.83988159873002932176 0.00000000000000006986 
0.00000000000000010885 0.82720600660791632208 0.00000000000000000763 
0.00000000000000000000 0.81370469407320311639 -0.00000000000000004831 
-0.00000000000000005442 0.79942013134273437469 -0.00000000000000003759 
0.00000000000000000000 0.78439771868894525575 -0.00000000000000002277 
0.00000000000000000000 0.76868530432921700069 -0.00000000000000013194 
0.00000000000000000000 0.75233271200038731585 0.00000000000000000132 
0.00000000000000000000 0.73539128313471691101 0.00000000000000008094 
-0.00000000000000005442 0.71791343777091332079 -0.00000000000000002377 
-0.00000000000000005442 0.69995225759077550620 -0.00000000000000000749 
-0.00000000000000010885 0.68156109377605222921 0.00000000000000005998 
-0.00000000000000005442 0.66279320173639288960 -0.00000000000000011585 
-0.00000000000000005442 0.64370140417095611518 -0.00000000000000000233 
0.00000000000000010885 0.62433778339491186049 0.00000000017197900938 
-0.00000000000000005442 0.60475340338785499306 0.00000003528659503483 
0.00000000000000005442 0.58499806160319445247 0.00000052531419713853 
-0.00000000000000010885 0.56512007021405730178 0.00000320450577007816 
0.00000000000000000000 0.54516606615974805283 0.00001238119261226463 
0.00000000000000000000 0.52518084909435891472 0.00003621151684316224 
0.00000000000000005442 0.50520724612247935870 0.00008778483853295780 
-0.00000000000000010885 0.48528600203255761736 0.00018590880476495342 
0.00000000000000010885 0.46545569360274346993 0.00035554640354409022 
-0.00000000000000010885 0.44575266645328748272 0.00062790170098477960 
0.00000000000000010885 0.42621099285021152303 0.00104018013275950362 
-0.00000000000000010885 0.40686244882344230200 0.00163506698046875991 
0.00000000000000000000 0.38773650894555977686 0.00245997700871452207 
-0.00000000000000010885 0.36886121180082737103 0.00356613152282290883 
-0.00000000000000005442 0.35026112729018626935 0.00500751816134369088 
-0.00000000000000016327 0.33195836431254016619 0.00683978497093957333 
0.00000000000000005442 0.31397343952670886402 0.00911911479486655907 
-0.00000000000000010885 0.29632475008069142364 0.01190111954071349128 
0.00000000000000000000 0.27902864099369922846 0.01523978706513854850 
-0.00000000000000010885 0.26209947957534768248 0.01918650664154725530 
-0.00000000000000010885 0.24554973562999105052 0.02378919254840570346 
0.00000000000000000000 0.22939006627761138191 0.02909151941761622256 
-0.00000000000000010885 0.21362940430784627122 0.03513227772378049729 
-0.00000000000000010885 0.19827504906943932417 0.04194485322846368269 
-0.00000000000000005442 0.18333275898267978321 0.04955683032903836216 
-0.00000000000000010885 0.16880684484633845521 0.05798971607968526898 
0.00000000000000010885 0.15470026319254701064 0.06725877911270050635 
-0.00000000000000005442 0.14101470902237026039 0.07737299573837309874 
0.00000000000000000000 0.12775070733104360032 0.08833509408089146309 
-0.00000000000000021769 0.11490770290458822422 0.10014168615232967030 
0.00000000000000005442 0.10248414793850760263 0.11278347721288795036 
0.00000000000000000000 0.09047758709429647161 0.12624554155142422851 
0.00000000000000000000 0.07888473967043176105 0.14050765388765376618 
-0.00000000000000005442 0.06770157862128303727 0.15554466589251000896 
0.00000000000000005442 0.05692340620997451972 0.17132691779739067650 
-0.00000000000000005442 0.04654492612965262233 0.18782067567305665845 
0.00000000000000005442 0.03656031197196343840 0.20498858566681066318 
-0.00000000000000016327 0.02696327196187958686 0.22279013725948604296 
0.00000000000000000000 0.01774710991450004563 0.24118212841379488287 
-0.00000000000000021769 0.00890478240218132988 0.26011912630942957136 
0.00000000000000000000 0.00042895214955535006 0.27955391817880065330 
-0.00000000000000016327 -0.00768796230023908404 0.29943794755503971849 
0.00000000000000005442 -0.01545374058218797024 0.31972173200884340671 
-0.00000000000000005442 -0.02287631808343037337 0.34035525917374237492 
0.00000000000000010885 -0.02996374699247797424 0.36128835853387147869 
-0.00000000000000010885 -0.03672416070733631327 0.38247104706989654144 
0.00000000000000005442 -0.04316574147458845934 0.40385384742479801812 
0.00000000000000000000 -0.04929669112211935295 0.42538807776074444300 
-0.00000000000000010885 -0.05512520474083680566 0.44702611293144595139 
-0.00000000000000005442 -0.06065944716532881142 0.46872161699243053423 
0.00000000000000000000 -0.06590753209969024695 0.49042974741659012272 
0.00000000000000000000 -0.07087750373260330583 0.51210733167672695121 
0.00000000000000000000 -0.07557732068500279399 0.53371301710371910065 
0.00000000000000000000 -0.08001484213414113145 0.55520739513165418000 
0.00000000000000000000 -0.08419781595945703689 0.57655310120336955571 
-0.00000000000000005442 -0.08813386875820798660 0.59771489173489278368 
0.00000000000000000000 -0.09183049758220815373 0.61865969962889177935 
-0.00000000000000021769 -0.09529506325113337728 0.63935666988897765783 
0.00000000000000005442 -0.09853478510256799550 0.65977717692199400190 
-0.00000000000000010885 -0.10155673704419740377 0.67989482512755095023 
0.00000000000000000000 -0.10436784477919477943 0.69968543434520591440 
0.00000000000000000000 -0.10697488408181232700 0.71912699501478583031 
0.00000000000000000000 -0.10938448000640429991 0.73819937577327654488 
0.00000000000000000000 -0.11160310691950570128 0.75688345182602789762 
-0.00000000000000016327 -0.11363708925107787739 0.77515982256315463239 
-0.00000000000000016327 -0.11549260286759895078 0.79300745341418965584 
0.00000000000000010885 -0.11717567697621446288 0.81040246722143893798 
-0.00000000000000021769 -0.11869219647567350040 0.82731721410168479469 
-0.00000000000000005442 -0.12004790467618234318 0.84371967968379146807 
-0.00000000000000005442 -0.12124840631659422607 0.85957324357447428831 
0.00000000000000005442 -0.12229917081348413987 0.87483676793992537490 
-0.00000000000000010885 -0.12320553568259628996 0.88946497622940923211 
0.00000000000000000000 -0.12397271007888804872 0.90340907116514646003 
0.00000000000000005442 -0.12460635144435065758 0.91661753670939760674 
0.00000000000000000000 -0.12511165351643568910 0.92903706886841863621 
-0.00000000000000021769 -0.12549258196068927007 0.94061358341784095938 
0.00000000000000010885 -0.12575387280115343791 0.95129325380281493096 
-0.00000000000000010885 -0.12590015145797442409 0.96102353872925527778 
0.00000000000000000000 -0.12593593617113543748 0.96975416571528516574 
-0.00000000000000010885 -0.12586564130596866740 0.97743806031365043641 
0.00000000000000000000 -0.12569358052352544441 0.98403241926930651307 
-0.00000000000000010885 -0.12542396980229064685 0.98950024617600218502 
-0.00000000000000005442 -0.12506093030084061701 0.99381217334795413088 
0.00000000000000005442 -0.12460849105391484659 0.99694823169702606602 
-0.00000000000000005442 -0.12407059149698387857 0.99889934401013791287 
-0.00000000000000010885 -0.12345108381675480580 0.99966841653538451862 
0.00000000000000000000 -0.12275373512718219804 0.99927097541944676085 
-0.00000000000000016327 -0.12198222947245196401 0.99773534452732148825 
0.00000000000000000000 -0.12114016966007647158 0.99510239455448656898 
-0.00000000000000010885 -0.12023107892871365276 0.99142491414319078302 
0.00000000000000005442 -0.11925699406984614781 0.98676666514648092576 
-0.00000000000000005442 -0.11822277031152861326 0.98120118878003526053 
-0.00000000000000005442 -0.11713169642648960100 0.97481042914855298154 
-0.00000000000000010885 -0.11598698698623929881 0.96768323707126457922 
-0.00000000000000016327 -0.11479178329931331859 0.95991381144221965549 
0.00000000000000000000 -0.11354915423291796206 0.95160012843945029903 
0.00000000000000000000 -0.11226209692793204242 0.94284240140741870650 
0.00000000000000000000 -0.11093353741742403851 0.93374160666186778457 
0.00000000000000000000 -0.10956633115893445185 0.92439810314504822220 
-0.00000000000000010885 -0.10816326349075917890 0.91491036702086991905 
0.00000000000000000000 -0.10672705002237888039 0.90537385608694964656 
-0.00000000000000010885 -0.10526033696899575465 0.89588001337220068976 
0.00000000000000000000 -0.10376570143989628792 0.88651541451465543098 
-0.00000000000000016327 -0.10224565169004942722 0.87736105946972198222 
-0.00000000000000002721 -0.10070262734397973647 0.86849180575446560670 
-0.00000000000000010885 -0.09913899960056017646 0.85997593774255043364 
0.00000000000000002721 -0.09755707142691290301 0.85187486443066229302 
-0.00000000000000008164 -0.09595907774913405019 0.84424293653848181407 
0.00000000000000005442 -0.09434718564705860122 0.83712737271648340887 
-0.00000000000000002721 -0.09272349455975970045 0.83056828395556914213 
0.00000000000000002721 -0.09109003650794469942 0.82459878495880500893 
-0.00000000000000005442 -0.08944877633887604595 0.81924518119110967262 
0.00000000000000000000 -0.08780161199888988910 0.81452722051488168908 
-0.00000000000000002721 -0.08615037483805979002 0.81045839870062008625 
0.00000000000000005442 -0.08449682995100349370 0.80704630862889636944 
-0.00000000000000005442 -0.08284267655731052116 0.80429302363625509997 
0.00000000000000010885 -0.08118954842455042287 0.80219550617015189520 
-0.00000000000000006803 -0.07953901433632103168 0.80074603367916175056 
0.00000000000000000000 -0.07789257860730973426 0.79993263445091344899 
0.00000000000000004082 -0.07625168164687971817 0.79973952690209615390 
-0.00000000000000001361 -0.07461770057224358099 0.80014755660655956238 
-0.00000000000000004082 -0.07299194987186673200 0.80113462610635755023 
0.00000000000000006803 -0.07137568211934491869 0.80267611327673049626 
0.00000000000000001361 -0.06977008873761980645 0.80474527470212819935 
0.00000000000000006803 -0.06817630081305202372 0.80731363116119181367 
-0.00000000000000010885 -0.06659538995854334675 0.81035133291075434059 
0.00000000000000003401 -0.06502836922459515057 0.81382750300038997349 
-0.00000000000000006803 -0.06347619405692596362 0.81771055733928643683 
-0.00000000000000001361 -0.06193976329901063754 0.82196850067652305061 
-0.00000000000000001361 -0.06041992023768633091 0.82656919804544659591 
0.00000000000000010204 -0.05891745368977020086 0.83148062156457491767 
-0.00000000000000004082 -0.05743309912745364620 0.83667107278362651268 
-0.00000000000000002041 -0.05596753984009181920 0.84210938101656673815 
-0.00000000000000004762 -0.05452140812987233548 0.84776507831687308858 
0.00000000000000000170 -0.05309528653874142495 0.85360855192660145541 
-0.00000000000000009184 -0.05168970910388034218 0.85961117517341656402 
0.00000000000000002466 -0.05030516263895234985 0.86574541790161918531 
0.00000000000000004337 -0.04894208803830028820 0.87198493760744499870 
0.00000000000000011990 -0.04760088160123489287 0.87830465250783495978 
-0.00000000000000011225 -0.04628189637355054759 0.88468079060089055421 
0.00000000000000007823 -0.04498544350339857972 0.89109075930995329529 
-0.00000000000000011565 -0.04371179360866927349 0.89751246835785070122 
0.00000000000000001701 -0.04246117815306531956 0.90392317191990134706 
-0.00000000000000000680 -0.04123379082808809742 0.91029817200394302912 
0.00000000000000004762 -0.04002978893821608486 0.91660963128285477541 
-0.00000000000000013606 -0.03884929478661566099 0.92282564117875087728 
0.00000000000000002041 -0.03769239705880306907 0.92890961703720542619 
-0.00000000000000005442 -0.03655915220175218888 0.93482004044715227842 
0.00000000000000005442 -0.03544958579603938592 0.94051053395488515285 
-0.00000000000000004762 -0.03436369391870409268 0.94593023143534760155 
0.00000000000000000000 -0.03330257761199638400 0.95102439492592372172 
-0.00000000000000005442 -0.03226525710056520752 0.95573522320252624063 
0.00000000000000002041 -0.03125136078756859948 0.96000279675890110020 
-0.00000000000000002721 -0.03026078413772217285 0.96376610657132621984 
0.00000000000000015647 -0.02929339950565820055 0.96696411889558175901 
-0.00000000000000014966 -0.02834905741051584049 0.96953683447124416883 
-0.00000000000000005442 -0.02742758778760802721 0.97142632388196137327 
-0.00000000000000012926 -0.02652880121575923802 0.97257792969269829531 
-0.00000000000000002721 -0.02565249011902725682 0.97294194685920731835 
-0.00000000000000000680 -0.02479842994164147343 0.97247559878765421626 
0.00000000000000000000 -0.02396638029509329942 0.97114496530749361280 
-0.00000000000000008164 -0.02315608607644317404 0.96892663326097006049 
0.00000000000000005442 -0.02236727855700349279 0.96580894074767531521 
0.00000000000000000680 -0.02159967644067618125 0.96179275847586331860 
-0.00000000000000002041 -0.02085298689132392830 0.95689180237978743726 
-0.00000000000000006803 -0.02012690652865505719 0.95113250568976837052 
0.00000000000000001361 -0.01942054935476674946 0.94455350001575599794 
-0.00000000000000005442 -0.01873336331518816664 0.93720476693255261313 
0.00000000000000000000 -0.01806589919261128094 0.92914652657165563987 
-0.00000000000000004082 -0.01741781662637366737 0.92044792982037182405 
0.00000000000000002721 -0.01678876941945025084 0.91118561744963089133 
-0.00000000000000012245 -0.01617840632951220159 0.90144220402583274954 
0.00000000000000002721 -0.01558637182790542468 0.89130473770962870272 
-0.00000000000000008164 -0.01501230682669102423 0.88086317967670357820 
-0.00000000000000010885 -0.01445584937396460212 0.87020893940124788291 
0.00000000000000000000 -0.01391663531773263199 0.85943349476769781425 
-0.00000000000000004082 -0.01339429893868275719 0.84862711915462474277 
-0.00000000000000013606 -0.01288847355224141157 0.83787773141474808369 
0.00000000000000002721 -0.01239879208036258687 0.82726987913991856249 
-0.00000000000000010885 -0.01192488759353699593 0.81688386078393915302 
-0.00000000000000008164 -0.01146639382355714443 0.80679498811797234481 
-0.00000000000000002721 -0.01102294564760674701 0.79707298708665730302 
-0.00000000000000010885 -0.01059417954428830064 0.78778153237442161139 
-0.00000000000000001361 -0.01017973402222042620 0.77897790882665851608 
-0.00000000000000003401 -0.00977925002187781355 0.77071279123927993737 
-0.00000000000000011565 -0.00939237129136197627 0.76303013287015686306 
0.00000000000000006123 -0.00901874473681689263 0.75596715227495758782 
-0.00000000000000006123 -0.00865802074821802985 0.74955440766793435259 
-0.00000000000000005442 -0.00830985350128319797 0.74381594789879890151 
-0.00000000000000008164 -0.00797390123626043161 0.73876952926786199072 
0.00000000000000004082 -0.00764982651435922728 0.73442688772573572198 
-0.00000000000000006123 -0.00733729645260061680 0.73079405647880468777 
-0.00000000000000009524 -0.00703598293786307158 0.72787171961001118081 
-0.00000000000000005442 -0.00674556282090059672 0.72565559299381621194 
0.00000000000000002721 -0.00646571809111669629 0.72413682450661576162 
-0.00000000000000008164 -0.00619613603286658845 0.72330240628584285822 
-0.00000000000000007483 -0.00593650936406327039 0.72313559255281856242 
-0.00000000000000009524 -0.00568653635785059102 0.72361631727006747727 
0.00000000000000002721 -0.00544592094810413246 0.72472160664036622268 
0.00000000000000000000 -0.00521437281950673168 0.72642598216219267382 
0.00000000000000002721 -0.00499160748294023501 0.72870185062681402943 
0.00000000000000001361 -0.00477734633691576874 0.73151987807052243351 
0.00000000000000003401 -0.00457131671576124429 0.73484934527776102353 
-0.00000000000000005442 -0.00437325192525971594 0.73865848296492320202 
-0.00000000000000001361 -0.00418289126642812457 0.74291478525951515355 
-0.00000000000000004762 -0.00399998004810205379 0.74758530052530702825 
-0.00000000000000007483 -0.00382426958897978024 0.75263689897197805223 
-0.00000000000000009524 -0.00365551720976000803 0.75803651682923423039 
0.00000000000000000000 -0.00349348621599010738 0.76375137716254448694 
-0.00000000000000009524 -0.00333794587222602680 0.76974918766297595329 
-0.00000000000000002721 -0.00318867136808199253 0.77599831595987422972 
-0.00000000000000011565 -0.00304544377673301395 0.78246794318518653188 
0.00000000000000002041 -0.00290805000641438521 0.78912819666508038363 
-0.00000000000000009524 -0.00277628274543992868 0.79595026273110380810 
0.00000000000000004082 -0.00264994040124568071 0.80290648073247317118 
-0.00000000000000004082 -0.00252882703394182633 0.80997041939530722843 
-0.00000000000000002721 -0.00241275228484492347 0.81711692950914616151 
-0.00000000000000012926 -0.00230153130043105102 0.82432201746038480383 
0.00000000000000008164 -0.00219498465214286757 0.83156217219242301031 
-0.00000000000000010885 -0.00209293825245984244 0.83881321157995414328 
-0.00000000000000015647 -0.00199522326762298493 0.84604899010989775832 
-0.00000000000000010204 -0.00190167602738583246 0.85324021604403765817 
-0.00000000000000010885 -0.00181213793214930578 0.86035352381725649362 
-0.00000000000000004082 -0.00172645535781838148 0.86735087346940520359 
-0.00000000000000008164 -0.00164447955869843529 0.87418929713087178968 
-0.00000000000000017688 -0.00156606656873767183 0.88082097777919332593 
-0.00000000000000005442 -0.00149136525768640447 0.88719362350308894616 
-0.00000000000000013606 -0.00142105697058867169 0.89325108805633046671 
-0.00000000000000014626 -0.00135382975779141075 0.89893418296219285146 
-0.00000000000000019388 -0.00128956192479644152 0.90418162581387173660 
-0.00000000000000003061 -0.00122813583349244498 0.90893107214073520783 
-0.00000000000000003061 -0.00116943780937778653 0.91312018307798248351 
-0.00000000000000009864 -0.00111335804835035047 0.91668768718789761518 
0.00000000000000000000 -0.00105979052326643855 0.91957440867586837108 
0.00000000000000000340 -0.00100863289046069712 0.92172439051121413112 
-0.00000000000000013946 -0.00095978639640236548 0.92308645945232903340 
-0.00000000000000008164 -0.00091315578465417054 0.92361615264002649983 
-0.00000000000000013266 -0.00086864920328568634 0.92327765497664948668 
-0.00000000000000010545 -0.00082617811288329039 0.92204549500042676247 
-0.00000000000000010885 -0.00078565719528652397 0.91990585345223185865 
-0.00000000000000013606 -0.00074700426317005780 0.91685741605691961631 
-0.00000000000000007823 -0.00071014017058235472 0.91291175652545841768 
-0.00000000000000008164 -0.00067498872454045428 0.90809327267957318242 
-0.00000000000000010885 -0.00064062191845345388 0.90243872212022635537 
-0.00000000000000008164 -0.00060731771457474520 0.89599641736353863308 
-0.00000000000000005442 -0.00057559024586632508 0.88882514651219535207 
-0.00000000000000011225 -0.00054537019429898542 0.88099288640660355920 
-0.00000000000000015647 -0.00051659098143744578 0.87257537243477567568 
-0.00000000000000001020 -0.00048918867775916866 0.86365458402586026132 
-0.00000000000000006803 -0.00046310191395934494 0.85431719826143037722 
0.00000000000000001191 -0.00043827179426078128 0.84465305672273371940 
-0.00000000000000009694 -0.00041464181174528003 0.83475368317200426826 
-0.00000000000000005612 -0.00039215776571213115 0.82471088231221745257 
-0.00000000000000011735 -0.00037076768107377782 0.81461544293568255437 
-0.00000000000000008504 -0.00035042172978373736 0.80455596242038518451 
-0.00000000000000013946 -0.00033107215429770251 0.79461780385783542524 
-0.00000000000000011055 -0.00031267319305818990 0.78488219213955756626 
-0.00000000000000010545 -0.00029518100799189230 0.77542545109549410043 
-0.00000000000000012926 -0.00027855361400893112 0.76631838024391285558 
-0.00000000000000017347 -0.00026275081048228097 0.75762576683769311536 
-0.00000000000000008334 -0.00024773411469355603 0.74940602662329480754 
-0.00000000000000021259 -0.00023346669721772875 0.74171096500658661999 
-0.00000000000000004932 -0.00021991331922822276 0.73458564908148105133 
-0.00000000000000008164 -0.00020704027169191641 0.72806838016034780559 
-0.00000000000000007653 -0.00019481531642884481 0.72219075598871507182 
-0.00000000000000006803 -0.00018320762900529369 0.71697781167343233033 
-0.00000000000000002381 -0.00017218774343179439 0.71244822845008193291 
-0.00000000000000004762 -0.00016172749863114770 0.70861459971361195898 
-0.00000000000000006293 -0.00015179998664563261 0.70548374419250337031 
-0.00000000000000013946 -0.00014237950254713969 0.70305705672293150599 
-0.00000000000000012075 -0.00013344149601670483 0.70133088774192897663 
-0.00000000000000004592 -0.00012496252455804051 0.70029694333866876477 
-0.00000000000000006888 -0.00011692020830660063 0.69994269845635548322 
-0.00000000000000016667 -0.00010929318639974292 0.70025181660339552714 
-0.00000000000000005697 -0.00010206107487194654 0.70120457019482451688 
-0.00000000000000007483 -0.00009520442603326068 0.70277825638992352797 
-0.00000000000000005272 -0.00008870468929915973 0.70494760400896916419 
-0.00000000000000009949 -0.00008254417343161361 0.70768516779309786902 
-0.00000000000000015647 -0.00007670601015312687 0.71096170691043625300 
-0.00000000000000013266 -0.00007117411910075243 0.71474654520497626908 
-0.00000000000000015647 -0.00006593317407655481 0.71900791122972218528 
-0.00000000000000018538 -0.00006096857056581430 0.72371325660130614299 
0.00000000000000010545 -0.00005626639447906605 0.72882955165953666743 
-0.00000000000000014626 -0.00005181339208661250 0.73432355781305069797 
-0.00000000000000004762 -0.00004759694110836506 0.74016207630292019104 
-0.00000000000000021089 -0.00004360502292385757 0.74631217342178590712 
-0.00000000000000004507 -0.00003982619586755952 0.75274138248928268435 
-0.00000000000000011820 -0.00003624956957603235 0.75941788310792801564 
-0.00000000000000021557 -0.00003286478035281879 0.76631065841015555407 
-0.00000000000000011097 -0.00002966196751793494 0.77338963115976100404 
-0.00000000000000011735 -0.00002663175070996418 0.78062577969272617384 
-0.00000000000000018453 -0.00002376520810899664 0.78799123477613397526 
-0.00000000000000014796 -0.00002105385554845412 0.79545935853264526649 
-0.00000000000000021939 -0.00001848962648739143 0.80300480396240958569 
-0.00000000000000005655 -0.00001606485281059272 0.81060345304260261745 
-0.00000000000000007993 -0.00001377224642991785 0.81823186697939920276 
-0.00000000000000013096 -0.00001160488165768690 0.82586619997807397819 
-0.00000000000000007228 -0.00000955617832361217 0.83348090999648549726 
-0.00000000000000003401 -0.00000761988560937213 0.84104753856974889814 
-0.00000000000000010119 -0.00000579006657428208 0.84853372346369104751 
-0.00000000000000009949 -0.00000406108334602008 0.85590252879023154264 
-0.00000000000000016455 -0.00000242758295261137 0.86311212145712767896 
-0.00000000000000013733 -0.00000088448376924868 0.87011578498894537326 
-0.00000000000000006675 0.00000000000000004082 0.87686223749877478806 
-0.00000000000000011310 0.00000000000000002721 0.88329620645815987157 
-0.00000000000000014074 0.00000000000000008164 0.88935920618262331860 
-0.00000000000000001446 0.00000000000000000000 0.89499046249163416444 
-0.00000000000000019091 0.00000000000000009524 0.90012793116433098550 
-0.00000000000000010863 0.00000000000000005442 0.90470936133151624858 
-0.00000000000000010204 0.00000000000000017688 0.90867336086559147290 
-0.00000000000000017645 0.00000000000000001361 0.91196042744447292083 
-0.00000000000000012904 0.00000000000000000000 0.91451391575904605880 
-0.00000000000000003869 0.00000000000000014966 0.91628091794449728624 
-0.00000000000000017050 -0.00000000000000001361 0.91721304050041652101 
0.00000000000000007356 0.00000000000000004082 0.91726706656981693566 
-0.00000000000000016497 0.00000000000000009524 0.91640549738874432784 
-0.00000000000000013861 0.00000000000000021769 0.91459697096210568201 
-0.00000000000000008567 0.00000000000000005442 0.91181655957081897412 
0.00000000000000001286 -0.00000000000000004082 0.90804595059907311505 
-0.00000000000000010906 0.00000000000000005442 0.90327351743436201659 
-0.00000000000000014626 0.00000000000000009524 0.89749428889353199956 
-0.00000000000000006431 0.00000000000000005442 0.89070982682746524528 
-0.00000000000000010778 -0.00000000000000005442 0.88292802231921452272 
-0.00000000000000014658 0.00000000000000010885 0.87416282127855893247 
-0.00000000000000004029 0.00000000000000009524 0.86443389031047801474 
-0.00000000000000005134 0.00000000000000013606 0.85376623355236724855 
-0.00000000000000005325 0.00000000000000016327 0.84218977078655610224 
-0.00000000000000010098 0.00000000000000008164 0.82973888658726036027 
0.00000000000000000882 -0.00000000000000002721 0.81645195959551442044 
-0.00000000000000006952 0.00000000000000012245 0.80237088026771574700 
-0.00000000000000002296 0.00000000000000014966 0.78754056464377075741 
-0.00000000000000001414 0.00000000000000006803 0.77200847085543677917 
-0.00000000000000000324 0.00000000000000008164 0.75582412426574152597 
-0.00000000000000012830 0.00000000000000006803 0.73903865631386200796 
-0.00000000000000002264 0.00000000000000001361 0.72170436135044269133 
-0.00000000000000007494 0.00000000000000012245 0.70387427499676802345 
-0.00000000000000004709 -0.00000000000000002721 0.68560177685543566284 
-0.00000000000000013994 0.00000000000000012245 0.66694021974580486312 
-0.00000000000000010359 0.00000000000000002721 0.64794258703802942723 
0.00000000002093872344 0.00000000000000009524 0.62866117911680508001 
0.00000001685737280578 0.00000000000000005442 0.60914732952048578074 
0.00000033636529216125 0.00000000000000025851 0.58945115087222232919 
0.00000233442274689114 0.00000000000000008164 0.56962131034567042853 
0.00000969950675687179 0.00000000000000006803 0.54970483408622528021 
0.00002972323914015559 0.00000000000000012245 0.52974693973685527126 
0.00007443489206516695 0.00000000000000004082 0.50979089599216720341 
0.00016145207641465574 -0.00000000000000005442 0.48987790792189223055 
0.00031448883691468629 0.00000000000000017688 0.47004702666190223415 
0.00056351033071399398 0.00000000000000010885 0.45033508196350852115 
0.00094455514775530379 0.00000000000000005442 0.43077663601653642944 
0.00149926611064898235 0.00000000000000000000 0.41140509003231673368 
0.00227418121276062261 0.00000000000000012245 0.39224948857843328076 
0.00331984068796420959 0.00000000000000006803 0.37333721504515487988 
0.00468976598074784430 -0.00000000000000002721 0.35469367172000687560 
0.00643936308756326396 -0.00000000000000008164 0.33634202393222900618 
0.00862479750205580147 0.00000000000000005442 0.31830324721968294988 
0.01130188166802845000 0.00000000000000006803 0.30059618455983361240 
0.01452500905026619764 0.00000000000000010885 0.28323761224205162845 
0.01834616212361506529 0.00000000000000012245 0.26624231303314310759 
0.02281401506597646733 0.00000000000000014966 0.24962315536764853596 
0.02797314592570632891 0.00000000000000004082 0.23339117737740833203 
0.03386336764158499185 -0.00000000000000008164 0.21755567465986747067 
0.04051918258647360660 0.00000000000000012245 0.20212429077030494295 
0.04796936130156632949 0.00000000000000010885 0.18710310950863900947 
0.05623664277229971364 0.00000000000000002721 0.17249674815576626630 
0.06533755093295749716 0.00000000000000005442 0.15830845089679984605 
0.07528232002388118849 0.00000000000000001361 0.14454018174847410583 
0.08607491990361529344 0.00000000000000016327 0.13119271638486726395 
0.09771317137497614880 0.00000000000000006803 0.11826573232907233724 
0.11018894095487601070 0.00000000000000002721 0.10575789704821900172 
0.12348840424044664477 -0.00000000000000005442 0.09366695355509577214 
0.13759236703950053493 0.00000000000000004082 0.08198980318138629486 
0.15247663368699299058 -0.00000000000000005442 0.07072258524515123712 
0.16811241241118399237 0.00000000000000010885 0.05986075338861301248 
0.18446674819929673173 0.00000000000000010885 0.04939914841156025499 
0.20150297430354879857 0.00000000000000006803 0.03933206747084221772 
0.21918117429070912983 0.00000000000000010885 0.02965332955755135835 
0.23745864734293939402 -0.00000000000000005442 0.02035633720073453876 
0.25629037034041263210 0.00000000000000008164 0.01143413437994222556 
0.27562945107711667170 -0.00000000000000004082 0.00287946065880198207 
0.29542756776420414644 0.00000000000000014966 -0.00531519842174815477 
0.31563539074757190894 0.00000000000000012245 -0.01315756462873220872 
0.33620298309836238460 -0.00000000000000006803 -0.02065552391894598730 
0.35708017741968550718 0.00000000000000000000 -0.02781708681805797334 
0.37821692684527835615 0.00000000000000006803 -0.03465035218316758064 
0.39956362878310902609 0.00000000000000001361 -0.04116347422287306573 
0.42107142047777673666 0.00000000000000006803 -0.04736463263909026361 
0.44269244592993223231 0.00000000000000008164 -0.05326200574715267422 
0.46438009411987352104 0.00000000000000016327 -0.05886374642495270648 
0.48608920883781508993 0.00000000000000019048 -0.06417796073785304867 
0.50777627072758768634 -0.00000000000000004082 -0.06921268908366859374 
0.52939955240665148573 0.00000000000000013606 -0.07397588970099676364 
0.55091924773659128878 -0.00000000000000004082 -0.07847542438444575497 
0.57229757648819445937 0.00000000000000000000 -0.08271904625168834124 
0.59349886577738131255 0.00000000000000015647 -0.08671438940965330022 
0.61448960974627842013 0.00000000000000004082 -0.09046896037040517979 
0.63523850903115619548 0.00000000000000008164 -0.09399013107125114841 
0.65571649159926115313 0.00000000000000007483 -0.09728513335822019936 
0.67589671655307481668 0.00000000000000003401 -0.10036105479721217637 
0.69575456249574041401 0.00000000000000010204 -0.10322483568267680487 
0.71526759482081858632 0.00000000000000006803 -0.10588326711960648063 
0.73441535676786984244 0.00000000000000008844 -0.10834299006079917138 
0.75317861708872513304 0.00000000000000017007 -0.11061049518771895461 
0.77153814052432057036 0.00000000000000016327 -0.11269212352977002467 
0.78947332314863094549 0.00000000000000002041 -0.11459406772334664038 
0.80696094087442715725 0.00000000000000014966 -0.11632237381858823166 
0.82397415695410458625 0.00000000000000009524 -0.11788294354828268706 
0.84048186031649108063 -0.00000000000000002381 -0.11928153697979786141 
0.85644835476986047595 0.00000000000000009524 -0.12052377547724317519 
0.87183338426948775446 0.00000000000000006803 -0.12161514490721905823 
0.88659245744137260559 0.00000000000000021429 -0.12256185370682408375 
0.90067742207723089365 0.00000000000000012245 -0.12336877853193033150 
0.91403723477468623582 0.00000000000000011225 -0.12404043756610431959 
0.92661887026452538496 0.00000000000000008844 -0.12458181368922451038 
0.93836831767733308585 0.00000000000000009864 -0.12499777183107765866 
0.94923161585792537043 0.00000000000000013436 -0.12529306256941602493 
0.95915588673247487161 0.00000000000000020239 -0.12547232565969457241 
0.96809039388440953910 0.00000000000000009184 -0.12554009347118275097 
0.97598793343366430086 0.00000000000000009864 -0.12550079430815941350 
0.98280669914561413769 0.00000000000000017858 -0.12535875559859649409 
0.98851230340907658700 0.00000000000000015307 -0.12511820693620154255 
0.99307964904626833125 0.00000000000000010460 -0.12478328296485578786 
0.99649446471181513107 0.00000000000000004252 -0.12435802609740834179 
0.99875440526313230549 0.00000000000000016455 -0.12384638906344312692 
0.99986968181167734659 0.00000000000000011437 -0.12325223728305123583 
0.99986322991180631714 0.00000000000000009439 -0.12257935106580426787 
0.99877045310908674214 0.00000000000000014244 -0.12183142763607490711 
0.99663859652950070878 0.00000000000000001084 -0.12101208298756271908 
0.99352581426609687387 0.00000000000000006144 -0.12012399889207521497 
0.98949999731427140670 0.00000000000000005612 -0.11917098229535544318 
0.98463742752281968595 0.00000000000000016625 -0.11815699697706881499 
0.97902131886026555474 0.00000000000000014116 -0.11708534523963196050 
0.97274030131192523729 0.00000000000000015392 -0.11595925527019688983 
0.96588689572706609709 0.00000000000000002296 -0.11478188209130836539 
0.95855602052241151156 0.00000000000000019048 -0.11355630839305787261 
0.95084356374758416397 0.00000000000000017603 -0.11228554525665523922 
0.94284504692961212946 0.00000000000000017688 -0.11097253277957448703 
0.93465440053628812134 0.00000000000000011735 -0.10962014061253534669 
0.92636286495370390170 0.00000000000000001701 -0.10823116841858515524 
0.91805802562506988451 0.00000000000000010885 -0.10680834626447500979 
0.90982298646603843029 0.00000000000000014796 -0.10535433495434998186 
0.90173568184508190448 -0.00000000000000002211 -0.10387172631554250635 
0.89386832426300566468 0.00000000000000017177 -0.10236304344596058868 
0.88628698233594904732 0.00000000000000004932 -0.10083074093220267820 
0.87905128172499513717 0.00000000000000014116 -0.09927720504713838379 
0.87221422020196737179 0.00000000000000018538 -0.09770475393524548358 
0.86582208703310781228 0.00000000000000007823 -0.09611563779353149428 
0.85991447623907968367 0.00000000000000014286 -0.09451203905536072203 
0.85452438299279809275 0.00000000000000013266 -0.09289607258399618095 
0.84967837239145271866 0.00000000000000011735 -0.09126978588213259524 
0.84539681003571998108 0.00000000000000006803 -0.08963515932315839485 
0.84169414422237487372 0.00000000000000016327 -0.08799410640933852390 
0.83857923006611057026 0.00000000000000013946 -0.08634847406156809235 
0.83605568647704853191 0.00000000000000020579 -0.08470004294481021934 
0.83412227760161894441 0.00000000000000004932 -0.08305052783279816275 
0.83277331106009189199 0.00000000000000011905 -0.08140157801506431312 
0.83199904606207653046 0.00000000000000017518 -0.07975477774885386673 
0.83178610523356444340 0.00000000000000023470 -0.07811164675799030233 
0.83211788473074677075 0.00000000000000017347 -0.07647364078029426915 
0.83297495793512521534 0.00000000000000004082 -0.07484215216470052612 
0.83433546871218189356 0.00000000000000015307 -0.07321851051879903205 
0.83617551086529817717 0.00000000000000014796 -0.07160398340711375542 
0.83846949102285672772 0.00000000000000006293 -0.06999977710005468590 
0.84119047275639624583 0.00000000000000007993 -0.06840703737312649191 
0.84431050023959397510 0.00000000000000013096 -0.06682685035563872000 
0.84780090022118193005 0.00000000000000011735 -0.06526024342786328203 
0.85163256150006638734 0.00000000000000016837 -0.06370818616530311840 
0.85577619145909511467 0.00000000000000017518 -0.06217159132848044251 
0.86020254953687358412 0.00000000000000017688 -0.06065131589642347443 
0.86488265779698536573 0.00000000000000007483 -0.05914816214182822690 
0.86978798899346332352 0.00000000000000015987 -0.05766287874568801902 
0.87489063273316758362 -0.00000000000000003401 -0.05619616194902860712 
0.88016344050271033694 0.00000000000000016497 -0.05474865673925188858 
0.88558015046270632809 0.00000000000000000510 -0.05332095806847817615 
0.89111549301834347414 0.00000000000000020919 -0.05191361210118759090 
0.89674527825544414483 0.00000000000000018708 -0.05052711748838621675 
0.90244646621616442239 0.00000000000000003572 -0.04916192666547885420 
0.90819718711410624135 0.00000000000000019388 -0.04781844717098286679 
0.91397643077013057678 0.00000000000000011395 -0.04649704298321642032 
0.91976314416688098596 0.00000000000000021259 -0.04519803587208150869 
0.92553498607613060578 0.00000000000000026021 -0.04392170676308184557 
0.93126705671771370376 0.00000000000000016157 -0.04266829711074195119 
0.93693080584353349849 0.00000000000000020919 -0.04143801027863452252 
0.94249323236123061509 0.00000000000000005612 -0.04023101292327618123 
0.94791642422888544584 0.00000000000000021429 -0.03904743637921106320 
0.95315744292608273192 0.00000000000000011565 -0.03788737804267745812 
0.95816852757999304568 0.00000000000000015477 -0.03675090275133362228 
0.96289757600873004950 0.00000000000000005612 -0.03563804415760039868 
0.96728885054083346695 0.00000000000000022450 -0.03454937913072408939 
0.97128385312648790606 0.00000000000000003572 -0.03348511348114260183 
0.97482231514279626960 0.00000000000000017688 -0.03244431530660599888 
0.97784325100337510239 0.00000000000000011735 -0.03142691116480545582 
0.98028603014146187267 0.00000000000000018538 -0.03043280290878857056 
0.98209143100737061882 0.00000000000000012075 -0.02946186898680716593 
0.98320274807352547874 0.00000000000000013266 -0.02851396572116712477 
0.98356729397536502013 0.00000000000000009184 -0.02758892856452559161 
0.98313832749922958065 0.00000000000000009864 -0.02668657333220803354 
0.98187706186249745777 0.00000000000000015477 -0.02580669740922625355 
0.97975447429478457195 0.00000000000000017518 -0.02494908093080051847 
0.97675275074737699654 0.00000000000000024321 -0.02411348793529916393 
0.97286628246416451127 0.00000000000000018368 -0.02329966748862686773 
0.96810219000426456226 0.00000000000000015817 -0.02250735477919880989 
0.96248039059418433183 0.00000000000000013606 -0.02173627218275350423 
0.95603325080684176118 0.00000000000000011905 -0.02098613029635589336 
0.94880488203038171324 0.00000000000000011225 -0.02025662894105046546 
0.94085014378937459334 0.00000000000000006633 -0.01954660345340625618 
0.93223342190958902176 0.00000000000000016412 -0.01885608349272036716 
0.92302724648806222518 0.00000000000000008334 -0.01818532423394299963 
0.91331080996555857876 0.00000000000000015817 -0.01753398770311035207 
0.90316843930766677051 0.00000000000000010289 -0.01690172989100160311 
0.89268806914127629693 0.00000000000000010630 -0.01628820155141577977 
0.88195975522272240799 0.00000000000000005868 -0.01569304896735243884 
0.87107426023233425205 0.00000000000000013521 -0.01511591468523047592 
0.86012173687397208699 0.00000000000000012841 -0.01455643821733924349 
0.84919052678826822955 0.00000000000000012330 -0.01401425671279221512 
0.83836608797249634328 0.00000000000000008844 -0.01348900559730174462 
0.82773005829117995980 0.00000000000000009779 -0.01298031918216011917 
0.81735945827197253877 0.00000000000000015222 -0.01248783124285515744 
0.80732603269420422087 0.00000000000000008929 -0.01201117556780360862 
0.79769572745583994244 0.00000000000000014541 -0.01154998647772256803 
0.78852829579835714835 0.00000000000000009099 -0.01110389931620727952 
0.77987702612031928329 0.00000000000000007993 -0.01067255091210905782 
0.77178858225766477918 0.00000000000000017603 -0.01025558001435124961 
0.76430294618959804254 0.00000000000000000425 -0.00985262769983850061 
0.75745345258269969335 0.00000000000000018623 -0.00946333775515087114 
0.75126690435461995765 0.00000000000000018198 -0.00908735703272336472 
0.74576375846870113229 0.00000000000000008504 -0.00872433578224595004 
0.74095837141288478644 0.00000000000000009354 -0.00837392795801768577 
0.73685929422604024008 -0.00000000000000002296 -0.00803579150301718913 
0.73346960747313139084 0.00000000000000014711 -0.00770958861044729934 
0.73078728720304175770 0.00000000000000014966 -0.00739498596353130224 
0.72880559361975016941 0.00000000000000011097 -0.00709165495433334084 
0.72751347493363105468 0.00000000000000012203 -0.00679927188238484050 
0.72689597961373919599 0.00000000000000013138 -0.00651751813389234418 
0.72693467101657871510 0.00000000000000018410 -0.00624608034230814211 
0.72760803910785132320 0.00000000000000005612 -0.00598465053103232076 
0.72889190470985953940 0.00000000000000015477 -0.00573292623901781786 
0.73075981238996468026 -0.00000000000000003572 -0.00549061063003411683 
0.73318340874842813371 0.00000000000000014286 -0.00525741258634523489 
0.73613280346262743858 0.00000000000000007526 -0.00503304678753816511 
0.73957691099627465015 0.00000000000000014329 -0.00481723377523456901 
0.74348377138539689657 0.00000000000000003061 -0.00460970000439997994 
0.74782084896719591693 0.00000000000000010502 -0.00441017788195277941 
0.75255530832406924979 0.00000000000000003784 -0.00421840579336151076 
0.75765426707440297616 0.00000000000000017347 -0.00403412811790367174 
0.76308502545610834567 0.00000000000000011693 -0.00385709523323622596 
0.76881527292061202505 0.00000000000000020621 -0.00368706350992436269 
0.77481327218672246815 0.00000000000000012500 -0.00352379529654295179 
0.78104802139830553642 0.00000000000000023513 -0.00336705889595661015 
0.78748939518992033815 0.00000000000000010587 -0.00321662853336194231 
0.79410826559347458264 0.00000000000000015413 -0.00307228431666032751 
0.80087660381949687949 0.00000000000000009779 -0.00293381218970328352 
0.80776756402165750259 0.00000000000000018644 -0.00280100387894519987 
0.81475554940966254946 0.00000000000000008971 -0.00267365683400459971 
0.82181619963575558430 0.00000000000000020940 -0.00255157416263176182 
0.82892596523293127220 0.00000000000000010863 -0.00243456456054534469 
0.83606110658921117817 0.00000000000000016582 -0.00232244223659704499 
0.84319642129244454232 0.00000000000000022960 -0.00221502683368931912 
0.85030399580916016244 0.00000000000000007590 -0.00211214334586825540 
0.85735216443732553682 0.00000000000000014648 -0.00201362203197982944 
0.86430477391233773155 0.00000000000000010885 -0.00191929832627148428 
0.87112079208752757342 0.00000000000000006845 -0.00182901274629508072 
0.87775425807089979546 0.00000000000000017900 -0.00174261079845674247 
0.88415454453046804506 0.00000000000000020738 -0.00165994288153327083 
0.89026688696380607002 0.00000000000000023024 -0.00158086418846608038 
0.89603312670579604582 0.00000000000000013617 -0.00150580764416179819 
0.90139261208277765558 0.00000000000000015498 -0.00143486817540753068 
0.90628320367290682302 0.00000000000000012128 -0.00136703461474064038 
0.91064233376666581243 0.00000000000000012160 -0.00130218444530605056 
0.91440807582751060245 0.00000000000000009120 -0.00124019922511943003 
0.91752019348463809134 0.00000000000000013638 -0.00118096449440322068 
0.91992129486642260083 0.00000000000000004932 -0.00112436968244597067 
0.92155843670135184631 0.00000000000000013904 -0.00107030801419230473 
0.92238509548416303119 0.00000000000000024937 -0.00101867641675559796 
0.92236315281125724752 0.00000000000000010736 -0.00096937542603332209 
0.92146464075671030702 0.00000000000000002987 -0.00092230909359274993 
0.91967309992851586919 0.00000000000000019399 -0.00087738489398294967 
0.91698448044335889584 0.00000000000000014079 -0.00083451363261253977 
0.91340757080045709149 0.00000000000000011321 -0.00079360935433268442 
0.90896397676781159891 0.00000000000000011113 -0.00075458925284014515 
0.90368769612711630224 0.00000000000000008424 -0.00071737358101637574 
0.89762434881367014761 0.00000000000000019968 -0.00068188556230299032 
0.89083012829433838586 0.00000000000000005798 -0.00064747826576695396 
0.88337054104023449153 0.00000000000000010162 -0.00061385014910610375 
0.87531899829945103431 0.00000000000000011172 -0.00058181296809117018 
0.86675531931342897352 0.00000000000000010587 -0.00055129684571909193 
0.85776419860239072612 0.00000000000000018474 -0.00052223466295373878 
0.84843368268451746506 0.00000000000000010374 -0.00049456196764898906 
0.83885369411322596722 0.00000000000000016773 -0.00046821688545635296 
0.82911463338969559889 0.00000000000000031182 -0.00044314003273174642 
0.81930608238900337614 0.00000000000000016750 -0.00041927443146103305 
0.80951562659247600084 0.00000000000000005482 -0.00039656542621364287 
0.79982780774168471538 0.00000000000000018113 -0.00037496060313037797 
0.79032321356455847994 0.00000000000000011698 -0.00035440971094440890 
0.78107770697705680707 0.00000000000000017900 -0.00033486458403705514 
0.77216179361319070562 0.00000000000000009567 -0.00031627906751756043 
0.76364012364187705550 0.00000000000000012043 -0.00029860894432035353 
0.75557112153909966601 0.00000000000000017924 -0.00028181186430282931 
0.74800673573923304183 0.00000000000000007233 -0.00026584727533281838 
0.74099229882823791637 0.00000000000000002362 -0.00025067635634092034 
0.73456648810159308471 0.00000000000000015851 -0.00023626195232037377 
0.72876137583099431794 0.00000000000000008637 -0.00022256851124918283 
0.72360255840893450419 0.00000000000000016013 -0.00020956202291018853 
0.71910935361636441066 0.00000000000000011526 -0.00019720995957912829 
0.71529505553751226987 0.00000000000000011825 -0.00018548121855523520 
0.71216723708431983741 0.00000000000000016817 -0.00017434606649818730 
0.70972809065257991268 0.00000000000000009406 -0.00016377608554759174 
0.70797479807931185114 0.00000000000000010735 -0.00015374412118242280 
0.70689992177743499191 0.00000000000000014956 -0.00014422423179564909 
0.70649180966497659995 0.00000000000000013430 -0.00013519163994084673 
0.70673500726147397977 0.00000000000000008916 -0.00012662268522330779 
0.70761067107708841561 0.00000000000000007139 -0.00011849477879134872 
0.70909697815673478072 0.00000000000000010907 -0.00011078635939940743 
0.71116952735155358756 0.00000000000000011344 -0.00010347685099857285 
0.71380172856520585078 0.00000000000000018136 -0.00009654662182370853 
0.71696517685677185749 0.00000000000000015260 -0.00008997694493418916 
0.72063000887141726025 0.00000000000000022208 -0.00008374996017738708 
0.72476523961193284329 0.00000000000000014852 -0.00007784863752929797 
0.72933907805757591802 0.00000000000000012908 -0.00007225674178513038 
0.73431922058122645058 0.00000000000000018438 -0.00006695879855245210 
0.73967312151249153818 0.00000000000000013731 -0.00006194006151957430 
0.74536824054450878663 0.00000000000000019679 -0.00005718648095418235 
0.75137226698779824297 0.00000000000000017013 -0.00005268467340466313 
0.75765332113797612124 0.00000000000000016584 -0.00004842189255891896 
0.76418013324815525777 0.00000000000000005782 -0.00004438600123559767 
0.77092220078422035723 0.00000000000000016871 -0.00004056544446326805 
0.77784992479486581018 0.00000000000000016905 -0.00003694922362113803 
0.78493472635123373582 0.00000000000000020421 -0.00003352687160226450 
0.79214914410617698337 0.00000000000000010263 -0.00003028842896962053 
0.79946691409342551804 0.00000000000000018586 -0.00002722442106882048 
0.80686303027294048462 0.00000000000000026630 -0.00002432583607091692 
0.81431368377870461117 0.00000000000000015099 -0.00002158410390790698 
0.82179571442146670535 0.00000000000000009982 -0.00001899107607607335 
0.82928552579151570967 0.00000000000000014485 -0.00001653900627154651 
0.83675779740777767035 0.00000000000000021029 -0.00001422053183580213 
0.84418426598368201397 0.00000000000000001710 -0.00001202865597471120 
0.85153273955164543452 0.00000000000000020502 -0.00000995673073067365 
0.85876642906507161257 0.00000000000000024127 -0.00000799844067427140 
0.86584362633754530236 0.00000000000000010405 -0.00000614778729549013 
0.87271771934472908150 0.00000000000000011625 -0.00000439907406143925 
0.87933751165845885911 0.00000000000000013563 -0.00000274689212389906 
0.88564779865174703133 0.00000000000000008300 -0.00000118610664377517 
0.89159014638450628798 0.00000000000000010056 -0.00000000000000012415 
0.89710381762237978442 0.00000000000000012072 0.00000000000000010927 
0.90212679160455988558 0.00000000000000018613 -0.00000000000000017007 
0.90659682869665336735 0.00000000000000016575 -0.00000000000000011501 
0.91045253698666062103 0.00000000000000016501 -0.00000000000000014945 
0.91363440449735200399 0.00000000000000001065 0.00000000000000003146 
0.91608576748254888500 0.00000000000000005546 -0.00000000000000008865 
0.91775369188629574158 0.00000000000000016262 -0.00000000000000002721 
0.91858975122904951149 0.00000000000000018728 -0.00000000000000019622 
0.91855068979082132863 0.00000000000000006649 0.00000000000000004656 
0.91759896490320902451 0.00000000000000015779 -0.00000000000000018155 
0.91570316640664772834 0.00000000000000017944 0.00000000000000013223 
0.91283831487904487645 0.00000000000000010784 -0.00000000000000014499 
0.90898604312598563215 0.00000000000000002996 -0.00000000000000000723 
0.90413466768684713770 0.00000000000000014037 -0.00000000000000025096 
0.89827915881195874448 0.00000000000000010768 -0.00000000000000014722 
0.89142101856554334383 0.00000000000000012372 -0.00000000000000005527 
0.88356807747150745147 0.00000000000000017132 0.00000000000000002168 
0.87473422050743865341 0.00000000000000006298 -0.00000000000000008440 
0.86493905332678167053 0.00000000000000018424 -0.00000000000000003072 
0.85420751940656047818 0.00000000000000011284 0.00000000000000001966 
0.84256947842979468266 0.00000000000000006916 0.00000000000000000850 
0.83005925566432836593 0.00000000000000017467 -0.00000000000000018623 
0.81671517143423189022 0.00000000000000002029 0.00000000000000006399 
0.80257905903196113950 0.00000000000000018719 -0.00000000000000006622 
0.78769577861981621147 0.00000000000000002734 0.00000000000000002657 
0.77211273384376721829 0.00000000000000006564 -0.00000000000000003731 
0.75587939705295026371 0.00000000000000022236 0.00000000000000006325 
0.73904684820156230085 0.00000000000000005383 -0.00000000000000008429 
0.72166733172039054800 0.00000000000000008245 0.00000000000000005389 
0.70379383489356162062 0.00000000000000011787 -0.00000000000000011081 
0.68547969057023760975 0.00000000000000007108 -0.00000000000000004650 
0.66677820638649265561 0.00000000000000007801 -0.00000000000000011921 
0.64774232207305726394 0.00000000000000001649 -0.00000000000000000962 
0.62842429588181758504 0.00000000000000016276 0.00000000017197905863 
0.60887542067837197024 0.00000000000000004223 0.00000003528659483091 
0.58914576981884958506 0.00000000000000005623 0.00000052531419702856 
0.56928397255496698826 0.00000000000000003555 0.00000320450577015880 
0.54933701838961301878 0.00000000000000005971 0.00001238119261205122 
0.52935008953325179970 0.00000000000000000981 0.00003621151684328788 
0.50936642038590185244 0.00000000000000002105 0.00008778483853284648 
0.48942718278689267830 0.00000000000000010383 0.00018590880476514822 
0.46957139563143479588 0.00000000000000014329 0.00035554640354406783 
0.44983585734558156899 0.00000000000000013847 0.00062790170098466001 
0.43025509963581065609 0.00000000000000007384 0.00104018013275933123 
0.41086136088263469635 0.00000000000000004510 0.00163506698046875687 
0.39168457752598562216 -0.00000000000000006803 0.00245997700871453204 
0.37275324646962215702 0.00000000000000004622 0.00356613152282288367 
0.35409238964442069086 0.00000000000000008182 0.00500751816134369955 
0.33572455926217920075 0.00000000000000003321 0.00683978497093952649 
0.31767070445325112926 0.00000000000000013389 0.00911911479486643070 
0.29994964216168501503 0.00000000000000004623 0.01190111954071364393 
0.28257812296886308800 0.00000000000000010587 0.01523978706513853289 
0.26557090421444190520 0.00000000000000000460 0.01918650664154739061 
0.24894082914620424551 -0.00000000000000002167 0.02378919254840556469 
0.23269891091335317967 0.00000000000000008031 0.02909151941761622256 
0.21685442030270579705 0.00000000000000006659 0.03513227772378053892 
0.20141497620292922455 -0.00000000000000002171 0.04194485322846390474 
0.18638663786739589900 0.00000000000000007604 0.04955683032903851482 
0.17177399813050805988 0.00000000000000008851 0.05798971607968526204 
0.15758027681473493753 0.00000000000000006842 0.06725877911270039533 
0.14380741364547797168 -0.00000000000000000174 0.07737299573837314037 
0.13045616006775145879 0.00000000000000009388 0.08833509408089146309 
0.11752616943212707001 0.00000000000000010596 0.10014168615232961479 
0.10501608508715828960 -0.00000000000000003155 0.11278347721288788097 
0.09292362598132360152 -0.00000000000000003256 0.12624554155142439504 
0.08124566943930054685 0.00000000000000001643 0.14050765388765379393 
0.06997833083498838924 0.00000000000000013761 0.15554466589250989794 
0.05911703993711586724 0.00000000000000005033 0.17132691779739064875 
0.04865661375254040633 -0.00000000000000001199 0.18782067567305671396 
0.03859132573748572104 0.00000000000000003752 0.20498858566681063542 
0.02891497128810859366 0.00000000000000011680 0.22279013725948612623 
0.01962092945902075419 0.00000000000000004165 0.24118212841379491063 
0.01070222089186955577 0.00000000000000000505 0.26011912630942984892 
0.00215156196596735056 0.00000000000000011494 0.27955391817880059779 
-0.00603858479059045990 0.00000000000000006531 0.29943794755503960747 
-0.01387596396767030137 0.00000000000000001869 0.31972173200884351774 
-0.02136848413591408910 -0.00000000000000001787 0.34035525917374231941 
-0.02852417820654591304 -0.00000000000000003745 0.36128835853387153421 
-0.03535116717449538620 0.00000000000000006311 0.38247104706989654144 
-0.04185762711904175010 -0.00000000000000007870 0.40385384742479812914 
-0.04805175932635528946 0.00000000000000002398 0.42538807776074455402 
-0.05394176339060149927 -0.00000000000000003268 0.44702611293144589588 
-0.05953581314448078143 0.00000000000000001401 0.46872161699243053423 
-0.06484203526605006318 0.00000000000000009604 0.49042974741659023374 
-0.06986849040621666285 -0.00000000000000001672 0.51210733167672695121 
-0.07462315668028141058 0.00000000000000000165 0.53371301710371910065 
-0.07911391536715169093 0.00000000000000004323 0.55520739513165429102 
-0.08334853866122701738 -0.00000000000000004345 0.57655310120336966673 
-0.08733467932433038039 0.00000000000000001575 0.59771489173489300573 
-0.09107986208828681984 0.00000000000000010165 0.61865969962889177935 
-0.09459147666272903210 0.00000000000000016618 0.63935666988897776886 
-0.09787677220731649808 0.00000000000000005870 0.65977717692199411292 
-0.10094285313268627768 0.00000000000000008872 0.67989482512755083921 
-0.10379667610002121791 -0.00000000000000006845 0.69968543434520580337 
-0.10644504809502725040 -0.00000000000000001760 0.71912699501478583031 
-0.10889462545828706985 -0.00000000000000007669 0.73819937577327632283 
-0.11115191376031439974 -0.00000000000000002651 0.75688345182602789762 
-0.11322326841611836390 0.00000000000000000444 0.77515982256315474341 
-0.11511489594063389896 -0.00000000000000014411 0.79300745341418965584 
-0.11683285575292669256 0.00000000000000013513 0.81040246722143882696 
-0.11838306244359660113 0.00000000000000003424 0.82731721410168479469 
-0.11977128842623704919 -0.00000000000000001705 0.84371967968379146807 
-0.12100316690012093146 0.00000000000000001883 0.85957324357447428831 
-0.12208419505744189104 0.00000000000000001435 0.87483676793992537490 
-0.12301973747442826457 0.00000000000000001249 0.88946497622940934313 
-0.12381502963141909068 -0.00000000000000001001 0.90340907116514634900 
-0.12447575454999247613 -0.00000000000000007557 0.91661753670939771776 
-0.12500713079894357205 -0.00000000000000004755 0.92903706886841841417 
-0.12541314813172735332 -0.00000000000000001199 0.94061358341784107040 
-0.12569856592799116823 -0.00000000000000012210 0.95129325380281504199 
-0.12586803224776135779 0.00000000000000001734 0.96102353952511387902 
-0.12592608727637955024 -0.00000000000000013830 0.96975423353339429422 
-0.12587716665506995528 -0.00000000000000000039 0.97743883704652656519 
-0.12572560467951038321 -0.00000000000000012428 0.98403640499406463960 
-0.12547563735222563852 -0.00000000000000007956 0.98951354485978071374 
-0.12513140527780070022 0.00000000000000013607 0.99384626490717964398 
-0.12469695639282972477 -0.00000000000000005656 0.99702148542125468289 
-0.12417624852517425427 -0.00000000000000004879 0.99903811508640705252 
-0.12357315177952060692 -0.00000000000000001404 0.99990765781306500948 
-0.12289145074839535887 -0.00000000000000013345 0.99965435894679155471 
-0.12213484654974036958 -0.00000000000000015769 0.99831492844384561725 
-0.12130695869386860786 0.00000000000000001294 0.99593789595404491610 
-0.12041132678413163370 -0.00000000000000000912 0.99258266173700149260 
-0.11945000367019571741 -0.00000000000000005878 0.98831831025520056055 
-0.11842786036193059251 -0.00000000000000004263 0.98322225193836798596 
-0.11734820116602545648 -0.00000000000000012125 0.97737875439237476005 
-0.11621425596684843706 0.00000000000000003972 0.97087741829884843803 
-0.11502918118957215776 -0.00000000000000017912 0.96381164622201787040 
-0.11379606064474422078 -0.00000000000000006976 0.95627714510105921164 
-0.11251790626421216690 -0.00000000000000005698 0.94837049578777510295 
-0.11119765873852217875 -0.00000000000000004969 0.94018781588950450789 
-0.10983818806603308504 0.00000000000000003546 0.93182353559370967311 
-0.10844229402399081785 -0.00000000000000003896 0.92336930020458896085 
-0.10701270657173109213 -0.00000000000000008458 0.91491300787581752996 
-0.10555208619601658127 -0.00000000000000013513 0.90653798649655814579 
-0.10406302420827497068 -0.00000000000000005460 0.89832230986835892583 
-0.10254804300321726518 -0.00000000000000003410 0.89033825016494871907 
-0.10100959628795277978 0.00000000000000004643 0.88265186114726512656 
-0.09945006929032472465 -0.00000000000000004020 0.87532268465565055138 
-0.09787177895474974409 0.00000000000000003136 0.86840357145887703272 
-0.09627697413337438226 -0.00000000000000003519 0.86194060654317106174 
-0.09466783577986334630 -0.00000000000000014849 0.85597312831245309095 
-0.09304647715262126528 -0.00000000000000005356 0.85053383088507572563 
-0.09141494403371658306 0.00000000000000003769 0.84564893865775703219 
-0.08977521496924116551 -0.00000000000000017937 0.84133844251405542902 
-0.08812920153629094644 -0.00000000000000011302 0.83761638743731348100 
-0.08647874864121947447 -0.00000000000000007037 0.83449120180629132726 
-0.08482563485326920227 0.00000000000000000677 0.83196605927034583683 
-0.08317157277716517860 0.00000000000000002374 0.83003926478946699063 
-0.08151820946772891929 -0.00000000000000012993 0.82870465715657848360 
-0.07986712688907421365 -0.00000000000000010606 0.82795202107337162456 
-0.07821984242045060265 -0.00000000000000009334 0.82776750260829334849 
-0.07657780941033975886 -0.00000000000000014379 0.82813402261144863914 
-0.07494241777995286347 -0.00000000000000004622 0.82903168338428834261 
-0.07331499467685538562 -0.00000000000000001443 0.83043816459298080979 
-0.07169680517903911920 -0.00000000000000003869 0.83232910506650992222 
-0.07008905304938273240 -0.00000000000000008659 0.83467846772903531161 
-0.06849288154008441321 -0.00000000000000010023 0.83745888547776781152 
-0.06690937424632144304 -0.00000000000000008137 0.84064198633092401813 
-0.06533955600808678821 -0.00000000000000013617 0.84419869663467039800 
-0.06378439385887002544 -0.00000000000000002752 0.84809952153384149387 
-0.06224479801960262210 -0.00000000000000006180 0.85231480227982847619 
-0.06072162293604798505 -0.00000000000000006223 0.85681495027215925919 
-0.05921566835762195197 -0.00000000000000003363 0.86157065801021215368 
-0.05772768045544476173 -0.00000000000000007428 0.86655308737080705139 
-0.05625835297726562018 -0.00000000000000009254 0.87173403582881692220 
-0.05480832843677511251 -0.00000000000000000980 0.87708608140449129120 
-0.05337819933469863110 -0.00000000000000006109 0.88258270725567677939 
-0.05196850940898108812 -0.00000000000000009603 0.88819840693869078763 
-0.05057975491129635542 0.00000000000000007719 0.89390877144103253471 
-0.04921238590706768917 -0.00000000000000000209 0.89969055897330896254 
-0.04786680759614603958 -0.00000000000000012884 0.90552171463256281303 
-0.04654338165128404231 -0.00000000000000003603 0.91138105922988199570 
-0.04524242757153174727 -0.00000000000000010895 0.91724738619103873827 
-0.04396422404770638365 -0.00000000000000004934 0.92309821549417825359 
-0.04270901033710600841 -0.00000000000000010436 0.92890852261241585452 
-0.04147698764468295968 -0.00000000000000010408 0.93464964586309318140 
-0.04026832050794252466 -0.00000000000000011853 0.94028848528578379273 
-0.03908313818289723546 -0.00000000000000008505 0.94578704178715466977 
-0.03792153602847369437 -0.00000000000000002101 0.95110230086402902661 
-0.03678357688685821025 -0.00000000000000013944 0.95618643598862707034 
-0.03566929245734488940 -0.00000000000000013421 0.96098728892291451764 
-0.03457868466135489288 -0.00000000000000009995 0.96544907482496866713 
-0.03351286011376936741 -0.00000000000000003208 0.96951325666644538881 
-0.03247084434311389017 -0.00000000000000012841 0.97311953436641029924 
-0.03145227079105117340 -0.00000000000000003777 0.97620689775424118739 
-0.03045703969917588905 0.00000000000000001231 0.97871469793341603349 
-0.02948502794146194012 -0.00000000000000009315 0.98058370523587157219 
-0.02853609030325970214 -0.00000000000000008683 0.98175727821488256719 
-0.02761006073766207256 -0.00000000000000001505 0.98218298679128968054 
-0.02670675359781636560 -0.00000000000000007575 0.98181460563186784274 
-0.02582596484386593533 -0.00000000000000002180 0.98061412376549117464 
-0.02496747322333243285 -0.00000000000000004774 0.97855351534499335209 
-0.02413104142385711498 -0.00000000000000008697 0.97561612337092307179 
-0.02331641719733280188 -0.00000000000000010569 0.97179758593020182378 
-0.02252333445457357572 0.00000000000000002032 0.96710628937646292425 
-0.02175151432977539059 -0.00000000000000007395 0.96156337013346915299 
-0.02100066621412300175 -0.00000000000000009192 0.95520231064608940308 
-0.02027048875801118824 0.00000000000000001795 0.94806818879105780873 
-0.01956038268515232839 -0.00000000000000010060 0.94021664645126057369 
-0.01886921199008659289 -0.00000000000000005931 0.93171264404320508490 
-0.01819783051191361384 -0.00000000000000003809 0.92262906519635334845 
-0.01754589915500158123 -0.00000000000000010666 0.91304523077050769864 
-0.01691307282528419983 -0.00000000000000006891 0.90304537491844039110 
-0.01629900122775026355 -0.00000000000000004579 0.89271712867031394190 
-0.01570332963182812305 -0.00000000000000012397 0.88215004905823568571 
-0.01512569960479892388 0.00000000000000008714 0.87143422448726992613 
-0.01456574971343937638 -0.00000000000000019052 0.86065898014970199092 
-0.01402311619416217806 -0.00000000000000005378 0.84991170093788426243 
-0.01349743359197743374 -0.00000000000000008311 0.83927678363395807892 
-0.01298833536865907738 0.00000000000000001320 0.82883472518662992812 
-0.01249545448054902724 -0.00000000000000004125 0.81866134963231596000 
-0.01201842392648202508 -0.00000000000000003864 0.80882717265948722574 
-0.01155687726635352963 -0.00000000000000019436 0.79939689991142925951 
-0.01111044911089815318 -0.00000000000000001942 0.79042905282226039176 
-0.01067877558327842008 -0.00000000000000012737 0.78197571402547649821 
-0.01026149475311600653 -0.00000000000000005955 0.77408238310186239239 
-0.00985824704362872790 -0.00000000000000008297 0.76678793258245281361 
-0.00946867561255869405 -0.00000000000000003281 0.76012465363227810222 
-0.00909242670760052572 -0.00000000000000011890 0.75411838065493508321 
-0.00872914999705758261 -0.00000000000000008458 0.74878868412384691489 
-0.00837849887646714350 -0.00000000000000020414 0.74414912121525411681 
-0.00804013075195224303 -0.00000000000000008615 0.74020753424734408998 
-0.00771370730106259520 -0.00000000000000007591 0.73696638748121023887 
-0.00739889471187909695 -0.00000000000000008398 0.73442313347918575239 
-0.00709536390115745458 -0.00000000000000008235 0.73257060091574910388 
-0.00680279071229013179 -0.00000000000000018140 0.73139739647120793897 
-0.00652085609386616680 -0.00000000000000003911 0.73088831418834931952 
-0.00624924625960729310 -0.00000000000000009913 0.73102474642031467500 
-0.00598765283044995402 -0.00000000000000012730 0.73178509123060841990 
-0.00573577295954525324 -0.00000000000000002489 0.73314515181263140153 
-0.00549330944093314680 -0.00000000000000008941 0.73507852416829999598 
-0.00525997080264462968 -0.00000000000000008951 0.73755696991714891908 
-0.00503547138497084483 -0.00000000000000007447 0.74055077169470762133 
-0.00481953140462886963 -0.00000000000000012278 0.74402906913930477728 
-0.00461187700553974695 -0.00000000000000012637 0.74796017395859992760 
-0.00441224029692382971 -0.00000000000000011048 0.75231186301088748269 
-0.00422035937939592865 -0.00000000000000014334 0.75705164873228980582 
-0.00403597835973629280 -0.00000000000000000930 0.76214702659080679759 
-0.00385884735499144281 -0.00000000000000015182 0.76756569955373932235 
-0.00368872248654370091 -0.00000000000000008666 0.77327577981862427592 
-0.00352536586476833932 -0.00000000000000009004 0.77924596828213776867 
-0.00336854556488460147 -0.00000000000000006168 0.78544571240926364109 
-0.00321803559458063229 0.00000000000000001907 0.79184534331927025619 
-0.00307361585398365942 -0.00000000000000012061 0.79841619302867927743 
-0.00293507208851502251 -0.00000000000000022999 0.80513069288730654272 
-0.00280219583516551178 -0.00000000000000005768 0.81196245431450908558 
-0.00267478436269295546 -0.00000000000000010542 0.81888633032960100877 
-0.00255264060623707455 -0.00000000000000008350 0.82587835582120683320 
-0.00243557309681605074 0.00000000000000000202 0.83291520009744890451 
-0.00232339588616310277 -0.00000000000000019560 0.83997308305228823855 
-0.00221592846732770066 -0.00000000000000013162 0.84702648838538407983 
-0.00211299569146306335 -0.00000000000000014061 0.85404694593785879242 
-0.00201442768118742033 -0.00000000000000023544 0.86100204687852088803 
-0.00192005974090225123 -0.00000000000000010326 0.86785477635297680887 
-0.00182973226442251571 -0.00000000000000018331 0.87456319244955904590 
-0.00174329064026246543 -0.00000000000000009724 0.88108044250256634111 
-0.00166058515489902699 -0.00000000000000008858 0.88735508349796377026 
-0.00158147089432226769 -0.00000000000000013384 0.89333165921655821595 
-0.00150580764416168131 -0.00000000000000009005 0.89895148002135194520 
-0.00143486817540759161 -0.00000000000000005063 0.90415354973893280466 
-0.00136703461474059072 -0.00000000000000017189 0.90887558624875253166 
-0.00130218444530597857 -0.00000000000000014310 0.91305508691481473971 
-0.00124019922511936866 -0.00000000000000011954 0.91663039591675188333 
-0.00118096449440308776 -0.00000000000000005497 0.91954173794871885139 
-0.00112436968244583146 -0.00000000000000006143 0.92173225102133959918 
-0.00107030801419232533 -0.00000000000000014630 0.92314933087561834579 
-0.00101867641675541343 -0.00000000000000007041 0.92374643399651512610 
-0.00096937542603322234 -0.00000000000000009918 0.92348502545644528539 
-0.00092230909359271871 -0.00000000000000012969 0.92233637060773177030 
-0.00087738489398291866 -0.00000000000000011891 0.92028298687780341059 
-0.00083451363261249098 -0.00000000000000023453 0.91731965999048803440 
-0.00079360935433258749 -0.00000000000000019031 0.91345399173203678522 
-0.00075458925284008097 -0.00000000000000006036 0.90870648963282696364 
-0.00071737358101641032 -0.00000000000000014398 0.90311023725103978244 
-0.00068188556230300290 -0.00000000000000001812 0.89671020080375718475 
-0.00064747826576688338 -0.00000000000000012878 0.88956223661631950161 
-0.00061385014910609866 -0.00000000000000017902 0.88173186655561053282 
-0.00058181296809109385 -0.00000000000000011148 0.87329288707683083715 
-0.00055129684571899413 -0.00000000000000016641 0.86432587313809483565 
-0.00052223466295368197 -0.00000000000000009543 0.85491663208627444170 
-0.00049456196764896228 -0.00000000000000005301 0.84515465549109158871 
-0.00046821688545633665 -0.00000000000000019450 0.83513160939338682009 
-0.00044314003273160867 -0.00000000000000003921 0.82493989596303640699 
-0.00041927443146082337 -0.00000000000000016426 0.81467131242790058465 
-0.00039656542621350138 -0.00000000000000020452 0.80441582653266474612 
-0.00037496060313032929 -0.00000000000000014519 0.79426048183375030920 
-0.00035440971094437322 -0.00000000000000013017 0.78428844089385629790 
-0.00033486458403708262 -0.00000000000000007390 0.77457816992446648641 
-0.00031627906751749478 -0.00000000000000015363 0.76520276462315184318 
-0.00029860894432026170 -0.00000000000000018179 0.75622941382961872403 
-0.00028181186430267541 -0.00000000000000010930 0.74771899513080697375 
-0.00026584727533292632 -0.00000000000000017363 0.73972579462314658194 
-0.00025067635634099862 -0.00000000000000017983 0.73229734162717563528 
-0.00023626195232040264 -0.00000000000000009295 0.72547434818299261217 
-0.00022256851124918182 -0.00000000000000012367 0.71929074257252811897 
-0.00020956202291022821 -0.00000000000000006936 0.71377378585736195316 
-0.00019720995957907918 -0.00000000000000003359 0.70894426043372182900 
-0.00018548121855518801 -0.00000000000000012334 0.70481671983891824862 
-0.00017434606649815201 -0.00000000000000010818 0.70139978945034775482 
-0.00016377608554754656 -0.00000000000000008360 0.69869650825891294055 
-0.00015374412118241912 -0.00000000000000022816 0.69670470253788230330 
-0.00014422423179564044 -0.00000000000000020757 0.69541738293520927172 
-0.00013519163994091374 -0.00000000000000012471 0.69482315726610421880 
-0.00012662268522327667 -0.00000000000000010679 0.69490665205123969272 
-0.00011849477879119831 -0.00000000000000012581 0.69564893661630067268 
-0.00011078635939935056 -0.00000000000000008886 0.69702794432593861984 
-0.00010347685099857198 -0.00000000000000006136 0.69901888625793473508 
-0.00009654662182372297 -0.00000000000000015293 0.70159465332251558234 
-0.00008997694493430515 -0.00000000000000021348 0.70472620349065162593 
-0.00008374996017743149 -0.00000000000000019499 0.70838293140914110335 
-0.00007784863752938935 -0.00000000000000010640 0.71253301824634385220 
-0.00007225674178512355 -0.00000000000000008515 0.71714376012905878266 
-0.00006695879855234556 -0.00000000000000000072 0.72218187399779432134 
-0.00006194006151946240 -0.00000000000000022791 0.72761378012518673764 
-0.00005718648095413275 -0.00000000000000011076 0.73340586091182768946 
-0.00005268467340454358 -0.00000000000000011363 0.73952469589721914200 
-0.00004842189255883086 -0.00000000000000013908 0.74593727320330271979 
-0.00004438600123551954 -0.00000000000000005000 0.75261117786665665541 
-0.00004056544446309328 -0.00000000000000010815 0.75951475771591403507 
-0.00003694922362105310 -0.00000000000000004337 0.76661726761616555414 
-0.00003352687160218755 0.00000000000000001155 0.77388899303515690242 
-0.00003028842896953432 -0.00000000000000021179 0.78130135398992583973 
-0.00002722442106868924 0.00000000000000000312 0.78882699051016291758 
-0.00002432583607101816 -0.00000000000000012611 0.79643983063685364066 
-0.00002158410390797187 -0.00000000000000018275 0.80411510809761110874 
-0.00001899107607590157 -0.00000000000000012237 0.81182904897881125184 
-0.00001653900627147269 -0.00000000000000007747 0.81955796632853827877 
-0.00001422053183575398 -0.00000000000000006088 0.82727701167765521628 
-0.00001202865597469685 -0.00000000000000006105 0.83495890146823670275 
-0.00000995673073058615 -0.00000000000000015737 0.84257282181064796500 
-0.00000799844067432169 -0.00000000000000007310 0.85008362470909937247 
-0.00000614778729545542 -0.00000000000000007054 0.85745136450981362941 
-0.00000439907406136194 -0.00000000000000018940 0.86463117889756446743 
-0.00000274689212387151 -0.00000000000000001204 0.87157348953744007147 
-0.00000118610664371076 -0.00000000000000018475 0.87822447964020899924 
0.00000000000000005446 -0.00000000000000017093 0.88452679632428365952 
0.00000000000000010521 -0.00000000000000013223 0.89042042230222617771 
-0.00000000000000003212 -0.00000000000000011985 0.89584366230474055115 
0.00000000000000012703 -0.00000000000000005145 0.90073419336149529446 
-0.00000000000000001316 -0.00000000000000006727 0.90503013351559791211 
0.00000000000000007056 -0.00000000000000011335 0.90867108995678880223 
0.00000000000000003338 -0.00000000000000010672 0.91159915433102411964 
0.00000000000000012893 -0.00000000000000019076 0.91375981970282327271 
0.00000000000000004176 -0.00000000000000014361 0.91510280002439470248 
0.00000000000000008964 -0.00000000000000000751 0.91558273881579466114 
-0.00000000000000001985 -0.00000000000000016285 0.91515979897370525187 
0.00000000000000014890 -0.00000000000000007919 0.91380013015061845039 
0.00000000000000013374 -0.00000000000000010046 0.91147621397106604046 
0.00000000000000003099 -0.00000000000000015641 0.90816709049668131737 
0.00000000000000005233 -0.00000000000000014723 0.90385847185721412966 
0.00000000000000011170 -0.00000000000000013172 0.89854275088318058540 
-0.00000000000000007296 -0.00000000000000011115 0.89221891396794794638 
0.00000000000000017367 -0.00000000000000003616 0.88489236831638207192 
-0.00000000000000010393 -0.00000000000000013391 0.87657469426745993069 
0.00000000000000007765 0.00000000000000001564 0.86728333357116871305 
-0.00000000000000006974 -0.00000000000000007569 0.85704122441372521113 
0.00000000000000007131 -0.00000000000000011196 0.84587639367323241846 
-0.00000000000000005174 -0.00000000000000008782 0.83382151639890966788 
0.00000000000000014532 -0.00000000000000003860 0.82091345188412678802 
0.00000000000000002278 -0.00000000000000002283 0.80719276498454195501 
0.00000000000000012033 -0.00000000000000008513 0.79270324055036434086 
0.00000000000000004361 -0.00000000000000008483 0.77749139802385935916 
0.00000000000000002226 -0.00000000000000010340 0.76160601242297210067 
0.00000000000000005176 -0.00000000000000007252 0.74509764710832804280 
0.00000000000000004083 -0.00000000000000010069 0.72801820292922270195 
-0.00000000000000015284 -0.00000000000000008482 0.71042048757645825940 
0.00000000000000008150 -0.00000000000000014705 0.69235780824505677167 
-0.00000000000000001795 -0.00000000000000010961 0.67388359003446396400 
0.00000000000000020299 -0.00000000000000007108 0.65505102189218322728 
0.00000000000000010411 0.00000000000064686162 0.63591273134130976707 
0.00000000000000009929 0.00000000721390682070 0.61652048872416453928 
-0.00000000000000006847 0.00000020717801719346 0.59692494124283945744 
0.00000000000000002779 0.00000166741839727468 0.57717537668170126874 
0.00000000000000002078 0.00000750888188134402 0.55731951635467491535 
0.00000000000000006031 0.00002420444768178099 0.53740333652878735649 
-0.00000000000000004479 0.00006275750687553122 0.51747091733188843587 
0.00000000000000006962 0.00013961598586277875 0.49756431795330235968 
0.00000000000000001683 0.00027725110079213745 0.47772347678782861591 
0.00000000000000012352 0.00050438185824094428 0.45798613505235069576 
0.00000000000000002137 0.00085586106640577245 0.43838778231667790974 
0.00000000000000008660 0.00137226054535530707 0.41896162233257805418 
-0.00000000000000004178 0.00209920562027496142 0.39973855751374393064 
0.00000000000000008753 0.00308651444368308664 0.38074832352876769592 
-0.00000000000000016604 0.00438719824806992759 0.36201631900844566392 
0.00000000000000008687 0.00605637584640884852 0.34356632378558638052 
-0.00000000000000000804 0.00815015077170295511 0.32542019920629428054 
0.00000000000000009862 0.01072449327957277800 0.30759765005716649400 
-0.00000000000000010579 0.01383416269619588100 0.29011628716003962092 
0.00000000000000012335 0.01753169875857934004 0.27299169778796367192 
-0.00000000000000009061 0.02186650400103932676 0.25623752260159182725 
0.00000000000000008189 0.02688403311453525096 0.23986553788699521705 
0.00000000000000000445 0.03262509968192973953 0.22388574196025012863 
0.00000000000000005861 0.03912530584550356211 0.20830644468971720729 
0.00000000000000003620 0.04641459631856507256 0.19313435917261972952 
-0.00000000000000001316 0.05451693470182272100 0.17837469468741398715 
-0.00000000000000006212 0.06345009727451098036 0.16403125012670044525 
0.00000000000000012965 0.07322557725149492214 0.15010650719640128425 
-0.00000000000000009138 0.08384859087269228017 0.13660172274508591839 
-0.00000000000000002917 0.09531817555728948343 0.12351701966221584339 
-0.00000000000000001184 0.10762736964831777497 0.11085147585536217485 
0.00000000000000004720 0.12076346293033116130 0.09860321088390099076 
-0.00000000000000000216 0.13470830706439490543 0.08676946989009715061 
0.00000000000000003461 0.14943867529473725542 0.07534670452777880723 
-0.00000000000000000035 0.16492666118948512421 0.06433065064389867360 
0.00000000000000005888 0.18114010673849317845 0.05371640251920717368 
-0.00000000000000008891 0.19804305080421882868 0.04349848352104233873 
0.00000000000000012711 0.21559618967210203433 0.03367091306397003436 
-0.00000000000000001928 0.23375734224512492720 0.02422726981277880873 
0.00000000000000004556 0.25248191324806729119 0.01516075109729608447 
-0.00000000000000000444 0.27172334862964647728 0.00646422853978431428 
0.00000000000000001156 0.29143357815841014480 -0.00186970007653690503 
-0.00000000000000001582 0.31156344098755450744 -0.00984866264481833176 
0.00000000000000002977 0.33206309070455797272 -0.01748046820340218993 
-0.00000000000000012029 0.35288237707605757398 -0.02477306594339095946 
-0.00000000000000002923 0.37397120234154623830 -0.03173450764658032608 
-0.00000000000000007125 0.39527985049792913053 -0.03837291343229760204 
0.00000000000000009506 0.41675928854915977873 -0.04469644068098708317 
-0.00000000000000003808 0.43836143917078379539 -0.05071325599385026472 
0.00000000000000018889 0.46003942465911823456 -0.05643151004134273896 
-0.00000000000000015794 0.48174778240066745694 -0.06185931514861357783 
0.00000000000000013355 0.50344265241163665969 -0.06700472546294319875 
-0.00000000000000012075 0.52508193776289080468 -0.07187571954666407970 
-0.00000000000000001698 0.54662543892569670501 -0.07648018523882636754 
-0.00000000000000012843 0.56803496325149838153 -0.08082590662983947516 
0.00000000000000010329 0.58927441093840615682 -0.08492055299530315571 
-0.00000000000000006763 0.61030983894165080628 -0.08877166953818035888 
0.00000000000000007808 0.63110950435851154161 -0.09238666979215012787 
0.00000000000000006452 0.65164388886369828402 -0.09577282954337038023 
0.00000000000000000498 0.67188570579216855272 -0.09893728213282254602 
-0.00000000000000015577 0.69180989146610327722 -0.10188701500682458001 
0.00000000000000004404 0.71139357968214744776 -0.10462886738909339679 
0.00000000000000002440 0.73061595766238851546 -0.10716952895381927358 
0.00000000000000004274 0.74945763731038805844 -0.10951553938552725798 
-0.00000000000000000753 0.76789949335187446255 -0.11167328871793581746 
0.00000000000000007486 0.78592130199083010123 -0.11364901835057560076 
-0.00000000000000000519 0.80350045228991695545 -0.11544882264848267683 
0.00000000000000004182 0.82061089411362031498 -0.11707865103683076646 
-0.00000000000000008545 0.83722240731157759885 -0.11854431050884037258 
-0.00000000000000005709 0.85330022102608893420 -0.11985146847167309214 
-0.00000000000000003754 0.86880497414306367965 -0.12100565586125044959 
0.00000000000000002127 0.88369298362252268753 -0.12201227046300341939 
-0.00000000000000002167 0.89791677329013763753 -0.12287658038141209549 
0.00000000000000003783 0.91142580892166480400 -0.12360458228617528242 
0.00000000000000010382 0.92416738397684972117 -0.12420094716183181782 
0.00000000000000004484 0.93608760248777100887 -0.12466999364962119690 
-0.00000000000000010541 0.94713241011415105763 -0.12501651118865120260 
0.00000000000000006190 0.95724863031085349885 -0.12524517728924325355 
-0.00000000000000007904 0.96638498584973520078 -0.12536056100509612721 
0.00000000000000001998 0.97449329481868451897 -0.12536712629820867537 
-0.00000000000000009187 0.98153015116206498991 -0.12526923527754654786 
0.00000000000000005129 0.98745890581496620353 -0.12507115129600224201 
-0.00000000000000006352 0.99225160349734209397 -0.12477704189347142705 
0.00000000000000012525 0.99589064481430478182 -0.12439098157690507696 
-0.00000000000000005465 0.99837004378666005522 -0.12391695443094000173 
-0.00000000000000001775 0.99969622348867992478 -0.12335885655523461113 
-0.00000000000000006942 0.99988834330990583599 -0.12272049832689337079 
0.00000000000000006012 0.99897818550743977539 -0.12200560648839785249 
-0.00000000000000003668 0.99700965019981913073 -0.12121782606326786391 
-0.00000000000000009881 0.99403791997921953083 -0.12036072210326213827 
-0.00000000000000009768 0.99012836042128138381 -0.11943637288557730491 
0.00000000000000001123 0.98535522294122990239 -0.11844967486768043230 
-0.00000000000000007719 0.97980021322789589977 -0.11740395786158176750 
0.00000000000000002382 0.97355098307272613933 -0.11630247734883165933 
0.00000000000000007161 0.96669959670031568866 -0.11514841547407700384 
-0.00000000000000002476 0.95934101537239169222 -0.11394488191623346196 
-0.00000000000000001798 0.95157163656842302935 -0.11269491464709956163 
0.00000000000000008289 0.94348791678988030984 -0.11140148058750252991 
0.00000000000000001204 0.93518510022676371030 -0.11006747617122303318 
0.00000000000000004886 0.92675606931359577612 -0.10869572782698681823 
-0.00000000000000007209 0.91829032767143936589 -0.10728899238877065425 
-0.00000000000000003980 0.90987312111773055445 -0.10584995744452885269 
0.00000000000000002323 0.90158469832621468409 -0.10438124163324272176 
0.00000000000000002474 0.89349970930919198064 -0.10288539489992315490 
-0.00000000000000003716 0.88568673713064760555 -0.10136489871784988559 
-0.00000000000000000069 0.87820795608791135667 -0.09982216628696521932 
0.00000000000000004188 0.87111890796142699145 -0.09825954271689657515 
-0.00000000000000004738 0.86446838676488002573 -0.09667930520263691430 
-0.00000000000000002823 0.85829842166934922076 -0.09508366320040831376 
0.00000000000000005857 0.85264434736561911521 -0.09347475861073818726 
-0.00000000000000004182 0.84753495101192932726 -0.09185466597523377075 
0.00000000000000005741 0.84299268503831614741 -0.09022539269302110032 
-0.00000000000000006935 0.83903393539601145434 -0.08858887926225389453 
0.00000000000000009998 0.83566933530889186965 -0.08694699955156841298 
-0.00000000000000007739 0.83290411516639473177 -0.08530156110580515427 
0.00000000000000005517 0.83073847986122462128 -0.08365430548980064274 
-0.00000000000000005293 0.82916800559266967685 -0.08200690867350723945 
0.00000000000000003261 0.82818404890389185624 -0.08036098146120675134 
-0.00000000000000001098 0.82777416147946347724 -0.07871806996707625403 
0.00000000000000004690 0.82792250498162134331 -0.07707965613888884127 
0.00000000000000001493 0.82861026093726175556 -0.07544715833117777992 
-0.00000000000000001443 0.82981603139249793255 -0.07382193192874776655 
-0.00000000000000007049 0.83151622671997971192 -0.07220527002101066738 
-0.00000000000000000176 0.83368543759057822662 -0.07059840412722817593 
-0.00000000000000004217 0.83629678870176060723 -0.06900250497237588043 
0.00000000000000006188 0.83932227238775114486 -0.06741868331300814032 
0.00000000000000003574 0.84273306072051856752 -0.06584799081218008221 
0.00000000000000009270 0.84649979514577911033 -0.06429142096219873925 
-0.00000000000000001338 0.85059285308553733707 -0.06274991005370610109 
0.00000000000000007040 0.85498259127975029248 -0.06122433818936025285 
0.00000000000000003668 0.85963956593662260719 -0.05971553034016326145 
-0.00000000000000000524 0.86453473001625269490 -0.05822425744229839384 
-0.00000000000000003732 0.86963960818857233281 -0.05675123753216624461 
-0.00000000000000002895 0.87492645018665404777 -0.05529713691717381280 
-0.00000000000000003402 0.88036836342341640016 -0.05386257137970100473 
0.00000000000000010019 0.88593942585655405253 -0.05244810741157935469 
-0.00000000000000007684 0.89161478017604511859 -0.05105426347632840284 
-0.00000000000000000783 0.89737071045310279338 -0.04968151129634248986 
0.00000000000000004330 0.90318469522419042583 -0.04833027716217854625 
0.00000000000000006389 0.90903528152331491974 -0.04700094326107061987 
-0.00000000000000011320 0.91490141243625033862 -0.04569384902178894037 
0.00000000000000008524 0.92076127415825315126 -0.04440929247297417670 
-0.00000000000000002090 0.92659100444219733017 -0.04314753161209210208 
0.00000000000000000844 0.93236351060686728509 -0.04190878578220013501 
-0.00000000000000005180 0.93804754285425429039 -0.04069323705375266220 
0.00000000000000004525 0.94360709468908299247 -0.03950103160874160468 
0.00000000000000000814 0.94900115045605748509 -0.03833228112452814751 
0.00000000000000003026 0.95418376520781622574 -0.03718706415480724226 
0.00000000000000005350 0.95910444013582096812 -0.03606542750522529622 
-0.00000000000000000438 0.96370874434262931985 -0.03496738760126506806 
-0.00000000000000007387 0.96793912821250926992 -0.03389406496349819248 
-0.00000000000000003403 0.97173587302215058692 -0.03284449843268265334 
-0.00000000000000003382 0.97503812415785739987 -0.03181833417511687606 
-0.00000000000000008237 0.97778496017345872815 -0.03081548457618285553 
-0.00000000000000006868 0.97991645682910033521 -0.02983583808037920670 
0.00000000000000006175 0.98137477340965895145 -0.02887926047868425924 
0.00000000000000000863 0.98210556856549002802 -0.02794559617401501384 
0.00000000000000004618 0.98205988775371488853 -0.02703466942329982997 
0.00000000000000006083 0.98119620407351104685 -0.02614628555480082162 
0.00000000000000004277 0.97948230761314047932 -0.02528023215943771274 
0.00000000000000002514 0.97689685622022015554 -0.02443628025498014236 
0.00000000000000001914 0.97343048923037500675 -0.02361418542209030649 
-0.00000000000000000949 0.96908646901408845853 -0.02281368891130974852 
0.00000000000000006016 0.96388085894540609377 -0.02203451872019381724 
0.00000000000000002609 0.95784227515718489698 -0.02127639063990403867 
-0.00000000000000001124 0.95101126690246640116 -0.02053900927067589879 
-0.00000000000000009566 0.94343938941144989130 -0.01982149596823544468 
-0.00000000000000001616 0.93518803612256617974 -0.01912330542495137287 
-0.00000000000000003008 0.92632709587614647795 -0.01844499458384393775 
-0.00000000000000000444 0.91693349648536881524 -0.01778622867846722799 
0.00000000000000008907 0.90708969010873818917 -0.01714666656035405273 
0.00000000000000006498 0.89688212884580387207 -0.01652596151054539983 
-0.00000000000000010479 0.88639977155816207510 -0.01592376201899569493 
0.00000000000000001993 0.87573265551064960466 -0.01533971253195907242 
0.00000000000000002960 0.86497055933266842054 -0.01477345416752179688 
-0.00000000000000000742 0.85420177721589674036 -0.01422462539952729609 
0.00000000000000000381 0.84351201831392763619 -0.01369286271018625885 
0.00000000000000002397 0.83298344005506830268 -0.01317780121173313564 
-0.00000000000000005442 0.82269381954176368232 -0.01267907523753824227 
0.00000000000000000285 0.81271586337774615050 -0.01219631890313936651 
-0.00000000000000007649 0.80311665310407920337 -0.01172916663769394026 
-0.00000000000000002502 0.79395722089034037605 -0.01127725368640321128 
-0.00000000000000000734 0.78529224816097664696 -0.01084021658449306133 
0.00000000000000001335 0.77716987837864670574 -0.01041769360336738948 
0.00000000000000006144 0.76963163419404601040 -0.01000932516958820233 
-0.00000000000000016852 0.76271242854431708924 -0.00961475425735324428 
-0.00000000000000007766 0.75644065898132084591 -0.00923362675517278367 
-0.00000000000000009037 0.75083837448232082501 -0.00886559180746516844 
-0.00000000000000004023 0.74592150418891511876 -0.00851030213180475892 
-0.00000000000000005076 0.74170013789022226636 -0.00816741431257403221 
-0.00000000000000000340 0.73817884857309856717 -0.00783658907177921596 
-0.00000000000000010460 0.73535704797031964386 -0.00751749151779959775 
0.00000000000000008815 0.73322936671652516605 -0.00720979137284377073 
-0.00000000000000005088 0.73178605144529407234 -0.00691316317989273867 
0.00000000000000003829 0.73101337190689186230 -0.00662728648990686554 
0.00000000000000000074 0.73089403193689417293 -0.00635184603007649638 
-0.00000000000000004276 0.73140757884612506157 -0.00608653185388990069 
0.00000000000000000450 0.73253080652042690257 -0.00583103947378802324 
-0.00000000000000002024 0.73423814820549959670 -0.00558506997717015622 
-0.00000000000000003397 0.73650205560061987597 -0.00534833012650511464 
0.00000000000000006154 0.73929336149059410310 -0.00512053244429209499 
0.00000000000000003053 0.74258162370471059166 -0.00490139528360584217 
0.00000000000000003399 0.74633544870294454832 -0.00469064288494723015 
-0.00000000000000000675 0.75052279355274753581 -0.00448800542010839403 
-0.00000000000000006964 0.75511124547474117730 -0.00429321902374369280 
0.00000000000000003905 0.76006827850379121703 -0.00410602581332865889 
-0.00000000000000004757 0.76536148713491469753 -0.00392617389816480450 
-0.00000000000000000692 0.77095879710359094261 -0.00375341737807972572 
0.00000000000000003452 0.77682865368973674780 -0.00358751633244762868 
0.00000000000000008588 0.78294018813670274159 -0.00342823680014389372 
-0.00000000000000001200 0.78926336294397847482 -0.00327535075102123371 
0.00000000000000012425 0.79576909692781683248 -0.00312863604948671352 
0.00000000000000007752 0.80242937105064326975 -0.00298787641072857527 
0.00000000000000002906 0.80921731610077185515 -0.00285286135013363860 
0.00000000000000000169 0.81610728318940828352 -0.00272338612640780431 
0.00000000000000008618 0.82307486415808672753 -0.00259925167890036031 
0.00000000000000004526 0.83009658117173323877 -0.00248026455960861838 
-0.00000000000000000702 0.83714898438981655282 -0.00236623686032278423 
0.00000000000000000800 0.84420740666470583946 -0.00225698613535073311 
0.00000000000000008354 0.85124469322156925966 -0.00215233532024584765 
0.00000000000000008038 0.85823010970940816211 -0.00205211264693894602 
0.00000000000000003275 0.86512854173448450190 -0.00195615155565998997 
0.00000000000000000654 0.87190003460470211216 -0.00186429060401646749 
0.00000000000000001350 0.87849967758799529793 -0.00177637337357562132 
0.00000000000000006662 0.88487780776159108420 -0.00169224837428473486 
0.00000000000000009500 0.89098049071312168667 -0.00161176894703854955 
0.00000000000000000164 0.89675022595160314154 -0.00153508132098277854 
0.00000000000000009445 0.90212682154351153674 -0.00146286425397275073 
0.00000000000000008780 0.90704838337631099598 -0.00139380326338536397 
-0.00000000000000001636 0.91145236816013330827 -0.00132777417661944009 
-0.00000000000000002251 0.91527665473760189130 -0.00126465693282824159 
-0.00000000000000001075 0.91846059547755565244 -0.00120433549050648478 
0.00000000000000002606 0.92094607777470349763 -0.00114669773451489153 
-0.00000000000000000095 0.92267890555924225726 -0.00109163538275398051 
0.00000000000000006425 0.92361064539265724793 -0.00103904389268528563 
0.00000000000000007484 0.92370062121377494169 -0.00098882236788515841 
-0.00000000000000007014 0.92291775485999061335 -0.00094087346480281955 
-0.00000000000000003902 0.92124206700382782476 -0.00089510329988387377 
-0.00000000000000005596 0.91866574149014934569 -0.00085142135720557956 
-0.00000000000000008882 0.91519371911625102545 -0.00080974039676226311 
-0.00000000000000003172 0.91084383039101701751 -0.00076997636352659469 
-0.00000000000000000708 0.90564650534277291172 -0.00073204829740130270 
0.00000000000000004852 0.89964411569747637643 -0.00069587824416842434 
-0.00000000000000003312 0.89289001364150244466 -0.00066139116753247368 
0.00000000000000006489 0.88544733422031263181 -0.00062710647559939428 
0.00000000000000007497 0.87738762700663053273 -0.00059444146311754401 
-0.00000000000000005159 0.86878937839295045098 -0.00056332512395758209 
