0.491486 -0.616481 -0.625878 -0.635226 -0.644527 -0.653780 0.435536 1.524901 -0.681253 -1.893090 -0.908374 0.189226 0.879779 0.350961 -2.918923 -0.820769 2.142454 -0.051461 -0.143093 2.406875 1.039851 -0.642748 -0.194538 -1.021316 0.622015 1.018405 0.564011 0.388832 -0.293299 -0.593080 0.603230 -1.498518 -1.460779 0.174168 1.588886 0.429130 -1.891864 0.645628 -0.955256 -0.841629 -0.092195 -1.428399 0.316974 1.153958 0.342976 -0.219858 0.031712 1.000405 -0.229692 2.055162 1.424308 1.085035 0.404038 1.496352 -1.158869 -1.016831 -0.246775 0.155346 -1.874494 0.199560 0.311262 -0.379919 -0.021767 0.912349 -0.230604 -0.265413 0.599126 0.402631 1.091308 -0.666222 -0.388197 -1.872414 -0.738897 -0.776918 -1.010506 -0.974780 0.871327 0.870318 0.989751 -1.381911 -0.873241 0.071923 -1.065221 0.410235 0.804824 0.605145 0.081397 -1.087469 -0.561218 0.188597 0.539851 0.036549 -0.160312 -0.697087 -0.182071 0.865821 0.600017 1.030585 0.692535 0.615161 2.236212 -1.171808 1.517822 -0.405366 0.240341 -0.648640 -1.487877 1.120752 0.758972 -0.124857 0.884495 0.015486 0.260741 0.982112 -0.863734 -1.595245 0.883527 1.362057 0.248813 -2.736578 1.937137 0.844737 -0.930666 1.572607 0.995074 -0.718363 0.477535 1.286712 -0.585212 -1.367133 2.027893 0.641255 1.159314 0.377914 -0.251486 0.795140 -0.104998 -0.951049 -0.296388 0.256365 -1.330357 1.313625 1.168371 0.269314 1.222479 2.652392 -0.895679 -1.416898 -0.341643 2.501479 0.069005 -0.786490 1.124006 0.365120 -1.639187 -1.139089 0.279895 -0.237627 -1.938743 -1.420433 -0.263394 -0.094609 0.077410 0.812733 1.333747 0.413864 1.376081 -0.250474 0.580004 0.397573 0.890952 -0.957824 -0.061395 0.042302 0.833541 0.686876 -0.958328 -0.679805 -1.226077 -1.777362 -1.572324 0.684593 0.307788 -0.487854 -1.515430 0.748957 -0.780239 -1.469540 -2.173116 -0.574459 0.071117 -0.750306 -0.409569 -0.083195 -0.590532 1.272214 0.874194 1.266129 1.722183 0.759780 -0.601322 0.469669 0.313085 -0.798502 -0.184702 0.421848 -0.466685 1.346787 -0.993436 -0.610899 -0.430593 -0.486209 -0.585642 -1.500183 0.288918 -1.248263 -2.376344 -0.155623 -1.038415 0.549947 0.312337 0.239412 0.440652 0.600979 -0.764123 -0.627025 0.796493 -0.420619 -0.538552 2.625488 -3.894019 0.279265 -0.383660 0.946924 -0.229313 -0.439335 -1.638402 1.106389 -0.463707 -0.378439 -0.538972 -0.515080 1.125003 -1.389746 1.245052 -0.495626 1.125881 0.300602 -0.616432 0.353651 0.172476 0.093935 -2.273888 0.419158 -0.463583 -0.523311 -1.126244 0.579710 -1.037696 -0.754214 -0.505214 1.012396 -0.871520 -1.413258 0.497415 -1.185403 1.331549 0.244944 0.859826 -0.707367 0.373409 -0.266519 -1.903900 -0.145467 -0.410511 -0.595770 -1.204679 -0.096107 -0.654409 -1.993247 -0.748809 0.717723 -0.497945 -0.435684 -0.987498 0.171138 -2.029814 -0.834918 -0.872327 -0.322568 0.364041 -1.228930 0.010978 0.230475 0.285433 -1.284124 0.313318 -1.420324 0.244976 0.910972 0.642766 -0.158983 0.089677 -1.225543 -0.972898 0.492339 0.756069 -0.485916 -1.816959 -1.111947 0.848767 -0.951727 -0.222811 -0.442609 -0.444736 1.335151 1.166088 0.246579 -0.476167 -0.254109 -0.195975 1.073566 -0.215195 -1.097377 0.735770 0.749998 -0.052270 -0.015443 -1.584171 0.188506 0.738981 -1.119125 2.049195 0.088298 -1.187809 -1.385930 -1.850098 1.302124 1.201698 -0.864885 0.202476 0.528976 0.176310 0.276912 0.744601 0.957311 -0.255968 1.407980 -0.999109 -0.669159 -0.416416 -0.519638 -0.703551 -0.102265 0.590946 0.537378 -0.837292 -0.343154 1.277896 1.595624 -1.192244 1.982639 0.836166 0.788821 -1.373642 0.454987 0.943281 0.419758 1.721786 -0.188889 -0.721474 1.311708 -1.148925 -0.307285 0.151866 -0.895631 -0.013580 1.523144 -0.862701 0.982607 0.930652 0.781626 0.550283 0.364946 0.290418 -0.576688 -0.429857 0.365156 1.562973 0.426110 -1.062541 0.892032 0.093830 0.065971 -0.076681 -1.040523 -0.908327 -0.725062 0.191372 -0.699212 -0.610429 1.133279 1.674330 0.673053 0.707435 0.727044 0.669084 0.506201 0.253494 -0.765001 0.780807 0.615067 0.505782 -1.015659 0.815418 -0.788332 -0.689434 0.851786 0.424831 1.012247 0.202508 0.422660 0.574508 -1.760754 -0.668545 -0.109217 -1.955695 1.296437 -2.018539 -0.651726 -0.977419 -1.445337 -0.407426 0.073079 -2.348363 -0.376128 -0.229476 -0.786931 -0.588832 1.025855 -1.472796 1.069609 0.160182 -0.629554 -1.955146 -0.782999 -1.474974 -0.736204 -1.561641 0.888753 -0.800680 -1.118242 -0.578325 -0.430839 -1.218564 1.040519 0.544797 -1.149462 -0.688751 0.492645 -1.081875 -0.254316 -1.934301 0.461119 -0.548293 -0.428762 0.539471 0.447595 -0.234120 0.650959 0.453326 0.242106 -0.677387 0.197566 -1.415822 0.286012 -1.344224 -0.466714 1.034871 -0.765817 0.988826 1.603102 0.604062 0.644208 -0.932653 -1.453307 -1.370912 -1.438687 -0.051958 1.062019 0.106116 1.200846 0.690086 -0.553556 -1.086367 0.323044 1.191307 -1.039507 0.601255 -0.023025 0.293530 -0.931372 1.446395 0.857422 -1.859332 1.514132 -0.267909 -0.186281 -1.459327 0.992467 -0.074734 -0.293426 -0.162763 -1.603252 0.256599 -0.472837 0.209263 1.495339 0.338180 1.976973 0.328352 -0.226635 -0.049953 1.205647 2.117053 0.603459 -0.197991 -1.270051 0.742831 -0.105263 -0.442567 0.014314 -0.217582 -0.044750 1.658560 -0.708699 1.722344 0.654728 0.503667 -0.316988 0.383521 0.990301 -0.791062 -0.620417 -2.615084 0.005052 -0.103220 1.778326 -0.127542 -1.391900 0.135287 0.357484 0.180294 -1.631468 -0.916646 -0.094783 2.036386 1.001800 -1.232614 -0.637972 -0.265272 -1.016493 0.239428 -1.059300 0.380873 -0.986428 -1.130275 0.822846 -0.163705 1.181840 0.767971 0.548627 0.649242 0.694891 0.719719 -0.241701 -1.055069 -0.963936 -0.264136 1.050896 -0.744391 -0.492527 1.296189 0.474726 -0.939616 0.672660 -1.067173 0.429133 0.250009 -1.298768 0.439227 1.110202 0.270653 -1.140794 -0.150454 1.319782 0.858381 2.038899 1.612565 -0.672807 2.034612 -1.039106 -0.245706 0.886487 -0.453440 -1.183347 -0.177262 -1.338509 -0.931243 -0.067206 -0.893097 0.483170 2.449289 -0.053390 0.972020 0.415606 0.514550 -1.059141 0.276388 1.283492 -0.027453 0.782012 -0.471240 -0.801404 0.966004 0.590007 -1.228483 -0.497896 -0.394448 1.155025 1.647984 -0.029953 -0.556944 0.455339 -0.934942 -0.202183 0.180548 -0.161902 1.215138 -0.923726 0.292078 1.799892 0.003137 0.663154 -0.298234 0.411341 1.027332 -1.287209 -0.255954 -0.278522 -0.967476 0.574006 1.640682 1.255550 1.160937 1.299333 -0.669434 -1.778175 2.566493 0.133130 0.317977 0.960165 -1.014955 1.745547 0.928532 -0.678809 -1.416789 0.011958 -1.428342 2.067776 0.882657 -1.267186 -0.581383 -0.080181 1.337801 0.038682 1.072365 0.130164 0.263538 0.675519 -0.002459 1.299866 1.520778 -0.294423 -0.135797 0.025883 -0.548951 -0.477263 -3.272373 2.685652 -1.526206 2.830401 -0.862041 -0.449022 -0.487530 -1.747819 1.840405 0.844321 -0.405702 -0.699984 -2.223636 0.120317 -0.702399 -0.280824 0.032205 -0.201128 0.843177 -0.324191 -1.286418 1.148385 -0.689104 -0.119140 -0.306882 -0.326663 -0.099809 -0.609909 -0.328170 -1.003919 -0.918411 0.560921 -1.120610 -0.893793 0.769236 -1.373841 0.395616 0.319791 -1.204730 0.420679 0.977285 -0.592308 0.243677 -1.779902 0.732607 1.142410 1.407033 -0.277823 -0.107995 -1.780892 -1.258737 -0.494870 -0.215298 -1.329430 0.961704 -1.044924 -0.415678 0.703819 -0.134906 -0.278711 0.259297 0.091607 0.074456 0.843550 0.153133 -1.194383 1.207687 0.192738 -0.710464 -1.289586 -0.346156 0.403875 0.239902 -2.545058 -1.266854 0.407524 -1.807120 0.510455 0.923639 0.008376 -0.357646 -0.623001 -0.323316 0.916147 -0.919883 0.443006 0.243054 0.346606 1.253178 -2.309313 -0.344931 1.670691 1.662757 -0.906347 0.706342 -1.156479 0.033456 0.108351 -0.249692 -0.590995 1.461221 -0.077095 0.172280 0.394080 1.839171 0.013594 -0.769282 -1.334084 -0.492529 0.864523 2.586501 0.541156 -0.718722 -0.020024 0.340740 0.851793 -0.475819 -1.491994 -0.597450 -1.056294 0.038202 -0.672306 0.077637 0.776880 1.339233 1.214922 1.792775 0.223040 2.450991 -0.807660 0.670135 -1.001276 0.332980 0.858434 -0.197769 -0.714574 -1.084019 1.412552 0.410758 -1.286524 0.384271 2.344256 -0.169413 -0.642038 0.370886 -1.127436 -0.266142 -0.371045 -1.301826 0.219308 -1.147519 1.414877 -0.192426 1.312953 0.515612 2.501741 0.009686 2.136000 -0.307515 -0.953941 -0.728184 -0.104392 -1.779500 0.448189 -1.130958 0.615960 0.015503 -0.466155 -0.206263 -1.621709 2.131993 -0.653507 1.400483 1.984270 -1.080739 -0.363230 -2.236560 0.161929 -1.053638 -0.018092 0.580027 0.493907 1.672020 -0.280119 -1.340507 -0.342396 0.014160 0.243667 0.491420 -0.308224 0.126656 -0.125661 -0.521468 -1.217434 0.791239 -0.438283 -0.543228 -0.300628 1.380623 0.614743 -2.190221 -0.918697 -0.178758 -0.475865 0.802440 0.445798 -0.220095 0.251543 -0.800704 0.868196 0.387987 -1.443471 0.857935 1.329938 0.468431 -0.083975 -0.562528 0.374615 -0.564882 -0.664479 -0.787866 0.579995 -0.170031 0.030538 0.232233 -0.431856 -0.989819 0.584821 1.657880 1.094029 -1.220128 -0.626908 0.484043 0.356640 0.047693 -0.288540 -0.368610 1.294588 -0.203759 1.420495 -1.746910 -1.370144 -1.064188 -1.877513 0.379803 1.396025 -1.086775 0.266246 -0.045633 0.276695 1.594108 0.939804 -0.227243 0.513060 0.633204 -0.040572 -1.481461 -1.243136 0.237139 -0.119843 1.201400 -0.482334 0.588968 0.162598 -0.403593 0.390065 -0.038104 -0.304008 0.381403 0.328337 -0.293894 -2.258447 1.249378 -1.351314 -0.627674 -1.334109 0.973263 0.848555 -0.684152 1.217390 -1.112675 -0.824700 0.813924 1.712253 -1.073137 0.603288 1.519912 0.660408 -2.933654 -0.081934 0.379120 -2.352288 0.884942 -0.878223 1.529643 -1.312037 1.446298 0.591892 0.950383 0.799284 -0.233685 -0.179852 -0.796840 -0.657772 0.832771 1.092072 0.092664 0.942752 -0.397770 -0.060449 1.455641 -1.243675 -0.501083 -0.539460 -1.194625 -0.878231 -0.721897 0.148891 -0.666589 0.249863 -1.808554 -0.667169 0.265446 -0.670683 0.799339 -0.874153 0.159211 -0.356121 0.521963 -0.991501 0.479177 1.051457 0.020916 0.125096 -0.443605 -0.965237 -1.450923 -0.613409 -0.056248 0.354893 -0.421429 -0.795587 0.429862 1.253957 0.236612 -1.381200 0.256830 0.152543 0.782260 0.620573 -0.952304 -1.306730 -1.587134 -0.577336 -0.085395 -1.204498 -0.307660 0.630638 0.798689 0.212072 -0.400228 -1.002944 -0.207917 -1.830386 1.138685 -0.771546 -0.624654 1.252208 -0.952175 0.871954 -0.735973 -1.443608 0.173863 0.560882 -1.041068 1.286723 1.163963 1.843994 -0.461511 -0.878185 0.035868 -2.394025 -0.063010 -1.879246 -2.519548 -1.158789 1.294950 -2.395143 -1.130452 -1.470357 -0.519052 -0.562766 -0.653139 -0.642322 0.901131 -1.205532 -0.709888 -0.561140 -0.593471 -0.677566 -1.467673 0.135043 1.470026 -0.197157 -0.615848 -1.035340 -0.760985 -0.756471 -0.978190 0.262094 -0.729316 -0.430242 1.398521 -0.173130 -0.752599 -1.318235 0.895722 -0.296649 0.891619 -0.006663 1.479510 -0.641803 -0.274237 -0.188472 -1.892837 1.688817 -1.112754 1.056143 -0.376004 0.602168 0.841872 -0.820107 0.008059 -1.675398 1.196949 0.100793 -0.121053 0.815867 1.462311 -1.419993 -0.313349 -1.074931 0.920838 1.740475 -0.247431 -0.053089 0.296571 1.267541 0.342579 -0.753418 0.561717 0.184497 0.826312 1.427137 1.852868 0.925258 0.940255 -2.614240 1.365513 0.007158 -0.496126 0.097757 0.001779 -1.113231 1.504357 -0.144951 0.444902 0.157280 1.481499 0.472806 0.390359 0.473968 -1.004362 0.560412 1.007795 1.197080 0.161909 0.935707 1.039120 0.966439 1.527915 0.375760 0.845944 -0.064205 0.641115 1.211331 0.138284 0.148550 -0.548189 1.012257 1.471635 0.314332 -0.415518 0.465182 0.495805 0.402162 1.621060 -0.261501 -0.188194 -0.651499 1.670629 1.926848 1.332489 0.462674 -1.503644 -1.575752 0.908438 -1.149865 0.699413 0.997969 -2.565962 1.365707 1.437660 2.563425 -0.901255 -0.088454 0.117784 -0.018160 -0.001532 0.484231 -0.528897 1.119635 0.393129 0.497139 3.271739 -0.220078 -1.460926 -1.007154 -0.914941 -0.282669 0.035944 -0.171331 -0.762900 0.491327 -0.542699 1.050159 -0.693572 -1.453488 2.264780 -0.455977 1.105007 -1.020970 2.136888 -1.581271 -0.646490 0.200666 0.435793 0.210548 -0.491420 -0.916952 0.220453 -0.468833 1.016366 0.523326 0.304361 1.818460 -0.445363 -1.498287 -1.783280 -0.224731 -0.572122 -0.219538 1.132203 -0.337128 0.246061 2.117907 1.057563 -0.667298 0.731272 1.852077 -0.785230 1.543014 -0.753461 -1.246065 -0.138518 1.161543 0.677948 0.323195 -0.941045 -1.093784 0.033192 0.002513 0.354533 -1.399900 -1.100875 0.758741 -0.671076 -1.835124 -0.091017 -0.207278 -0.952700 -0.767824 0.122081 -0.581970 -0.355476 1.258978 -0.463503 0.330132 0.385740 -0.373212 -0.266191 -1.664284 0.728671 -1.708443 -0.084271 -1.419194 -1.193063 0.608970 -0.285460 -0.911012 -0.685141 -0.522122 -0.344554 1.004882 -0.685501 -0.586542 -1.031447 1.408074 1.774721 -0.174354 -0.045118 1.530887 -1.476902 1.032535 -0.793311 -1.643082 0.003729 0.597522 0.476198 -0.309547 -0.023571 0.238127 -0.534287 0.256526 0.645101 0.989124 0.105505 -0.429048 -1.519790 0.290833 0.066875 0.412974 -2.047138 0.538442 -1.496962 -0.338093 1.217379 -0.715614 -1.336560 0.458046 -1.016593 -0.788203 -0.724656 -0.658809 0.057932 0.722398 1.379225 -1.648859 1.061517 -0.379892 -0.436269 0.933803 1.126960 -0.599238 1.095900 -0.273045 1.359198 0.339925 -0.530807 0.893367 0.553998 -2.361363 0.329123 -0.521016 0.884015 -0.805520 -0.652690 -1.080893 0.582214 -1.582601 1.410293 0.222095 0.147853 -1.059103 0.755463 0.664519 1.778391 -1.518378 -0.497991 0.368515 -0.416837 1.014404 1.315854 -1.165597 0.028953 -0.460542 -1.031291 -1.046369 -0.430804 1.536162 -1.044280 -1.301011 -0.659684 0.263121 0.161484 -0.165132 1.070995 -1.310460 -0.789854 -0.340069 -1.111134 -1.802682 -1.709424 0.571895 -1.131991 0.581767 0.015986 0.167388 0.397121 0.334607 0.880965 -0.945910 2.008863 -1.239156 0.423233 -2.344801 -1.248391 -1.766991 -1.789844 1.891946 -0.182214 1.400948 0.240007 -0.119716 0.316766 0.747798 -0.474975 -0.129897 -0.297826 0.577352 -0.807543 -0.433726 -0.984649 -0.194121 1.103558 -0.773311 0.774849 1.486760 0.665966 -1.321133 -1.677653 -0.706276 0.459054 1.360134 0.136575 -0.462837 0.202534 1.351540 0.435596 0.759532 -0.432410 1.641242 1.372953 -0.207311 -0.654392 1.000261 0.751428 1.124084 -0.724901 -2.026369 0.678268 -0.119817 1.205518 -0.656007 0.150564 0.399807 -0.964358 1.515100 1.710365 1.150787 1.755423 0.867137 0.306181 -0.323888 0.409937 0.010431 1.021439 2.115720 -1.128100 -0.496622 0.734515 -0.847751 1.284327 0.621247 0.995987 0.212475 1.261893 -0.040478 -0.003856 -0.771816 0.567716 0.860002 -1.644376 -1.169353 1.456806 -0.225256 0.600384 -0.280324 -0.241745 -0.100301 -0.752611 0.839018 -0.273753 0.451122 -0.925137 0.791010 1.486686 -1.044457 -0.022652 -0.745762 0.782910 -0.859073 0.619389 -1.651605 -0.598025 -0.997706 -1.575990 -0.656842 -1.451600 -1.248721 -0.226331 -0.165663 1.470204 -0.937764 -0.525727 -1.702799 -1.419589 -0.582108 -0.917674 -0.271726 -0.233600 -0.659648 -1.577473 0.386800 -1.952449 1.818941 -0.296845 1.079822 0.377442 0.569464 0.095941 -0.651744 -0.664745 -0.848237 0.409081 2.386636 -1.086536 -1.220642 0.192545 -1.205659 0.325632 0.524757 0.745730 0.584670 0.094232 -0.139452 0.038779 -0.787991 -0.922648 0.308285 1.436402 1.121654 -1.738536 -1.643460 1.151922 -1.488380 -0.137003 0.179905 -0.826902 0.360196 1.384831 -0.117291 -1.516520 0.978964 0.627477 -0.570528 0.937645 0.027129 -1.289092 -0.770152 2.334299 -0.622186 0.004250 1.563657 0.561354 -1.518320 0.459202 0.289757 -0.088049 2.654261 -0.862634 -0.580556 -1.550153 0.376207 0.858988 0.172057 -0.745883 0.904316 -0.437519 -0.742009 0.897819 1.211714 2.158601 0.237154 -0.320577 -1.382993 -0.247912 -0.328711 -0.067465 0.991081 -0.032197 -1.149328 -0.397020 0.625299 -0.370408 0.104214 0.559468 -1.119702 0.765273 0.116490 -0.572168 -0.453749 0.252880 0.811277 0.490654 1.891442 0.933586 0.232730 1.222671 -1.183932 -1.089118 -1.141818 0.897237 -0.279415 -0.281242 -1.347101 -0.036810 -0.538848 -0.506942 1.496507 -1.304602 -0.285075 0.777840 -0.003265 -1.339962 -1.109370 0.483571 -1.342548 -1.206003 0.527384 1.072137 0.269741 -0.261253 -2.193404 -0.235802 4.033529 0.615691 -0.427270 -0.046415 0.404134 -0.097989 -1.698144 1.143003 0.367761 0.892246 0.330935 0.529841 0.051249 0.188135 1.519519 0.091968 -0.200293 -0.079020 0.781900 0.035324 -2.134599 0.502287 0.933146 -0.930200 2.201395 1.041257 -1.150986 0.932403 -1.319680 0.248792 -0.176006 -0.454648 -0.432293 2.584275 1.632400 -1.369222 1.418053 0.510586 0.930523 -0.178494 1.043223 -0.684925 -0.442098 -0.768241 0.063870 -1.593133 -0.670999 1.518844 1.096852 0.277420 0.589523 0.768139 -0.670519 0.867682 1.147898 1.251362 0.951534 -0.449587 0.009359 -0.529970 -1.206108 0.920046 0.990575 -0.825315 0.303646 -0.098242 -1.229986 -0.178821 1.800859 0.319713 -0.623172 -0.945544 0.280302 -0.380700 2.540839 -0.404076 -0.471146 2.065839 1.107160 -0.417689 -0.280173 -0.283869 3.265292 -0.521935 -1.097110 -2.152868 0.589029 0.530373 0.079082 -0.869146 -1.404524 0.647196 0.066215 -0.751572 0.723413 1.150000 -1.149429 -1.438255 -0.283391 -1.053547 -1.754043 0.598416 0.970382 0.762657 -0.454553 -1.357050 0.603953 1.090432 -0.904443 -1.027994 0.508906 -0.904818 -1.217619 0.604449 -1.106258 -1.720141 -0.620889 -0.581353 -1.314735 0.395971 0.382096 0.339747 0.452609 -0.873123 -0.603092 0.894767 -0.225310 0.333048 -1.255028 -1.574417 -1.064315 -0.167223 1.096282 -0.139152 0.626329 1.523893 0.793367 0.930743 -0.676628 -0.669861 2.128300 -0.079538 0.546129 -1.644388 1.105418 -0.336028 -0.357415 -0.386157 -1.339731 0.345885 -0.417147 0.387188 1.845746 -0.677805 -0.962173 0.098940 -0.014618 -0.245259 -0.460945 0.271568 -0.468607 -1.589363 0.407303 0.215662 0.705147 -0.221742 2.717456 0.154839 -0.362062 -0.690805 1.525683 0.214572 -0.126562 -0.184469 -1.548417 -1.018681 0.067329 -1.602112 -0.079240 -0.220088 1.310170 -1.663250 -0.353175 0.658721 0.381135 -1.234220 -0.402562 -0.419670 -1.771653 0.106203 -1.390128 -1.273013 1.158143 0.159030 1.634589 1.422780 0.661420 1.552510 2.027658 0.147401 2.105220 0.082276 -0.678483 0.229479 1.562410 -0.308022 -0.333842 -2.326646 0.370664 0.219348 0.002348 -0.119091 -0.834890 1.763766 -0.546729 1.771952 -0.045392 1.266615 -0.288015 -0.239022 -0.128827 -0.974888 0.562814 0.325855 -0.583092 1.866233 0.152527 -2.520738 1.038317 -2.201485 -0.582982 -0.019475 -0.992121 0.025817 0.922625 -0.355009 -0.103105 0.656205 -0.226076 -0.387181 -0.395134 -1.094495 -0.892865 0.026962 -1.448248 -1.219495 -1.687954 0.080298 1.423467 -0.401660 -0.894196 -1.190533 -1.475392 0.978013 1.108688 0.526000 -1.753461 0.456814 0.761845 -0.842513 1.346746 -0.704604 1.443367 -0.886640 0.899400 -0.563458 -0.539144 -1.832269 -1.677301 -0.126559 0.364783 -0.566446 0.458247 -0.096476 0.989762 0.200207 0.078515 -0.129045 -0.297373 -0.278521 -0.265942 0.474573 -0.325806 -0.216680 -0.079192 -2.237309 0.356724 0.113736 -0.854860 0.741626 -0.809727 0.295241 -0.336503 1.178180 0.121631 0.623245 -0.861789 0.074965 2.277292 1.725733 -0.838586 0.928617 0.148438 0.176568 -0.680149 1.370414 0.102413 -1.403309 0.603025 -2.335948 0.289546 2.312845 -0.658372 1.676278 0.785036 -0.451644 -0.063798 -0.859135 -1.661665 1.108879 -0.152467 -0.171595 0.065929 -0.279803 -0.641969 -1.241476 0.261052 -0.932822 -0.290351 0.564385 0.546621 -0.009318 -1.930840 0.771947 -1.026313 1.027209 2.062249 -0.693051 -0.911635 0.427722 -0.218818 0.364146 -0.119678 0.378002 -0.488729 1.305103 -0.138545 -0.780305 -0.568971 0.867959 -1.003585 -0.240698 -0.216823 1.320427 0.461925 -0.189400 -1.471308 0.281066 -0.615304 1.443055 0.160025 -0.640939 -0.196124 -0.588428 0.353131 0.796599 1.038221 0.010086 2.296171 -1.485833 1.960646 0.175370 -0.083803 -0.921760 0.498652 -1.117111 1.242569 0.296903 -0.416063 -0.198492 -1.451084 -0.436870 0.170389 1.278810 1.626364 -0.088156 0.417453 0.724909 -2.236202 0.264655 -0.283537 0.748931 1.202005 -1.055407 1.130626 -0.206890 0.698469 1.880069 0.312011 0.904220 0.809261 0.168932 -0.365544 1.868852 2.805520 -0.206180 -0.053468 0.948310 0.136945 -0.584903 -1.367600 -1.373508 0.137551 1.506432 0.488776 -0.186432 0.263470 1.303663 1.829555 -0.943399 -0.211347 -0.252402 -2.412372 -0.391190 0.967510 1.261534 -0.426376 0.719581 0.250134 0.372419 1.095259 -0.122057 0.356644 0.238985 -1.163804 -0.755537 0.855449 -1.605598 -1.383826 0.316441 -0.563652 0.299309 -1.108793 -0.753088 -0.505602 -2.596616 0.806001 1.048129 -0.088491 0.875579 -0.453544 0.750463 0.007354 0.601495 1.665151 -0.448883 -2.394247 0.503918 -0.301507 -0.366318 -1.196965 -1.804459 0.033627 -0.651819 3.162589 -0.434630 -0.253836 -1.180933 -1.536776 0.169527 -0.392076 -0.775310 -0.734015 -0.392513 0.142846 0.286320 -1.176691 -0.323186 0.310080 0.110465 0.035215 0.795191 -0.674740 -1.795921 0.873450 -0.229101 -0.500283 0.947595 1.470328 -0.084297 0.263246 -0.974394 -0.828352 -0.181323 -0.496991 -0.722302 -0.657245 -0.307974 0.748899 -0.000802 -0.666622 0.160014 0.040487 1.397634 1.034136 0.116549 -0.418112 1.318734 0.389506 -0.575882 0.820711 -0.948818 -0.040094 0.066360 0.028008 -1.419605 -1.138486 0.576007 0.285203 0.838959 0.734880 -1.438912 -0.815526 0.926390 -1.653343 1.228867 2.162731 0.240374 0.587690 -1.242914 0.739788 -1.745046 -0.359031 0.026242 -1.151836 -0.732399 -0.278315 -0.706632 -0.437726 -1.897853 0.536990 1.609347 1.888581 -1.953455 -0.446976 -0.720336 0.820477 -1.879074 -0.542513 0.031594 -0.678073 2.007413 1.087166 0.961740 0.274328 0.302800 0.969925 0.458332 0.897068 -0.121347 -1.509255 2.675080 -0.803132 -1.427595 -1.136308 0.375031 0.185648 2.175358 -0.424868 -0.140577 0.287882 -0.985106 -0.203115 0.145779 1.187870 -0.620777 -0.300851 0.915734 -0.596052 -1.868906 1.299505 -0.092968 1.889227 -0.628424 1.238573 -0.855096 0.232940 0.960344 1.795568 -1.078231 2.133143 0.428148 0.595334 0.685665 -0.223119 0.411630 -0.612561 -0.614441 1.679211 -0.260491 -1.487557 0.492360 1.175429 0.868710 0.608137 -0.975986 -1.401800 -0.242388 1.970543 0.478835 -1.303541 -0.796800 1.890472 0.155372 0.082348 -0.060662 -0.175998 -0.056318 -2.177958 0.430483 -0.596436 0.849642 -2.177257 1.263254 0.442008 -2.567635 -0.378249 -0.459885 1.560919 -0.342783 -0.281462 0.081399 0.224285 -0.286778 -1.075882 -0.417522 0.926941 0.604445 -0.888407 -1.248197 -0.014102 -0.703159 0.012822 -0.291819 1.022459 -0.575907 -0.901756 0.321088 0.226271 0.780295 0.453526 0.989990 0.161703 0.345735 0.511449 -0.389008 0.299487 -0.676848 2.276945 0.278554 1.043080 -0.329882 -0.825656 0.222184 1.413258 1.502205 -0.488737 -0.983605 -1.829064 0.192354 -0.721979 -0.305858 -1.306467 -1.080820 -0.556428 -0.217541 -1.582317 -0.583897 -0.600286 0.899445 -0.082797 1.479771 -0.839110 0.320786 1.206596 -0.656832 -2.179647 -0.426855 0.941608 -0.140045 0.632321 -0.766419 -1.854884 1.018169 0.707626 0.189413 -0.096195 -0.012571 -1.928107 -0.594951 -0.488747 2.184332 -0.069889 -0.773049 1.225228 -0.221187 0.782418 0.547577 0.098791 -1.540757 0.959446 -1.375310 -1.916454 1.440760 0.256561 0.126521 0.977468 0.943937 0.241776 0.309364 1.033707 -0.170947 1.164128 0.170799 -0.626065 -0.363925 1.998291 -2.917813 -0.175304 2.014230 0.642381 -0.899506 -0.499841 -0.194899 -0.862338 -0.054317 -1.781986 -1.046010 -0.817367 -0.548987 -0.350367 0.467591 0.458154 -0.278249 0.645359 0.576609 1.139995 -1.347196 1.159182 -0.596658 0.189533 -0.568790 0.923758 -1.530069 1.048056 -0.593471 0.991114 0.044382 0.807807 -1.530102 0.327289 -0.494973 1.707983 0.429935 -1.177582 -0.726010 -1.144518 0.595420 0.987577 -1.082542 0.662630 -1.557653 2.090111 -0.494021 0.197718 0.125536 -1.568221 1.113575 0.053138 0.676868 0.608170 -0.245144 -0.658140 0.249923 0.121457 0.618425 -0.466390 0.421548 1.211655 -1.885626 0.914005 0.657621 1.047962 0.789741 0.610336 -0.053597 0.877040 0.052110 -0.058410 1.959188 -0.093542 -0.795433 0.322207 0.328105 1.012506 -0.830737 -2.227919 2.009620 0.741823 0.593321 -0.219398 -0.061765 0.218054 0.975376 0.649602 -0.514718 1.038329 0.251014 -0.439242 -0.995403 1.417211 0.980627 -0.120926 1.517016 -0.191788 0.069192 0.267714 0.851164 0.459487 -0.586724 1.143986 -0.532415 -0.311196 -0.861143 1.476629 -2.761906 -0.006011 -0.750880 0.806219 -0.046274 -0.723338 -1.140237 1.475033 1.158426 0.095939 -1.515927 1.218768 0.298248 -1.253253 -0.277928 -1.164849 -0.265787 -0.934680 -0.035465 -0.800287 0.889876 -1.352377 0.515950 0.439892 1.042262 0.092895 1.617121 1.389237 1.226189 -1.883033 -1.382738 -0.488614 -0.748550 -0.217074 -0.425170 0.479204 0.792409 1.056776 1.125181 -1.409514 0.364843 2.397115 0.066671 2.282232 -0.336743 -0.689144 -0.177244 0.551411 0.116438 -1.895970 -1.598480 0.355161 -1.187933 -0.796991 0.099414 -2.258528 -0.197932 2.131843 0.806853 0.675674 0.797604 0.232673 -0.383610 -0.350487 0.183119 -2.570296 0.073105 -1.444664 0.363571 -1.067713 -0.009428 0.136374 1.597153 0.570494 1.996090 0.167271 -1.169862 -0.773669 -0.726801 1.309673 -0.115725 0.517417 -0.074308 -1.193158 0.246323 -0.622791 0.680315 -0.573250 -0.630735 0.444652 0.514341 1.392814 -1.074397 -0.821743 0.119058 -0.859553 0.670588 0.313247 -0.525343 0.601239 -0.771444 -1.191499 -0.291383 -1.255177 0.263119 0.764570 -0.862930 1.115131 1.167685 1.144144 -1.292972 0.430003 0.978822 0.498795 -1.170382 -0.150795 -1.574279 0.380430 1.030983 1.350463 1.757150 0.096390 -0.236831 0.111180 0.765314 -0.477694 -1.570787 0.119778 1.597801 0.637418 -0.753741 -0.352532 -0.146242 -0.936681 0.559872 1.595213 1.053082 1.102095 0.610466 0.119212 -0.538885 -1.369042 0.025677 0.265317 0.735876 0.733216 -0.575567 1.598979 -0.015600 0.710007 -0.444465 0.079140 -1.557403 0.286366 1.068888 0.051832 0.154986 -0.454075 -1.016021 0.772312 0.414472 0.118245 0.775155 0.777452 -0.628235 -1.041906 -0.782523 -0.098813 1.866482 -0.279323 0.615524 0.098888 0.490335 -1.656930 -0.703895 -0.145631 -2.112883 -0.286237 0.566921 0.543945 0.771905 -2.161654 -0.694345 -0.643246 -0.069555 0.351219 0.728385 -1.552931 0.765843 1.015782 0.859877 -1.010387 -1.726217 -0.695941 0.820124 1.268622 -1.354833 -0.933896 1.156985 0.310410 0.985031 -0.199614 -0.298435 -0.890308 -0.580594 0.290897 0.720130 0.447035 1.964425 0.241822 0.514292 -0.109539 1.404290 -1.383435 -0.623054 0.878328 -0.974376 0.089745 0.994508 -1.414129 -0.973398 0.760692 -0.293435 -1.214412 -0.244077 0.606422 1.268670 -0.352760 -0.098439 -0.008798 -0.755091 0.128995 -1.669055 -0.031097 -0.080960 -0.793487 0.319188 0.310209 0.349286 2.632221 1.326521 -0.365283 0.649215 0.643531 0.442639 0.134536 -0.860240 -0.770185 1.696876 2.186456 0.999454 -0.550767 1.416428 0.547402 -1.156607 0.392756 -0.844305 -1.637009 1.076222 -0.635142 -0.427006 1.338191 -0.343842 2.121984 0.917308 1.559731 1.357367 -0.387946 -0.092610 -0.937265 1.342773 0.033798 -0.979218 1.693025 -0.038956 0.272974 0.423215 0.257776 0.117852 0.710498 1.319998 -0.509590 0.506431 -0.884324 -0.685693 -1.373757 -0.589519 0.818961 0.465483 1.283457 -0.150110 1.027804 -0.387906 1.922917 0.539793 1.617904 1.282263 -1.110706 -0.509471 0.512764 -0.545024 0.041795 -0.276084 -0.239821 -1.541662 0.589522 -0.934159 -2.387592 -1.191731 1.136421 -0.066694 1.485445 0.670299 0.908827 1.909249 -0.571852 -2.058511 0.352771 -0.127420 -1.916462 2.195556 0.307996 -0.983108 2.020230 1.792229 0.583844 0.361999 0.272535 -0.598416 -1.304582 -1.012075 -1.043834 -1.836908 0.030585 1.523016 0.490362 -0.836138 1.248514 -1.104652 -0.138324 0.450507 -0.056609 0.529185 0.502664 -0.060039 -0.545851 -1.076114 0.640670 -1.372285 0.168679 0.039267 -0.714876 0.490866 -2.467440 -0.337027 1.127990 0.559289 -0.397001 -1.038477 1.030727 1.021166 -1.467928 0.317005 -0.769490 1.583121 0.521197 -0.356236 -0.856422 0.984601 -1.382154 1.049628 0.562304 0.272232 -0.403409 0.699225 0.746918 0.584479 -1.853069 0.004574 0.593072 -1.167229 -1.684836 -0.585213 -0.469933 0.409067 1.836953 -0.049411 1.634556 1.671057 1.571477 -0.930470 -0.811888 -0.013163 -1.115334 0.386701 0.147417 0.116664 0.461470 1.486104 -1.632729 0.991796 -0.847613 0.590758 -0.447865 -1.201269 0.723553 0.654289 -1.615841 -1.167710 -1.771064 0.771134 1.117290 -0.779447 0.270983 -0.996904 0.363077 0.399268 0.012353 0.520945 -1.257786 1.463162 -0.190211 0.655542 -0.873587 2.261268 -0.474461 0.312951 -1.164849 -0.201217 -0.169097 -1.004676 -1.671635 0.078648 0.003791 0.849066 -0.010724 0.159200 0.317029 0.375448 -0.470290 -0.555844 -0.622179 0.169602 1.593897 -0.975464 1.644764 -2.239820 -0.876884 0.839480 0.247233 2.206437 -0.619524 -0.913636 -0.212835 1.465443 0.315967 -0.959278 1.336333 -0.427165 0.621089 1.529847 -1.064328 -0.789539 0.110168 1.459254 -0.568037 -0.532513 0.533528 -0.955787 1.662556 -0.182099 -0.322620 -0.235322 -0.906178 0.124775 0.712084 -1.018397 -0.030749 -1.441812 1.208637 1.670310 -0.257676 -0.826701 0.221776 -0.423675 -1.840589 -0.944395 1.174372 0.670266 -0.817557 1.175598 2.686939 -1.354080 -1.619690 0.090211 1.099731 -0.948529 -0.128992 0.711267 0.747388 0.273704 -0.282829 0.386086 -2.096345 -0.326471 -0.435926 -1.376787 -0.344529 1.282547 -1.035251 -0.636226 0.387804 1.005830 -0.101873 -0.882559 0.782191 0.605476 0.561045 -0.186749 -0.196000 1.340979 1.048438 0.077964 1.523272 -0.231961 0.711493 -2.291852 0.286849 0.735853 0.244120 -0.536235 0.404969 -0.148980 -0.606726 -0.432008 -0.524288 -0.015254 1.324319 -1.124908 -0.705132 -0.308654 0.589424 1.844632 0.504117 1.102172 0.341802 1.310459 1.278376 1.625084 -1.014796 -0.165169 -1.576581 0.833355 1.213025 0.038956 0.139618 -1.061938 0.947845 0.114245 0.570637 -0.467603 -0.539806 2.633953 -0.708315 0.309774 0.400693 0.268568 -0.460039 -1.234341 -0.360797 -1.907414 0.588129 -0.225716 1.162649 0.395755 -0.901248 -1.114271 2.027090 2.111624 1.404581 1.822671 0.327102 -0.732982 -0.978543 0.462522 1.201956 -0.334340 -1.013310 0.237402 -2.290454 -0.799024 -0.037129 0.205910 1.282908 -1.132968 1.667102 0.296370 0.490440 1.235186 -0.049747 0.531053 0.325291 0.286116 1.064325 -2.008265 1.458202 1.107500 1.457372 1.219302 -0.392439 -1.424519 -0.239843 -0.294645 -0.617379 0.531050 0.379066 -2.346174 0.051137 0.310180 0.135354 -0.807309 -0.786025 -1.327575 0.455276 1.927606 -1.358495 -1.003455 -0.542338 0.361900 0.210936 -0.061817 0.605306 -0.143643 -1.209865 0.043311 -0.062311 1.194222 0.074886 -1.364367 -0.128235 -0.625484 -2.562236 -0.000237 -1.047543 -0.322494 -0.203778 0.767762 0.922875 -1.184531 -0.649182 0.190903 1.304400 0.833294 -0.894542 -0.473613 -2.222534 0.628582 -2.544107 -0.288117 0.246012 0.802797 -1.178144 0.907640 1.086384 -1.219571 -1.708785 -0.791592 0.432634 -1.318202 -0.325580 -0.798111 -0.439326 -0.740386 -1.255123 -1.156346 -0.429961 -0.459522 1.088288 -1.232338 2.196386 -0.149481 -0.688187 -0.427257 -1.288565 -0.506296 0.768456 -2.466792 0.321267 -1.035253 -1.323443 -1.702282 -0.089004 0.447280 -0.602220 -0.367925 -0.780726 1.001603 -0.504611 -0.512998 -2.018005 1.114178 0.083363 -1.485357 0.371875 -1.112519 -0.786360 0.149660 -0.113808 0.451867 0.266659 1.853895 0.901969 0.854472 -0.571812 0.938379 -2.324217 2.214087 0.734020 -0.388322 -0.076566 -0.534421 1.242593 -0.546793 -0.694631 -0.756791 -0.868870 0.834003 2.024798 1.593263 -0.710420 -0.952402 -1.225037 -0.480317 1.974239 -0.493542 -2.040487 0.896370 1.130821 0.392326 0.250879 -0.008898 -0.188344 1.229279 0.241994 0.789425 0.621473 -0.079397 0.780869 -0.177194 1.155354 0.742187 -0.976361 0.037918 1.477863 0.421108 0.284918 -0.532221 1.760230 1.375739 -0.365457 1.200207 0.883453 0.727039 0.634266 -1.037036 0.538680 1.015936 0.718546 -1.646579 1.571252 -1.532446 0.226859 -0.562401 0.000726 -0.126775 0.568068 -0.141022 0.681185 -0.099515 0.740965 0.498956 1.746411 0.597526 1.222963 1.119744 -1.892218 1.448942 0.272111 -0.838415 -0.077751 0.540979 0.528766 0.525149 -0.131058 0.686098 -0.961842 -2.202565 0.986740 1.883988 -0.863284 0.184961 0.448830 -0.095719 0.055831 -0.090617 1.737926 1.823977 0.841703 0.297763 -0.202506 0.780935 0.504898 0.016716 0.402487 0.916537 0.931597 -2.589373 0.347036 -0.477954 0.742873 -0.365251 1.673197 -0.681038 -0.206886 0.269044 0.198472 0.631501 -0.451796 -1.214301 0.556150 -0.215339 -1.500117 0.252075 -2.052144 -0.967535 1.355942 -0.518631 1.062043 -0.423962 0.705426 -0.653027 -1.289720 1.795167 1.009555 0.658355 -0.722843 0.439271 -0.762960 -2.064998 1.827426 0.207042 0.606767 -0.724188 -0.946571 -0.335903 -0.252102 1.056220 -1.054822 -0.302348 0.008441 -0.518711 0.549202 -0.321619 -3.249774 1.004020 0.642334 -0.383485 -0.985268 0.128150 1.822287 0.080303 0.870599 -0.825431 -0.019338 -1.324740 -1.165347 0.345131 -0.014028 -0.749037 0.338331 -0.261300 -0.727337 0.226266 0.812313 -0.313038 -0.310509 0.611846 0.589749 -1.631778 -0.466819 1.015708 0.583734 0.400964 0.390740 -0.983209 -0.525557 0.434787 0.134246 -0.963033 -2.345387 -1.028003 2.169632 0.197647 0.912241 0.160762 -1.066321 -0.508839 0.273159 2.781858 -0.453677 -0.351574 -0.558816 0.580869 -0.095995 -0.306202 -1.290459 1.693085 0.628269 0.692255 0.806313 0.854331 0.144327 1.616681 -1.103259 -0.357099 1.096470 -0.645612 -0.468490 -0.296351 -0.916606 -1.422002 -1.195984 0.397728 -0.665284 0.206622 -1.832314 0.192754 -1.128467 1.251589 0.864881 0.479227 0.546181 -0.034063 0.239291 -1.221719 0.295412 1.445537 -0.639445 -1.147645 0.049334 -1.982326 -0.773150 -0.052430 1.070240 -0.084562 0.101386 0.514202 1.410958 -0.200439 2.009507 -0.841444 1.401878 -0.302542 0.501089 -0.244360 -0.253637 -0.161825 0.508555 0.312638 -0.484632 1.135707 -0.428751 -0.279692 0.596373 0.346101 -1.274835 1.905105 -2.166792 -0.220060 -0.819272 -0.023967 1.378793 1.681020 -0.000046 1.026187 -1.072232 2.325430 1.624558 -0.514533 -0.495657 -0.356080 -0.112090 -1.540032 0.082304 -1.601527 0.023594 -2.054755 -0.854894 -0.615091 -0.560472 0.323133 -0.541072 -0.377113 0.622835 1.306315 1.119299 -0.619645 -0.371406 0.518201 0.326959 -1.374307 0.223173 0.839242 0.695007 1.490331 -0.141099 0.794689 -1.453150 1.801499 1.209882 1.334768 -1.092169 -2.139231 0.127181 0.048503 -1.801094 -1.767171 -0.900927 -1.358558 1.338275 0.440912 0.373705 -0.972533 -1.259426 0.583186 -0.595454 -0.058522 -0.975600 -0.033783 0.264468 -0.372967 -0.911643 2.167517 0.101223 0.794821 -0.748790 0.247165 -0.421812 -1.145382 -0.311398 2.390887 -0.478263 1.296027 -0.128570 -0.568032 0.466804 0.186710 -1.667890 1.297181 -0.532393 -0.282228 -1.477809 -0.279366 -0.959674 -1.724955 0.676166 1.754679 -0.873614 1.174235 -0.930679 0.959800 1.506966 -1.308342 0.217250 0.005260 0.800524 -0.692557 0.189766 -0.482872 -1.944057 -0.769506 0.659684 0.942830 0.705971 -1.440213 0.729692 0.822331 2.118050 -1.473870 -2.153880 1.283726 -0.542050 1.736415 0.558688 1.162512 -0.156707 -2.032276 0.790165 -0.541052 0.571907 -1.235528 -0.317074 -0.646708 -0.289293 -0.788868 -0.072059 1.188720 2.314632 -1.799272 0.382277 -0.159690 0.631845 -1.130630 -1.263993 1.002484 0.682475 -0.019483 0.259055 0.333801 1.198045 -1.280913 0.352640 0.781702 1.904530 -0.611095 -0.324099 -0.006888 -0.695579 0.874999 1.139466 1.333853 -0.327436 0.103961 -0.264961 0.533044 0.243880 0.580167 2.475134 -0.214182 -0.552424 0.714233 0.600873 -1.164971 -0.489685 0.097541 -0.831652 0.195463 -0.383432 -0.239358 -0.088377 -0.776387 -0.666176 0.788479 -1.697809 0.897031 0.024792 0.075874 -0.519500 -1.112908 -0.111755 0.475649 -1.277244 -0.318026 -0.268018 1.409515 -1.753042 -1.312941 -0.256957 0.343460 0.895679 1.326490 -1.134070 0.185854 -0.244703 0.595475 -0.572547 -0.064468 -0.172635 0.625636 2.203272 -1.084102 -2.193972 0.675104 -0.421654 1.584684 0.195036 -0.633205 0.630190 -0.605547 -0.249086 0.308554 -0.155780 1.192368 -0.607533 -0.242647 -0.680958 0.302370 0.959712 0.472029 0.251318 0.271580 -0.320028 -1.535671 0.257820 0.719220 0.239492 1.626367 -0.074456 1.030430 0.424904 1.183865 0.070303 -0.245918 0.451026 -0.496731 -0.366601 -0.209777 0.552066 0.453068 -1.137981 -0.809724 2.332614 0.288679 -1.261705 0.588723 -0.978208 -0.733535 -0.617796 1.489463 0.211764 0.948328 -0.335180 0.715534 -0.734516 -2.851885 1.947364 -2.639275 0.583767 -1.655255 0.235963 0.572178 -0.234559 -1.488002 -1.301385 -0.429815 0.268148 -0.081617 -0.061464 0.084518 -1.067068 -0.591044 0.231362 -0.141289 -0.378342 0.358083 -0.357373 0.659157 -1.492814 -1.128041 0.466029 3.015930 0.000022 2.267787 -0.002969 -0.318612 1.537636 -1.944739 -0.551784 2.031968 -1.588164 -0.335640 0.004984 -0.449623 -1.713802 -1.486979 -0.689786 -0.259666 1.132581 1.754407 0.150954 1.376336 0.791484 -0.035438 -0.978983 1.745301 -0.461176 -2.001076 0.088986 0.196479 -0.521834 1.090080 1.500659 1.870253 0.193977 -0.223550 -0.016181 -0.133356 -1.064260 -0.486983 -0.689864 0.875536 1.606737 0.788836 0.191791 -0.320974 0.578063 0.276839 0.575410 -1.270593 1.143059 0.371647 1.207589 1.140372 -2.002333 -0.033245 1.374099 -0.658250 0.771140 -0.216599 0.016564 -1.175512 1.414577 0.300419 -0.803927 2.332590 -1.076849 0.744285 0.093908 0.038210 0.757016 1.866701 0.006837 1.518957 -0.806010 0.323462 0.263522 -1.463712 0.832505 1.144832 0.123009 -0.392645 -0.056080 2.399458 1.095917 0.052449 -0.716236 -0.596050 1.822551 -0.132382 -2.487692 -0.529275 0.317207 0.280870 0.161663 1.554551 -0.143895 -0.555074 0.637252 0.383679 -1.466228 0.157587 0.735932 -1.723569 -0.461030 0.548385 -0.356226 -1.782879 0.816055 1.292679 -0.581863 -1.010379 0.115932 0.093333 -0.697305 -1.393273 0.194779 2.244379 -1.141494 0.080134 1.026012 -0.616040 -0.385814 0.295888 -0.058970 -0.219255 0.664576 -0.053464 0.030771 -1.301354 -1.735862 -2.277035 0.886626 -1.111798 1.184696 -1.106578 2.488501 -1.284625 -0.079135 -1.524188 1.354799 -0.741056 -0.081676 0.763146 0.812769 0.251381 -0.972947 1.459142 0.976029 0.506103 -1.075561 -0.094660 -1.395043 -1.797289 -0.767895 0.515048 -0.626354 1.087501 1.150328 0.510298 0.779336 -1.456985 0.990047 -0.301802 0.154668 -0.730368 0.901967 -0.509655 -0.944125 0.165964 -0.756794 0.678259 0.422215 -0.497949 2.041178 0.300797 -0.254822 -1.581890 -1.362363 0.965411 -1.181860 -1.142900 -0.128238 0.065818 -0.335788 0.629286 -1.784354 0.717919 0.491445 1.039563 -0.691183 0.299075 0.494501 -1.802978 1.573419 1.015250 -0.238121 -0.041159 -0.620321 -0.285756 -0.242490 -0.339203 -1.279946 0.297953 0.316740 1.095370 0.275135 0.398060 -0.260427 -0.923788 0.695242 0.253489 1.455673 0.416975 0.538600 -1.452836 -0.183483 -0.178877 0.195817 -0.215176 1.196233 -1.166901 0.984805 1.113536 -1.375182 0.364071 1.617076 0.299558 1.006055 -0.575316 0.568908 -0.178493 -0.906828 -0.124562 0.294928 0.111515 0.927203 0.907418 1.757022 0.090081 -0.511447 -0.410513 -0.583895 0.777360 -0.437215 0.332741 -1.829560 -0.385295 -0.075346 -1.011227 0.512943 -1.370018 0.431239 -0.236148 1.462493 -0.196845 -0.161962 -1.527547 1.004962 1.401989 0.117443 -0.682151 0.424926 -0.200643 -0.033909 1.372591 1.577684 0.351027 0.519832 0.716586 1.474037 -2.659564 -0.686619 -0.060513 0.311097 -1.387544 0.462984 0.581254 0.709774 0.094666 -0.637671 1.662983 1.957076 -0.079466 0.804053 -0.781834 -1.172688 1.446793 0.844319 0.329564 0.992695 -1.252917 2.515449 -0.184419 -0.188794 -0.266047 -1.244128 -0.207584 -1.063880 -0.903771 0.075760 0.831602 -0.691574 1.128515 -0.503613 -0.317363 -0.201508 1.262089 0.839584 -0.182210 0.843622 -0.665500 -1.160127 -0.084073 -1.144223 -0.432036 1.032121 0.843635 0.915562 0.330131 -0.916051 -0.601518 -1.441733 0.010615 -1.239455 -1.202886 -0.782070 1.960654 -0.510217 1.334715 0.413766 -0.452520 -0.287432 1.231048 -1.572594 -0.616077 -1.247595 -0.973571 0.760099 1.318142 -0.522365 1.306929 0.555315 0.678732 -0.191576 -1.824091 -0.084628 1.214793 0.777138 -0.144363 0.105500 -0.277724 0.018415 -1.574867 -0.025598 1.919181 -0.233213 0.033872 0.408872 -0.141047 0.084007 -0.846863 -0.983259 