-4.094797 -4.080526 -4.066327 -4.052200 -4.038146 -4.024164 -4.010255 -3.996417 -3.982651 -3.968957 -3.955335 -3.941784 -3.928305 -3.914897 -3.901560 -3.888294 -3.875100 -3.861976 -3.848922 -3.835940 -3.823027 -3.810186 -3.797414 -3.784713 -3.772081 -3.759520 -3.747028 -3.734606 -3.722254 -3.709971 -3.697757 -3.685612 -3.673537 -3.661531 -3.649593 -3.637724 -3.625924 -3.614192 -3.602529 -3.590933 -3.579407 -3.567948 -3.556557 -3.545233 -3.533978 -3.522790 -3.511669 -3.500616 -3.489630 -3.478711 -3.467859 -3.457074 -3.446355 -3.435704 -3.425118 -3.414600 -3.404147 -3.393761 -3.383440 -3.373186 -3.362997 -3.352874 -3.342817 -3.332825 -3.322898 -3.313037 -3.303240 -3.293509 -3.283843 -3.274241 -3.264704 -3.255231 -3.245823 -3.236479 -3.227200 -3.217984 -3.208832 -3.199744 -3.190720 -3.181759 -3.172862 -3.164028 -3.155258 -3.146550 -3.137906 -3.129324 -3.120805 -3.112349 -3.103955 -3.095624 -3.087355 -3.079148 -3.071003 -3.062920 -3.054899 -3.046940 -3.039042 -3.031206 -3.023431 -3.015717 -3.008065 -3.000473 -2.992943 -2.985473 -2.978063 -2.970715 -2.963426 -2.956198 -2.949030 -2.941923 -2.934875 -2.927887 -2.920959 -2.914090 -2.907281 -2.900531 -2.893840 -2.887209 -2.880636 -2.874123 -2.867668 -2.861272 -2.854934 -2.848655 -2.842434 -2.836271 -2.830167 -2.824120 -2.818131 -2.812200 -2.806327 -2.800511 -2.794752 -2.789051 -2.783407 -2.777819 -2.772289 -2.766815 -2.761399 -2.756038 -2.750734 -2.745487 -2.740295 -2.735160 -2.730081 -2.725057 -2.720090 -2.715178 -2.710321 -2.705520 -2.700774 -2.696083 -2.691447 -2.686866 -2.682340 -2.677868 -2.673452 -2.669089 -2.664781 -2.660527 -2.656327 -2.652181 -2.648089 -2.644051 -2.640067 -2.636135 -2.632258 -2.628433 -2.624662 -2.620944 -2.617278 -2.613666 -2.610106 -2.606599 -2.603144 -2.599741 -2.596391 -2.593093 -2.589847 -2.586652 -2.583510 -2.580419 -2.577379 -2.574391 -2.571454 -2.568569 -2.565734 -2.562950 -2.560218 -2.557536 -2.554904 -2.552323 -2.549792 -2.547312 -2.544881 -2.542501 -2.540170 -2.537889 -2.535658 -2.533476 -2.531344 -2.529261 -2.527228 -2.525243 -2.523307 -2.521420 -2.519582 -2.517792 -2.516051 -2.514358 -2.512713 -2.511117 -2.509568 -2.508068 -2.506615 -2.505210 -2.503852 -2.502542 -2.501279 -2.500063 -2.498894 -2.497772 -2.496696 -2.495666 -2.494682 -2.493743 -2.492850 -2.492000 -2.491196 -2.490435 -2.489718 -2.489045 -2.488415 -2.487827 -2.487282 -2.486779 -2.486318 -2.485898 -2.485520 -2.485182 -2.484885 -2.484628 -2.484411 -2.484233 -2.484095 -2.483996 -2.483935 -2.483912 -2.483927 -2.483980 -2.484071 -2.484198 -2.484361 -2.484562 -2.484798 -2.485069 -2.485377 -2.485719 -2.486096 -2.486507 -2.486952 -2.487431 -2.487943 -2.488489 -2.489067 -2.489678 -2.490320 -2.490995 -2.491701 -2.492438 -2.493206 -2.494005 -2.494833 -2.495692 -2.496580 -2.497497 -2.498443 -2.499418 -2.500421 -2.501452 -2.502510 -2.503596 -2.504708 -2.505848 -2.507013 -2.508205 -2.509422 -2.510664 -2.511932 -2.513224 -2.514540 -2.515881 -2.517245 -2.518633 -2.520044 -2.521477 -2.522933 -2.524411 -2.525911 -2.527432 -2.528974 -2.530537 -2.532121 -2.533725 -2.535348 -2.536991 -2.538653 -2.540335 -2.542034 -2.543752 -2.545488 -2.547241 -2.549012 -2.550799 -2.552604 -2.554424 -2.556260 -2.558112 -2.559980 -2.561862 -2.563759 -2.565670 -2.567595 -2.569534 -2.571487 -2.573452 -2.575430 -2.577421 -2.579424 -2.581438 -2.583464 -2.585501 -2.587548 -2.589606 -2.591675 -2.593753 -2.595840 -2.597937 -2.600043 -2.602157 -2.604279 -2.606410 -2.608547 -2.610692 -2.612844 -2.615003 -2.617167 -2.619338 -2.621514 -2.623696 -2.625883 -2.628074 -2.630269 -2.632469 -2.634672 -2.636879 -2.639088 -2.641300 -2.643515 -2.645732 -2.647950 -2.650170 -2.652391 -2.654613 -2.656835 -2.659057 -2.661280 -2.663501 -2.665722 -2.667941 -2.670159 -2.672376 -2.674590 -2.676801 -2.679010 -2.681216 -2.683418 -2.685617 -2.687811 -2.690001 -2.692187 -2.694367 -2.696542 -2.698711 -2.700874 -2.703031 -2.705182 -2.707325 -2.709461 -2.711589 -2.713709 -2.715821 -2.717925 -2.720019 -2.722104 -2.724180 -2.726246 -2.728301 -2.730346 -2.732381 -2.734404 -2.736415 -2.738415 -2.740402 -2.742377 -2.744339 -2.746288 -2.748224 -2.750146 -2.752053 -2.753947 -2.755825 -2.757689 -2.759537 -2.761369 -2.763186 -2.764986 -2.766769 -2.768535 -2.770284 -2.772016 -2.773729 -2.775424 -2.777100 -2.778758 -2.780396 -2.782015 -2.783614 -2.785192 -2.786750 -2.788287 -2.789803 -2.791297 -2.792770 -2.794220 -2.795648 -2.797053 -2.798434 -2.799793 -2.801127 -2.802438 -2.803724 -2.804985 -2.806221 -2.807432 -2.808617 -2.809776 -2.810908 -2.812014 -2.813093 -2.814145 -2.815168 -2.816164 -2.817132 -2.818071 -2.818981 -2.819861 -2.820712 -2.821534 -2.822324 -2.823085 -2.823814 -2.824512 -2.825179 -2.825814 -2.826416 -2.826986 -2.827523 -2.828027 -2.828498 -2.828935 -2.829337 -2.829706 -2.830039 -2.830337 -2.830600 -2.830827 -2.831018 -2.831173 -2.831291 -2.831372 -2.831415 -2.831421 -2.831389 -2.831318 -2.831209 -2.831061 -2.830874 -2.830646 -2.830379 -2.830072 -2.829724 -2.829335 -2.828905 -2.828434 -2.827920 -2.827365 -2.826766 -2.826125 -2.825441 -2.824713 -2.823942 -2.823126 -2.822266 -2.821361 -2.820410 -2.819415 -2.818374 -2.817286 -2.816152 -2.814972 -2.813744 -2.812469 -2.811146 -2.809776 -2.808356 -2.806889 -2.805372 -2.803806 -2.802190 -2.800524 -2.798808 -2.797042 -2.795224 -2.793356 -2.791435 -2.789463 -2.787438 -2.785361 -2.783231 -2.781048 -2.778812 -2.776522 -2.774178 -2.771779 -2.769326 -2.766819 -2.764256 -2.761638 -2.758965 -2.756236 -2.753450 -2.750608 -2.747710 -2.744755 -2.741742 -2.738673 -2.735545 -2.732359 -2.729116 -2.725813 -2.722452 -2.719032 -2.715553 -2.712014 -2.708415 -2.704756 -2.701037 -2.697257 -2.693416 -2.689514 -2.685551 -2.681525 -2.677438 -2.673289 -2.669077 -2.664802 -2.660464 -2.656063 -2.651598 -2.647070 -2.642477 -2.637820 -2.633098 -2.628311 -2.623459 -2.618542 -2.613559 -2.608510 -2.603394 -2.598212 -2.592964 -2.587648 -2.582265 -2.576814 -2.571295 -2.565709 -2.560054 -2.554331 -2.548540 -2.542681 -2.536754 -2.530759 -2.524695 -2.518563 -2.512363 -2.506095 -2.499758 -2.493353 -2.486880 -2.480338 -2.473728 -2.467049 -2.460302 -2.453486 -2.446604 -2.439657 -2.432650 -2.425586 -2.418468 -2.411299 -2.404083 -2.396822 -2.389520 -2.382181 -2.374807 -2.367401 -2.359967 -2.352509 -2.345029 -2.337530 -2.330016 -2.322491 -2.314956 -2.307416 -2.299874 -2.292333 -2.284796 -2.277266 -2.269747 -2.262242 -2.254754 -2.247287 -2.239843 -2.232426 -2.225039 -2.217685 -2.210368 -2.203090 -2.195851 -2.188650 -2.181487 -2.174360 -2.167269 -2.160213 -2.153192 -2.146204 -2.139249 -2.132326 -2.125434 -2.118572 -2.111740 -2.104938 -2.098163 -2.091415 -2.084695 -2.078000 -2.071330 -2.064686 -2.058067 -2.051475 -2.044908 -2.038367 -2.031853 -2.025365 -2.018904 -2.012470 -2.006062 -1.999682 -1.993330 -1.987005 -1.980708 -1.974438 -1.968197 -1.961984 -1.955800 -1.949644 -1.943517 -1.937419 -1.931350 -1.925311 -1.919301 -1.913321 -1.907370 -1.901450 -1.895560 -1.889701 -1.883872 -1.878074 -1.872307 -1.866571 -1.860866 -1.855193 -1.849551 -1.843942 -1.838364 -1.832818 -1.827305 -1.821825 -1.816377 -1.810963 -1.805581 -1.800233 -1.794918 -1.789636 -1.784389 -1.779176 -1.773996 -1.768851 -1.763741 -1.758665 -1.753624 -1.748619 -1.743648 -1.738713 -1.733814 -1.728950 -1.724122 -1.719331 -1.714576 -1.709857 -1.705175 -1.700529 -1.695921 -1.691350 -1.686817 -1.682321 -1.677862 -1.673442 -1.669060 -1.664716 -1.660410 -1.656143 -1.651915 -1.647726 -1.643576 -1.639465 -1.635394 -1.631363 -1.627371 -1.623420 -1.619509 -1.615638 -1.611808 -1.608018 -1.604270 -1.600562 -1.596896 -1.593272 -1.589689 -1.586148 -1.582649 -1.579192 -1.575777 -1.572406 -1.569076 -1.565790 -1.562547 -1.559347 -1.556191 -1.553078 -1.550009 -1.546984 -1.544003 -1.541066 -1.538174 -1.535327 -1.532525 -1.529767 -1.527055 -1.524388 -1.521767 -1.519192 -1.516662 -1.514179 -1.511742 -1.509352 -1.507008 -1.504711 -1.502461 -1.500258 -1.498102 -1.495994 -1.493934 -1.491922 -1.489958 -1.488042 -1.486174 -1.484355 -1.482585 -1.480864 -1.479192 -1.477569 -1.475996 -1.474473 -1.472999 -1.471576 -1.470202 -1.468880 -1.467607 -1.466386 -1.465215 -1.464095 -1.463027 -1.462010 -1.461045 -1.460131 -1.459269 -1.458460 -1.457702 -1.456996 -1.456343 -1.455743 -1.455195 -1.454700 -1.454258 -1.453869 -1.453533 -1.453251 -1.453022 -1.452846 -1.452722 -1.452648 -1.452624 -1.452648 -1.452719 -1.452837 -1.453000 -1.453207 -1.453458 -1.453750 -1.454083 -1.454457 -1.454869 -1.455318 -1.455805 -1.456327 -1.456884 -1.457474 -1.458097 -1.458751 -1.459436 -1.460149 -1.460889 -1.461652 -1.462437 -1.463241 -1.464061 -1.464895 -1.465741 -1.466596 -1.467458 -1.468323 -1.469191 -1.470057 -1.470921 -1.471778 -1.472627 -1.473466 -1.474292 -1.475101 -1.475893 -1.476664 -1.477413 -1.478136 -1.478830 -1.479495 -1.480126 -1.480722 -1.481281 -1.481799 -1.482274 -1.482704 -1.483086 -1.483418 -1.483698 -1.483922 -1.484089 -1.484196 -1.484240 -1.484219 -1.484131 -1.483973 -1.483742 -1.483437 -1.483054 -1.482592 -1.482047 -1.481418 -1.480701 -1.479895 -1.478996 -1.478003 -1.476913 -1.475723 -1.474432 -1.473036 -1.471532 -1.469920 -1.468195 -1.466357 -1.464401 -1.462326 -1.460130 -1.457809 -1.455361 -1.452784 -1.450076 -1.447234 -1.444256 -1.441141 -1.437886 -1.434489 -1.430949 -1.427264 -1.423432 -1.419450 -1.415318 -1.411032 -1.406592 -1.401994 -1.397237 -1.392316 -1.387230 -1.381975 -1.376549 -1.370949 -1.365172 -1.359215 -1.353076 -1.346751 -1.340239 -1.333535 -1.326638 -1.319544 -1.312252 -1.304757 -1.297057 -1.289149 -1.281031 -1.272700 -1.264153 -1.255387 -1.246399 -1.237186 -1.227747 -1.218077 -1.208174 -1.198039 -1.187682 -1.177116 -1.166352 -1.155404 -1.144284 -1.133004 -1.121577 -1.110016 -1.098333 -1.086541 -1.074651 -1.062677 -1.050631 -1.038526 -1.026374 -1.014188 -1.001979 -0.989762 -0.977547 -0.965348 -0.953178 -0.941048 -0.928976 -0.916986 -0.905101 -0.893345 -0.881742 -0.870317 -0.859092 -0.848092 -0.837340 -0.826861 -0.816678 -0.806816 -0.797297 -0.788146 -0.779386 -0.771042 -0.763138 -0.755697 -0.748743 -0.742299 -0.736391 -0.731042 -0.726287 -0.722167 -0.718721 -0.716381 -0.716860 -0.721618 -0.730646 -0.743678 -0.760448 -0.780689 -0.804135 -0.830519 -0.859575 -0.891037 -0.924637 -0.960110 -0.997189 -1.035608 -1.075100 -1.115398 -1.156237 -1.197349 -1.238469 -1.279329 -1.319664 -1.359207 -1.397691 -1.434850 -1.470418 -1.504125 -1.535879 -1.565933 -1.594573 -1.622083 -1.648749 -1.674856 -1.700689 -1.726534 -1.752629 -1.778993 -1.805579 -1.832344 -1.859240 -1.886223 -1.913247 -1.940267 -1.967236 -1.994111 -2.020844 -2.047392 -2.073707 -2.099745 -2.125461 -2.150808 -2.175741 -2.200215 -2.224185 -2.247604 -2.270427 -2.292610 -2.314105 -2.334869 -2.354855 -2.374017 -2.392311 -2.409691 -2.426116 -2.441584 -2.456119 -2.469743 -2.482479 -2.494351 -2.505380 -2.515591 -2.525005 -2.533646 -2.541536 -2.548699 -2.555157 -2.560933 -2.566051 -2.570532 -2.574401 -2.577679 -2.580389 -2.582544 -2.584156 -2.585236 -2.585793 -2.585840 -2.585386 -2.584444 -2.583023 -2.581135 -2.578790 -2.575999 -2.572774 -2.569124 -2.565062 -2.560597 -2.555740 -2.550503 -2.544897 -2.538932 -2.532618 -2.525968 -2.518991 -2.511699 -2.504103 -2.496212 -2.488039 -2.479594 -2.470888 -2.461932 -2.452737 -2.443313 -2.433671 -2.423823 -2.413778 -2.403549 -2.393146 -2.382579 -2.371860 -2.360999 -2.350007 -2.338896 -2.327676 -2.316357 -2.304952 -2.293469 -2.281922 -2.270318 -2.258660 -2.246949 -2.235186 -2.223373 -2.211511 -2.199600 -2.187642 -2.175638 -2.163590 -2.151497 -2.139361 -2.127184 -2.114966 -2.102709 -2.090414 -2.078082 -2.065713 -2.053310 -2.040873 -2.028403 -2.015901 -2.003369 -1.990808 -1.978218 -1.965602 -1.952959 -1.940292 -1.927600 -1.914886 -1.902151 -1.889395 -1.876620 -1.863826 -1.851015 -1.838188 -1.825345 -1.812488 -1.799617 -1.786733 -1.773837 -1.760930 -1.748013 -1.735086 -1.722152 -1.709210 -1.696261 -1.683307 -1.670348 -1.657385 -1.644419 -1.631451 -1.618482 -1.605513 -1.592545 -1.579578 -1.566613 -1.553652 -1.540695 -1.527744 -1.514798 -1.501859 -1.488929 -1.476007 -1.463094 -1.450192 -1.437302 -1.424424 -1.411559 -1.398709 -1.385873 -1.373054 -1.360251 -1.347466 -1.334700 -1.321953 -1.309227 -1.296522 -1.283840 -1.271180 -1.258545 -1.245935 -1.233351 -1.220793 -1.208263 -1.195762 -1.183290 -1.170849 -1.158439 -1.146061 -1.133716 -1.121405 -1.109129 -1.096889 -1.084686 -1.072520 -1.060393 -1.048305 -1.036258 -1.024251 -1.012285 -1.000360 -0.988476 -0.976633 -0.964830 -0.953068 -0.941347 -0.929666 -0.918027 -0.906427 -0.894869 -0.883350 -0.871872 -0.860434 -0.849036 -0.837679 -0.826360 -0.815082 -0.803843 -0.792644 -0.781484 -0.770364 -0.759283 -0.748240 -0.737237 -0.726273 -0.715347 -0.704461 -0.693612 -0.682802 -0.672031 -0.661298 -0.650603 -0.639946 -0.629326 -0.618745 -0.608202 -0.597696 -0.587227 -0.576797 -0.566403 -0.556047 -0.545728 -0.535446 -0.525201 -0.514993 -0.504822 -0.494687 -0.484589 -0.474528 -0.464503 -0.454514 -0.444562 -0.434646 -0.424766 -0.414921 -0.405113 -0.395341 -0.385604 -0.375903 -0.366237 -0.356607 -0.347012 -0.337452 -0.327928 -0.318438 -0.308984 -0.299564 -0.290179 -0.280829 -0.271513 -0.262232 -0.252985 -0.243773 -0.234594 -0.225450 -0.216340 -0.207264 -0.198221 -0.189213 -0.180238 -0.171296 -0.162388 -0.153514 -0.144673 -0.135864 -0.127089 -0.118347 -0.109638 -0.100962 -0.092319 -0.083709 -0.075131 -0.066586 -0.058074 -0.049594 -0.041147 -0.032733 -0.024351 -0.016001 -0.007683 0.000602 0.008857 0.017080 0.025272 0.033433 0.041564 0.049665 0.057737 0.065778 0.073791 0.081775 0.089730 0.097657 0.105556 0.113427 0.121270 0.129087 0.136876 0.144638 0.152373 0.160082 0.167765 0.175421 0.183052 0.190657 0.198237 0.205791 0.213320 0.220824 0.228303 0.235756 0.243183 0.250585 0.257960 0.265310 0.272633 0.279930 0.287201 0.294445 0.301662 0.308852 0.316015 0.323151 0.330260 0.337342 0.344396 0.351422 0.358421 0.365391 0.372334 0.379248 0.386134 0.392992 0.399821 0.406621 0.413392 0.420135 0.426848 0.433532 0.440187 0.446812 0.453408 0.459973 0.466510 0.473016 0.479492 0.485938 0.492354 0.498739 0.505094 0.511418 0.517712 0.523974 0.530204 0.536404 0.542572 0.548708 0.554812 0.560884 0.566923 0.572930 0.578905 0.584847 0.590756 0.596632 0.602474 0.608283 0.614059 0.619801 0.625508 0.631182 0.636821 0.642426 0.647997 0.653532 0.659033 0.664499 0.669929 0.675324 0.680683 0.686007 0.691294 0.696546 0.701761 0.706940 0.712082 0.717188 0.722256 0.727288 0.732282 0.737238 0.742158 0.747039 0.751883 0.756688 0.761455 0.766184 0.770874 0.775525 0.780138 0.784711 0.789246 0.793740 0.798195 0.802611 0.806986 0.811322 0.815617 0.819872 0.824086 0.828259 0.832392 0.836483 0.840533 0.844542 0.848509 0.852435 0.856318 0.860160 0.863959 0.867716 0.871430 0.875102 0.878730 0.882316 0.885858 0.889357 0.892813 0.896224 0.899592 0.902916 0.906195 0.909430 0.912620 0.915766 0.918867 0.921923 0.924933 0.927898 0.930818 0.933692 0.936520 0.939302 0.942037 0.944727 0.947369 0.949965 0.952514 0.955017 0.957471 0.959879 0.962239 0.964551 0.966815 0.969032 0.971202 0.973324 0.975399 0.977428 0.979410 0.981345 0.983234 0.985078 0.986875 0.988627 0.990333 0.991994 0.993611 0.995182 0.996708 0.998191 0.999629 1.001025 1.002378 1.003692 1.004965 1.006201 1.007399 1.008560 1.009687 1.010779 1.011838 1.012865 1.013861 1.014827 1.015765 1.016675 1.017558 1.018415 1.019249 1.020058 1.020846 1.021612 1.022357 1.023084 1.023793 1.024485 1.025161 1.025822 1.026469 1.027104 1.027727 1.028339 1.028942 1.029537 1.030124 1.030706 1.031282 1.031854 1.032423 1.032990 1.033556 1.034122 1.034690 1.035260 1.035834 1.036412 1.036996 1.037586 1.038184 1.038791 1.039408 1.040036 1.040673 1.041321 1.041980 1.042649 1.043329 1.044019 1.044719 1.045430 1.046152 1.046885 1.047628 1.048382 1.049146 1.049921 1.050707 1.051503 1.052311 1.053129 1.053958 1.054798 1.055648 1.056510 1.057382 1.058266 1.059160 1.060065 1.060982 1.061909 1.062847 1.063797 1.064757 1.065729 1.066711 1.067705 1.068710 1.069726 1.070754 1.071792 1.072842 1.073904 1.074976 1.076060 1.077154 1.078260 1.079376 1.080503 1.081641 1.082789 1.083948 1.085118 1.086303 1.087504 1.088723 1.089963 1.091226 1.092514 1.093830 1.095175 1.096552 1.097962 1.099409 1.100894 1.102420 1.103989 1.105602 1.107263 1.108973 1.110734 1.112549 1.114420 1.116350 1.118340 1.120392 1.122509 1.124693 1.126946 1.129271 1.131669 1.134143 1.136695 1.139327 1.142040 1.144833 1.147704 1.150651 1.153671 1.156762 1.159923 1.163152 1.166446 1.169804 1.173223 1.176702 1.180237 1.183827 1.187469 1.191162 1.194901 1.198687 1.202515 1.206384 1.210292 1.214235 1.218213 1.222222 1.226260 1.230325 1.234415 1.238528 1.242660 1.246810 1.250975 1.255154 1.259343 1.263541 1.267746 1.271954 1.276164 1.280373 1.284579 1.288780 1.292973 1.297156 1.301327 1.305484 1.309624 1.313744 1.317844 1.321919 1.325969 1.329990 1.333981 1.337939 1.341862 1.345747 1.349593 1.353397 1.357157 1.360871 1.364537 1.368151 1.371713 1.375219 1.378668 1.382056 1.385383 1.388645 1.391840 1.394966 1.398021 1.401003 1.403908 1.406736 1.409483 1.412148 1.414727 1.417220 1.419622 1.421934 1.424151 1.426271 1.428294 1.430215 1.432033 1.433746 1.435354 1.436859 1.438261 1.439562 1.440763 1.441865 1.442870 1.443777 1.444589 1.445307 1.445931 1.446463 1.446904 1.447255 1.447517 1.447692 1.447780 1.447783 1.447702 1.447538 1.447291 1.446964 1.446558 1.446072 1.445510 1.444871 1.444157 1.443369 1.442508 1.441575 1.440572 1.439499 1.438358 1.437150 1.435876 1.434537 1.433134 1.431669 1.430142 1.428555 1.426908 1.425204 1.423442 1.421625 1.419753 1.417827 1.415849 1.413820 1.411741 1.409613 1.407437 1.405220 1.402976 1.400715 1.398451 1.396194 1.393947 1.391708 1.389476 1.387253 1.385037 1.382827 1.380623 1.378426 1.376233 1.374045 1.371861 1.369681 1.367504 1.365329 1.363157 1.360987 1.358817 1.356649 1.354481 1.352312 1.350143 1.347974 1.345805 1.343635 1.341466 1.339297 1.337128 1.334959 1.332792 1.330625 1.328459 1.326294 1.324130 1.321968 1.319807 1.317647 1.315490 1.313334 1.311180 1.309028 1.306879 1.304732 1.302588 1.300446 1.298308 1.296172 1.294039 1.291910 1.289784 1.287661 1.285543 1.283428 1.281317 1.279210 1.277107 1.275009 1.272915 1.270826 1.268741 1.266662 1.264588 1.262519 1.260455 1.258397 1.256345 1.254299 1.252259 1.250225 1.248197 1.246176 1.244161 1.242154 1.240153 1.238160 1.236173 1.234195 1.232224 1.230260 1.228305 1.226357 1.224418 1.222487 1.220565 1.218651 1.216747 1.214851 1.212964 1.211087 1.209219 1.207361 1.205513 1.203674 1.201846 1.200027 1.198219 1.196422 1.194635 1.192860 1.191095 1.189341 1.187600 1.185871 1.184156 1.182455 1.180770 1.179101 1.177449 1.175815 1.174199 1.172604 1.171029 1.169475 1.167944 1.166436 1.164953 1.163494 1.162062 1.160655 1.159275 1.157919 1.156589 1.155283 1.154001 1.152742 1.151506 1.150293 1.149101 1.147931 1.146782 1.145653 1.144543 1.143454 1.142383 1.141330 1.140295 1.139278 1.138277 1.137293 1.136325 1.135372 1.134433 1.133510 1.132600 1.131703 1.130819 1.129948 1.129088 1.128240 1.127402 1.126575 1.125758 1.124950 1.124151 1.123360 1.122577 1.121801 1.121032 1.120270 1.119513 1.118762 1.118015 1.117273 1.116535 1.115800 1.115068 1.114338 1.113609 1.112883 1.112157 1.111431 1.110705 1.109979 1.109251 1.108521 1.107790 1.107056 1.106318 1.105577 1.104831 1.104081 1.103326 1.102565 1.101798 1.101024 1.100243 1.099454 1.098657 1.097851 1.097036 1.096211 1.095377 1.094531 1.093674 1.092806 1.091925 1.091033 1.090129 1.089214 1.088288 1.087351 1.086403 1.085444 1.084475 1.083495 1.082506 1.081506 1.080496 1.079477 1.078449 1.077411 1.076364 1.075309 1.074244 1.073172 1.072090 1.071001 1.069904 1.068799 1.067687 1.066568 1.065441 1.064307 1.063167 1.062020 1.060867 1.059708 1.058542 1.057371 1.056194 1.055011 1.053822 1.052628 1.051429 1.050225 1.049016 1.047801 1.046582 1.045358 1.044130 1.042897 1.041660 1.040418 1.039173 1.037923 1.036670 1.035413 1.034152 1.032888 1.031621 1.030350 1.029077 1.027800 1.026521 1.025239 1.023954 1.022667 1.021377 1.020085 1.018792 1.017496 1.016198 1.014899 1.013598 1.012295 1.010991 1.009686 1.008380 1.007073 1.005765 1.004456 1.003147 1.001837 1.000527 0.999217 0.997906 0.996596 0.995286 0.993975 0.992666 0.991357 0.990048 0.988740 0.987433 0.986127 0.984823 0.983519 0.982217 0.980916 0.979617 0.978320 0.977024 0.975731 0.974440 0.973150 0.971861 0.970574 0.969287 0.968000 0.966713 0.965425 0.964137 0.962847 0.961555 0.960261 0.958964 0.957663 0.956358 0.955048 0.953732 0.952411 0.951084 0.949749 0.948407 0.947057 0.945698 0.944329 0.942951 0.941562 0.940162 0.938751 0.937329 0.935896 0.934454 0.933004 0.931547 0.930083 0.928615 0.927142 0.925666 0.924188 0.922709 0.921229 0.919750 0.918274 0.916800 0.915330 0.913864 0.912405 0.910952 0.909508 0.908072 0.906646 0.905230 0.903827 0.902437 0.901060 0.899698 0.898352 0.897023 0.895712 0.894420 0.893147 0.891896 0.890666 0.889460 0.888277 0.887119 0.885987 0.884881 0.883804 0.882756 0.881737 0.880749 0.879794 0.878871 0.877982 0.877128 0.876310 0.875528 0.874785 0.874082 0.873419 0.872798 0.872222 0.871690 0.871204 0.870766 0.870377 0.870039 0.869752 0.869519 0.869340 0.869217 0.869152 0.869145 0.869198 0.869313 0.869490 0.869731 0.870038 0.870412 0.870854 0.871366 0.871949 0.872604 0.873332 0.874136 0.875017 0.875975 0.877012 0.878130 0.879330 0.880614 0.881982 0.883436 0.884978 0.886608 0.888329 0.890141 0.892046 0.894046 0.896141 0.898334 0.900625 0.903016 0.905508 0.908102 0.910801 0.913604 0.916515 0.919534 0.922662 0.925901 0.929252 0.932717 0.936296 0.939986 0.943771 0.947640 0.951577 0.955570 0.959605 0.963669 0.967747 0.971826 0.975893 0.979933 0.983934 0.987881 0.991762 0.995572 0.999311 1.002981 1.006582 1.010115 1.013580 1.016978 1.020311 1.023578 1.026781 1.029920 1.032996 1.036010 1.038962 1.041853 1.044684 1.047455 1.050168 1.052823 1.055422 1.057965 1.060453 1.062887 1.065267 1.067596 1.069873 1.072099 1.074276 1.076404 1.078485 1.080519 1.082506 1.084448 1.086346 1.088200 1.090010 1.091778 1.093505 1.095190 1.096835 1.098440 1.100007 1.101535 1.103025 1.104479 1.105897 1.107279 1.108627 1.109941 1.111221 1.112469 1.113685 1.114870 1.116025 1.117150 1.118246 1.119313 1.120353 1.121366 1.122353 1.123315 1.124252 1.125165 1.126054 1.126921 1.127766 1.128590 1.129393 1.130176 1.130941 1.131687 1.132415 1.133127 1.133822 1.134502 1.135167 1.135818 1.136455 1.137080 1.137693 1.138294 1.138885 1.139466 1.140038 1.140602 1.141158 1.141707 1.142249 1.142787 1.143319 1.143847 1.144371 1.144893 1.145413 1.145931 1.146449 1.146967 1.147486 1.148006 1.148528 1.149054 1.149583 1.150116 1.150654 1.151198 1.151749 1.152307 1.152873 1.153447 1.154031 1.154624 1.155229 1.155844 1.156472 1.157113 1.157768 1.158436 1.159120 1.159820 1.160535 1.161268 1.162019 1.162788 1.163577 1.164385 1.165214 1.166064 1.166935 1.167826 1.168736 1.169666 1.170615 1.171583 1.172569 1.173573 1.174595 1.175634 1.176690 1.177762 1.178851 1.179956 1.181076 1.182212 1.183362 1.184527 1.185706 1.186898 1.188104 1.189323 1.190555 1.191799 1.193055 1.194322 1.195601 1.196890 1.198191 1.199501 1.200821 1.202151 1.203489 1.204837 1.206193 1.207556 1.208928 1.210307 1.211692 1.213085 1.214483 1.215888 1.217298 1.218714 1.220134 1.221559 1.222989 1.224422 1.225859 1.227300 1.228744 1.230190 1.231639 1.233089 1.234542 1.235996 1.237451 1.238907 1.240363 1.241820 1.243277 1.244732 1.246188 1.247642 1.249094 1.250545 1.251994 1.253440 1.254884 1.256325 1.257762 1.259195 1.260625 1.262050 1.263471 1.264886 1.266297 1.267701 1.269100 1.270493 1.271879 1.273258 1.274629 1.275994 1.277350 1.278699 1.280038 1.281369 1.282691 1.284003 1.285306 1.286599 1.287881 1.289152 1.290412 1.291661 1.292898 1.294124 1.295336 1.296537 1.297724 1.298897 1.300057 1.301202 1.302333 1.303448 1.304549 1.305634 1.306704 1.307758 1.308796 1.309818 1.310824 1.311813 1.312786 1.313742 1.314681 1.315603 1.316508 1.317395 1.318264 1.319115 1.319948 1.320763 1.321560 1.322337 1.323096 1.323836 1.324556 1.325257 1.325939 1.326602 1.327246 1.327872 1.328479 1.329068 1.329638 1.330190 1.330724 1.331240 1.331738 1.332219 1.332682 1.333128 1.333557 1.333968 1.334362 1.334740 1.335101 1.335445 1.335773 1.336085 1.336380 1.336659 1.336923 1.337170 1.337402 1.337619 1.337820 1.338006 1.338176 1.338332 1.338473 1.338599 1.338710 1.338807 1.338890 1.338959 1.339013 1.339054 1.339080 1.339093 1.339093 1.339079 1.339052 1.339012 1.338958 1.338892 1.338813 1.338722 1.338618 1.338502 1.338373 1.338232 1.338080 1.337916 1.337740 1.337552 1.337353 1.337143 1.336921 1.336689 1.336446 1.336192 1.335927 1.335652 1.335366 1.335071 1.334765 1.334449 1.334123 1.333788 1.333444 1.333090 1.332728 1.332357 1.331979 1.331593 1.331199 1.330799 1.330392 1.329979 1.329559 1.329135 1.328704 1.328269 1.327830 1.327386 1.326938 1.326487 1.326033 1.325575 1.325115 1.324653 1.324189 1.323724 1.323257 1.322789 1.322321 1.321853 1.321385 1.320918 1.320451 1.319986 1.319522 1.319060 1.318599 1.318141 1.317684 1.317230 1.316777 1.316326 1.315877 1.315430 1.314985 1.314543 1.314103 1.313665 1.313230 1.312799 1.312371 1.311947 1.311527 1.311111 1.310701 1.310295 1.309895 1.309500 1.309111 1.308728 1.308352 1.307983 1.307620 1.307265 1.306918 1.306579 1.306248 1.305926 1.305613 1.305308 1.305014 1.304729 1.304454 1.304189 1.303935 1.303692 1.303461 1.303240 1.303032 1.302836 1.302652 1.302481 1.302324 1.302179 1.302048 1.301931 1.301828 1.301740 1.301667 1.301608 1.301566 1.301538 1.301527 1.301532 1.301554 1.301593 1.301649 1.301722 1.301813 1.301922 1.302050 1.302196 1.302361 1.302546 1.302750 1.302972 1.303211 1.303462 1.303725 1.303995 1.304270 1.304547 1.304825 1.305099 1.305368 1.305629 1.305879 1.306115 1.306334 1.306535 1.306714 1.306869 1.306996 1.307094 1.307159 1.307189 1.307181 1.307133 1.307042 1.306904 1.306718 1.306481 1.306190 1.305842 1.305435 1.304966 1.304432 1.303831 1.303161 1.302425 1.301624 1.300762 1.299840 1.298860 1.297826 1.296738 1.295601 1.294416 1.293185 1.291911 1.290596 1.289243 1.287854 1.286431 1.284976 1.283493 1.281983 1.280449 1.278892 1.277316 1.275723 1.274116 1.272495 1.270865 1.269227 1.267583 1.265936 1.264289 1.262643 1.261001 1.259366 1.257740 1.256124 1.254522 1.252936 1.251368 1.249821 1.248297 1.246797 1.245326 1.243884 1.242475 1.241101 1.239763 1.238465 1.237209 1.235997 1.234832 1.233715 1.232650 1.231638 1.230682 1.229785 1.228948 1.228174 1.227465 1.226825 1.226254 1.225756 1.225333 1.224987 1.224720 1.224536 1.224435 1.224422 1.224497 1.224657 1.224897 1.225211 1.225592 1.226035 1.226534 1.227083 1.227676 1.228307 1.228969 1.229658 1.230367 1.231090 1.231821 1.232554 1.233284 1.234003 1.234707 1.235390 1.236045 1.236666 1.237247 1.237784 1.238268 1.238696 1.239059 1.239354 1.239573 1.239711 1.239762 1.239720 1.239578 1.239332 1.238974 1.238499 1.237902 1.237175 1.236314 1.235311 1.234162 1.232860 1.231400 1.229774 1.227978 1.226007 1.223860 1.221534 1.219029 1.216348 1.213495 1.210473 1.207288 1.203942 1.200440 1.196787 1.192986 1.189042 1.184959 1.180741 1.176392 1.171916 1.167317 1.162600 1.157769 1.152828 1.147781 1.142632 1.137385 1.132045 1.126616 1.121101 1.115505 1.109833 1.104087 1.098273 1.092395 1.086457 1.080462 1.074415 1.068321 1.062183 1.056005 1.049793 1.043548 1.037277 1.030980 1.024659 1.018315 1.011952 1.005570 0.999171 0.992756 0.986329 0.979889 0.973440 0.966982 0.960518 0.954049 0.947576 0.941103 0.934630 0.928159 0.921692 0.915230 0.908776 0.902330 0.895896 0.889474 0.883066 0.876674 0.870300 0.863945 0.857611 0.851301 0.845014 0.838755 0.832523 0.826321 0.820150 0.814013 0.807911 0.801845 0.795818 0.789831 0.783886 0.777985 0.772129 0.766320 0.760560 0.754850 0.749192 0.743584 0.738019 0.732493 0.727000 0.721536 0.716097 0.710685 0.705302 0.699949 0.694627 0.689338 0.684083 0.678865 0.673684 0.668542 0.663441 0.658381 0.653365 0.648394 0.643470 0.638594 0.633767 0.628991 0.624268 0.619599 0.614985 0.610429 0.605931 0.601493 0.597117 0.592804 0.588555 0.584373 0.580258 0.576212 0.572237 0.568334 0.564504 0.560750 0.557072 0.553473 0.549953 0.546514 0.543158 0.539887 0.536700 0.533601 0.530591 0.527671 0.524842 0.522107 0.519467 0.516922 0.514476 0.512128 0.509882 0.507737 0.505697 0.503761 0.501932 0.500212 0.498601 0.497102 0.495715 0.494443 0.493286 0.492247 0.491327 0.490526 0.489848 0.489293 0.488863 0.488559 0.488382 0.488335 0.488419 0.488634 0.488983 0.489468 0.490088 0.490847 0.491744 0.492783 0.493964 0.495289 0.496758 0.498375 0.500139 0.502053 0.504118 0.506336 0.508707 0.511234 0.513918 0.516760 0.519761 0.522924 0.526250 0.529739 0.533395 0.537217 0.541207 0.545368 0.549700 0.554205 0.558884 0.563737 0.568763 0.573962 0.579326 0.584847 0.590517 0.596328 0.602274 0.608344 0.614533 0.620832 0.627232 0.633727 0.640309 0.646969 0.653700 0.660494 0.667343 0.674239 0.681174 0.688141 0.695131 0.702137 0.709151 0.716165 0.723170 0.730160 0.737126 0.744061 0.750955 0.757803 0.764595 0.771324 0.777983 0.784562 0.791054 0.797452 0.803747 0.809932 0.815999 0.821939 0.827745 0.833409 0.838924 0.844281 0.849472 0.854489 0.859326 0.863973 0.868423 0.872668 0.876700 0.880512 0.884094 0.887441 0.890542 0.893392 0.895983 0.898308 0.900359 0.902131 0.903614 0.904804 0.905692 0.906271 0.906534 0.906475 0.906086 0.905361 0.904291 0.902870 0.901091 0.898947 0.896431 0.893536 0.890254 0.886578 0.882503 0.878019 0.873121 0.867801 0.862053 0.855868 0.849241 0.842165 0.834632 0.826635 0.818168 0.809223 0.799794 0.789874 0.779455 0.768531 0.757095 0.745139 0.732658 0.719643 0.706089 0.691987 0.677332 0.662115 0.646331 0.629972 0.613031 0.595501 0.577376 0.558648 0.539311 0.519357 0.498779 0.477571 0.455726 0.433236 0.410095 0.386296 0.361831 0.336695 0.310879 0.284377 0.257182 0.229287 0.200685 0.171369 0.141333 0.110568 0.079069 0.046828 0.013839 -0.019907 -0.054414 -0.089691 -0.125745 -0.162582 -0.200209 -0.238634 -0.277862 -0.317902 -0.358760 -0.400443 -0.442958 -0.486312 -0.530511 -0.575564 -0.621476 -0.668255 -0.715908 -0.764441 -0.813862 -0.864177 -0.915393 -0.967518 -1.020559 -1.074521 -1.129413 -1.185241 -1.242012 -1.299733 -1.358411 -1.418053 -1.478666 -1.540256 -1.602714 -1.665562 -1.728254 -1.790242 -1.850978 -1.909917 -1.966511 -2.020354 -2.071418 -2.119736 -2.165340 -2.208263 -2.248537 -2.286196 -2.321272 -2.353797 -2.383805 -2.411328 -2.436398 -2.459050 -2.479314 -2.497224 -2.512813 -2.526113 -2.537157 -2.545978 -2.552608 -2.557080 -2.559427 -2.559681 -2.557876 -2.554043 -2.548216 -2.540427 -2.530709 -2.519094 -2.505616 -2.490307 -2.473200 -2.454327 -2.433721 -2.411415 -2.387441 -2.361833 -2.334622 -2.305842 -2.275526 -2.243705 -2.210413 -2.175682 -2.139546 -2.102036 -2.063186 -2.023028 -1.981594 -1.938918 -1.895033 -1.849970 -1.803763 -1.756445 -1.708047 -1.658603 -1.608146 -1.556707 -1.504321 -1.451019 -1.396834 -1.341799 -1.285947 -1.229309 -1.171920 -1.113812 -1.055017 -0.995568 -0.935498 -0.874839 -0.813625 -0.751887 -0.689659 -0.626973 -0.563862 -0.500359 -0.436496 -0.372306 -0.307822 -0.243076 -0.178102 -0.112931 -0.047597 0.017868 0.083431 0.149060 0.214721 0.280382 0.346010 0.411574 0.477039 0.542373 0.607544 0.672518 0.737264 0.801748 0.865938 0.929801 0.993304 1.056415 1.119100 1.181329 1.243066 1.304281 1.364939 1.425009 1.484458 1.543253 1.601362 1.658751 1.715388 1.771240 1.826275 1.880460 1.933762 1.986148 2.037586 2.088044 2.137488 2.185885 2.233204 2.279411 2.324473 2.368359 2.411044 2.452535 2.492844 2.531983 2.569966 2.606804 2.642510 2.677096 2.710574 2.742957 2.774257 2.804486 2.833657 2.861782 2.888874 2.914945 2.940007 2.964072 2.987153 3.009263 3.030413 3.050616 3.069884 3.088227 3.105654 3.122171 3.137787 3.152508 3.166343 3.179299 3.191383 3.202604 3.212971 3.222495 3.231187 3.239058 3.246117 3.252375 3.257844 3.262532 3.266452 3.269613 3.272026 3.273701 3.274650 3.274882 3.274409 3.273240 3.271386 3.268859 3.265667 3.261823 3.257336 3.252216 3.246476 3.240124 3.233172 3.225630 3.217509 3.208819 3.199571 3.189775 3.179444 3.168591 3.157230 3.145373 3.133034 3.120226 3.106962 3.093256 3.079121 3.064569 3.049616 3.034272 3.018553 3.002471 2.986039 2.969271 2.952179 2.934778 2.917080 2.899099 2.880848 2.862344 2.843599 2.824631 2.805451 2.786073 2.766511 2.746778 2.726887 2.706851 2.686683 2.666398 2.646007 2.625526 2.604969 2.584350 2.563684 2.542984 2.522267 2.501545 2.480834 2.460147 2.439495 2.418887 2.398328 2.377827 2.357390 2.337025 2.316737 2.296536 2.276427 2.256418 2.236516 2.216727 2.197060 2.177522 2.158119 2.138858 2.119747 2.100792 2.082001 2.063382 2.044940 2.026683 2.008613 1.990730 1.973032 1.955520 1.938193 1.921050 1.904091 1.887316 1.870723 1.854314 1.838086 1.822040 1.806175 1.790491 1.774987 1.759662 1.744517 1.729550 1.714761 1.700150 1.685717 1.671460 1.657379 1.643474 1.629744 1.616190 1.602809 1.589601 1.576565 1.563700 1.551005 1.538479 1.526121 1.513931 1.501906 1.490047 1.478352 1.466820 1.455451 1.444243 1.433195 1.422307 1.411577 1.401004 1.390588 1.380327 1.370221 1.360268 1.350468 1.340819 1.331321 1.321973 1.312774 1.303722 1.294816 1.286057 1.277442 1.268971 1.260643 1.252457 1.244412 1.236507 1.228740 1.221112 1.213621 1.206265 1.199045 1.191959 1.185006 1.178185 1.171495 1.164936 1.158505 1.152203 1.146029 1.139980 1.134057 1.128258 1.122583 1.117030 1.111599 1.106288 1.101097 1.096024 1.091068 1.086230 1.081507 1.076898 1.072403 1.068021 1.063751 1.059592 1.055542 1.051601 1.047768 1.044042 1.040422 1.036906 1.033495 1.030187 1.026980 1.023875 1.020870 1.017964 1.015156 1.012445 1.009829 1.007305 1.004868 1.002515 1.000242 0.998043 0.995917 0.993858 0.991862 0.989926 0.988046 0.986218 0.984437 0.982699 0.981002 0.979340 0.977709 0.976107 0.974528 0.972969 0.971425 0.969894 0.968371 0.966854 0.965342 0.963832 0.962324 0.960815 0.959303 0.957787 0.956264 0.954734 0.953193 0.951641 0.950076 0.948495 0.946897 0.945280 0.943643 0.941983 0.940298 0.938588 0.936849 0.935081 0.933281 0.931448 0.929580 0.927674 0.925730 0.923745 0.921718 0.919647 0.917529 0.915364 0.913149 0.910883 0.908563 0.906189 0.903757 0.901267 0.898716 0.896103 0.893426 0.890683 0.887873 0.884992 0.882041 0.879016 0.875916 0.872740 0.869485 0.866149 0.862731 0.859230 0.855642 0.851969 0.848217 0.844394 0.840507 0.836565 0.832575 0.828546 0.824485 0.820400 0.816299 0.812189 0.808080 0.803978 0.799892 0.795830 0.791798 0.787806 0.783861 0.779971 0.776144 0.772386 0.768698 0.765079 0.761529 0.758047 0.754634 0.751290 0.748013 0.744803 0.741661 0.738586 0.735578 0.732635 0.729759 0.726949 0.724204 0.721524 0.718909 0.716357 0.713869 0.711443 0.709080 0.706778 0.704536 0.702355 0.700232 0.698169 0.696164 0.694216 0.692325 0.690491 0.688712 0.686988 0.685318 0.683702 0.682139 0.680628 0.679169 0.677761 0.676403 0.675096 0.673837 0.672627 0.671465 0.670351 0.669282 0.668260 0.667283 0.666351 0.665463 0.664618 0.663816 0.663057 0.662338 0.661661 0.661023 0.660426 0.659867 0.659347 0.658864 0.658418 0.658009 0.657635 0.657296 0.656992 0.656722 0.656485 0.656281 0.656109 0.655969 0.655859 0.655780 0.655730 0.655710 0.655718 0.655754 0.655818 0.655908 0.656024 0.656166 0.656333 0.656524 0.656739 0.656977 0.657238 0.657521 0.657824 0.658149 0.658494 0.658858 0.659242 0.659643 0.660063 0.660500 0.660953 0.661422 0.661907 0.662406 0.662919 0.663446 0.663987 0.664539 0.665103 0.665679 0.666265 0.666861 0.667466 0.668080 0.668702 0.669332 0.669969 0.670612 0.671262 0.671916 0.672575 0.673238 0.673904 0.674573 0.675245 0.675917 0.676591 0.677266 0.677940 0.678613 0.679285 0.679955 0.680623 0.681287 0.681948 0.682604 0.683255 0.683901 0.684540 0.685173 0.685798 0.686415 0.687024 0.687624 0.688214 0.688793 0.689362 0.689919 0.690463 0.690996 0.691514 0.692019 0.692509 0.692984 0.693444 0.693887 0.694313 0.694721 0.695112 0.695484 0.695836 0.696168 0.696480 0.696771 0.697040 0.697287 0.697511 0.697711 0.697887 0.698038 0.698165 0.698265 0.698339 0.698385 0.698404 0.698395 0.698356 0.698289 0.698191 0.698062 0.697902 0.697710 0.697486 0.697229 0.696938 0.696612 0.696252 0.695856 0.695424 0.694956 0.694450 0.693906 0.693324 0.692703 0.692042 0.691341 0.690599 0.689815 0.688990 0.688122 0.687210 0.686255 0.685255 0.684210 0.683120 0.681983 0.680799 0.679568 0.678289 0.676962 0.675586 0.674161 0.672686 0.671161 0.669586 0.667960 0.666282 0.664553 0.662772 0.660938 0.659050 0.657110 0.655115 0.653066 0.650962 0.648803 0.646588 0.644317 0.641989 0.639605 0.637163 0.634663 0.632105 0.629488 0.626812 0.624076 0.621280 0.618424 0.615507 0.612529 0.609488 0.606386 0.603221 0.599993 0.596701 0.593345 0.589925 0.586441 0.582890 0.579275 0.575593 0.571844 0.568029 0.564146 0.560195 0.556176 0.552088 0.547931 0.543705 0.539408 0.535041 0.530603 0.526094 0.521513 0.516860 0.512134 0.507335 0.502462 0.497516 0.492495 0.487399 0.482228 0.476981 0.471658 0.466259 0.460782 0.455227 0.449594 0.443882 0.438090 0.432219 0.426267 0.420235 0.414121 0.407925 0.401647 0.395287 0.388845 0.382322 0.375718 0.369032 0.362267 0.355420 0.348494 0.341487 0.334400 0.327234 0.319989 0.312664 0.305259 0.297776 0.290214 0.282573 0.274854 0.267057 0.259181 0.251227 0.243196 0.235087 0.226900 0.218636 0.210295 0.201877 0.193382 0.184810 0.176162 0.167439 0.158655 0.149830 0.140985 0.132139 0.123312 0.114525 0.105798 0.097151 0.088604 0.080178 0.071892 0.063767 0.055823 0.048079 0.040557 0.033276 0.026256 0.019518 0.013082 0.006967 0.001195 -0.004215 -0.009243 -0.013870 -0.018094 -0.021921 -0.025361 -0.028423 -0.031115 -0.033446 -0.035424 -0.037059 -0.038357 -0.039329 -0.039983 -0.040327 -0.040370 -0.040121 -0.039588 -0.038779 -0.037705 -0.036372 -0.034790 -0.032967 -0.030912 -0.028633 -0.026139 -0.023440 -0.020542 -0.017455 -0.014188 -0.010749 -0.007147 -0.003390 0.000514 0.004554 0.008724 0.013013 0.017415 0.021919 0.026518 0.031203 0.035965 0.040797 0.045691 0.050642 0.055640 0.060680 0.065755 0.070856 0.075978 0.081112 0.086252 0.091391 0.096521 0.101636 0.106728 0.111790 0.116816 0.121797 0.126727 0.131599 0.136405 0.141139 0.145794 0.150361 0.154835 0.159208 0.163472 0.167622 0.171649 0.175546 0.179308 0.182925 0.186391 0.189700 0.192844 0.195815 0.198607 0.201215 0.203634 0.205863 0.207898 0.209737 0.211375 0.212811 0.214041 0.215063 0.215873 0.216468 0.216846 0.217004 0.216937 0.216645 0.216122 0.215368 0.214378 0.213149 0.211679 0.209965 0.208004 0.205792 0.203327 0.200606 0.197625 0.194383 0.190875 0.187099 0.183052 0.178731 0.174133 0.169255 0.164094 0.158646 0.152910 0.146882 0.140559 0.133939 0.127017 0.119791 0.112259 0.104417 0.096262 0.087792 0.079003 0.069892 0.060456 0.050693 0.040600 0.030172 0.019409 0.008305 -0.003140 -0.014932 -0.027071 -0.039562 -0.052408 -0.065611 -0.079174 -0.093100 -0.107393 -0.122055 -0.137089 -0.152499 -0.168286 -0.184455 -0.201008 -0.217948 -0.235278 -0.253001 -0.271120 -0.289638 -0.308558 -0.327883 -0.347616 -0.367760 -0.388318 -0.409292 -0.430686 -0.452504 -0.474746 -0.497418 