3.682305 3.682305 3.682305 3.682305 3.682305 3.682305 3.682305 3.682305 3.682305 2.980135 2.978901 2.979434 2.978200 2.976966 2.975733 2.974500 2.973270 2.972038 2.970807 2.969576 2.968346 2.967120 3.035728 3.034471 3.033214 3.031958 3.030702 3.034198 3.032941 3.031697 3.030442 3.029186 3.027931 3.026677 3.025423 3.024208 3.022955 3.021761 3.020510 3.019258 3.037011 3.042924 3.041666 3.040422 3.039202 3.038733 3.038055 3.037658 3.036400 3.035143 3.034879 3.033627 3.032549 3.031293 3.030315 3.029060 3.027805 3.026646 3.025399 3.031403 3.030160 3.028905 3.027706 3.030046 3.028864 3.028758 3.027640 3.026386 3.027555 3.026302 3.027381 3.026127 3.024940 3.024042 3.022790 3.027697 3.026595 3.025346 3.026783 3.027546 3.026570 3.025327 3.025489 3.024338 3.023300 3.026087 3.031427 3.030847 3.031473 3.030245 3.029094 3.028017 3.027701 3.026450 3.025783 3.025048 3.023905 3.022906 3.022571 3.021372 3.020881 3.019752 3.022696 3.021812 3.021155 3.021810 3.020591 3.019523 3.018528 3.017290 3.016135 3.015247 3.014282 3.013871 3.017016 3.016141 3.015085 3.014014 3.016868 3.015673 3.014469 3.013580 3.012339 3.012928 3.011848 3.012743 3.012085 3.010838 3.010608 3.009875 3.016717 3.016306 3.016597 3.016359 3.015289 3.014324 3.013115 3.012513 3.012174 3.011247 3.010445 3.009203 3.007959 3.006732 3.005601 3.006759 3.007082 3.009481 3.010174 3.009166 3.007962 3.008669 3.007688 3.007152 3.006636 3.005747 3.004587 3.004823 3.004471 3.003244 3.003372 3.002185 3.002346 3.002736 3.001619 3.000503 3.000415 3.002032 3.001286 3.000975 3.000013 2.999281 2.999126 3.000362 3.001265 3.000079 2.999349 2.998236 2.997467 3.000113 2.999466 2.998535 2.999251 2.999598 2.998356 2.997880 2.996766 2.996105 2.996235 2.995145 2.994237 2.994396 2.994249 2.995094 2.995326 2.995786 2.994708 2.994524 2.993670 2.992539 2.993239 2.994102 2.993225 2.992829 2.993196 2.992031 2.991170 2.990303 2.989509 2.990399 2.989173 2.988797 2.988747 2.987529 2.987125 2.987890 2.986688 2.986777 2.987459 2.986475 2.986543 2.986403 2.985338 2.984600 2.985787 2.986238 2.985837 2.985868 2.984662 2.984981 2.988521 2.987354 2.987273 2.986087 2.985584 2.985808 2.986257 2.985405 2.984696 2.986115 2.984972 2.983807 2.984697 2.985083 2.983958 2.984585 2.985048 2.984175 2.983156 2.982517 2.982902 2.982343 2.981880 2.982105 2.981788 2.983047 2.982244 2.981238 2.985122 2.983993 2.983123 2.982238 2.981536 2.981420 2.982461 2.981263 2.980770 2.981021 2.981289 2.981794 2.980773 2.980843 2.979708 2.979462 2.978345 2.978100 2.977825 2.977360 2.976425 2.976486 2.975487 2.974934 2.974450 2.973436 2.972834 2.974860 2.974532 2.974544 2.973382 2.973695 2.972666 2.973808 2.972848 2.972203 2.973176 2.972663 2.971692 2.974380 2.976198 2.976452 2.975385 2.974548 2.973347 2.972747 2.975614 2.977032 2.976500 2.978120 2.979161 2.980725 2.981414 2.980879 2.980254 2.982074 2.981044 2.981572 2.980552 2.979735 2.979301 2.979467 2.978645 2.977453 2.977726 2.977177 2.976323 2.975217 2.974047 2.974789 2.976636 2.976142 2.976881 2.978163 2.977398 2.976657 2.976940 2.977691 2.976479 2.975355 2.974953 2.974151 2.973594 2.972816 2.972428 2.971798 2.970828 2.970880 2.971029 2.972449 2.971870 2.971759 2.971345 2.973023 2.971913 2.971410 2.970323 2.970041 2.969171 2.968112 2.967249 2.966898 2.966250 2.965651 2.966837 2.965898 2.966050 2.967963 2.967080 2.966748 2.966758 2.967107 2.967418 2.969187 2.968167 2.967422 2.966626 2.966566 2.965894 2.966458 2.966588 2.965508 2.966150 2.965722 2.965549 2.964789 2.965291 2.964789 2.965305 2.964148 2.963690 2.963186 2.962208 2.962093 2.961095 2.961152 2.960214 2.961626 2.960441 2.962119 2.961070 2.962425 2.963357 2.962778 2.962873 2.963335 2.962540 2.961646 2.960883 2.960317 2.959178 2.959068 2.959432 2.958294 2.958349 2.957310 2.957877 2.960199 2.959879 2.961374 2.961695 2.961227 2.961096 2.961963 2.962552 2.963238 2.962317 2.961563 2.960582 2.960060 2.959053 2.958345 2.958110 2.956982 2.955951 2.955586 2.954915 2.954089 2.953834 2.953277 2.952322 2.952210 2.951285 2.951854 2.951432 2.950333 2.949968 2.948991 2.948074 2.949281 2.948230 2.947262 2.946888 2.946390 2.945558 2.944709 2.945334 2.944883 2.946313 2.946002 2.946408 2.946295 2.946031 2.945173 2.945759 2.944560 2.944252 2.943082 2.942539 2.941621 2.941296 2.941376 2.941558 2.941649 2.941234 2.940829 2.939895 2.940541 2.940513 2.940237 2.941716 2.943288 2.943294 2.942578 2.943353 2.943100 2.943037 2.943204 2.942707 2.942037 2.941415 2.941627 2.940555 2.940893 2.940348 2.940122 2.939367 2.938427 2.937297 2.936595 2.935741 2.935737 2.934931 2.935328 2.934432 2.934972 2.934926 2.934386 2.935254 2.934823 2.933944 2.933886 2.934036 2.934789 2.936074 2.938294 2.937992 2.938969 2.938589 2.938051 2.937779 2.937242 2.937533 2.936653 2.936460 2.939047 2.938695 2.937906 2.937295 2.936252 2.935433 2.934957 2.935479 2.934448 2.933664 2.935589 2.935944 2.936778 2.936658 2.936743 2.936833 2.936681 2.935885 2.934918 2.934459 2.935480 2.934672 2.934058 2.933611 2.932465 2.932803 2.932949 2.932482 2.933009 2.932725 2.932695 2.932974 2.932103 2.932223 2.931703 2.930777 2.930636 2.930056 2.929205 2.928093 2.927716 2.928486 2.929678 2.929255 2.928926 2.928560 2.928392 2.928520 2.927862 2.927149 2.928498 2.928332 2.928435 2.927465 2.926886 2.927918 2.927952 2.927486 2.927425 2.926335 2.927738 2.928655 2.927972 2.927340 2.926530 2.925477 2.925766 2.926510 2.926768 2.926489 2.926483 2.927687 2.926726 2.927651 2.927032 2.927265 2.927693 2.926892 2.925971 2.926805 2.925860 2.925664 2.925144 2.924186 2.923654 2.925831 2.924905 2.926957 2.927953 2.929008 2.929050 2.928343 2.927567 2.928563 2.929052 2.929305 2.928793 2.928815 2.928020 2.927536 2.927058 2.927754 2.927136 2.927969 2.927130 2.926810 2.926802 2.925999 2.925231 2.927219 2.926937 2.927547 2.926633 2.928028 2.928411 2.929433 2.929195 2.928056 2.927191 2.926838 2.925649 2.927334 2.926634 2.926778 2.926154 2.925794 2.925552 2.926684 2.926008 2.925662 2.924900 2.926434 2.926347 2.927042 2.926490 2.926406 2.925381 2.926123 2.926467 2.926744 2.925889 2.926132 2.926031 2.926364 2.925937 2.925219 2.925204 2.924518 2.924253 2.924257 2.924873 2.924361 2.923729 2.922968 2.923163 2.923537 2.924845 2.926318 2.926767 2.926366 2.925495 2.925040 2.926979 2.926341 2.925415 2.925289 2.926561 2.927391 2.927514 2.927203 2.927262 2.927519 2.927209 2.926926 2.927157 2.926553 2.925802 2.926379 2.926436 2.926332 2.926944 2.927050 2.926574 2.926581 2.927425 2.926275 2.926045 2.924950 2.925013 2.924243 2.924048 2.924321 2.925356 2.924891 2.924750 2.925775 2.925569 2.926056 2.925249 2.924753 2.924967 2.925126 2.925035 2.924237 2.924063 2.923644 2.923049 2.922391 2.922759 2.923626 2.923024 2.922288 2.922135 2.921370 2.921063 2.920735 2.920824 2.920582 2.919855 2.919125 2.918940 2.918071 2.917988 2.918550 2.922669 2.922521 2.923232 2.923336 2.924623 2.924260 2.923758 2.923664 2.924618 2.924061 2.923117 2.922283 2.922968 2.922203 2.921821 2.925606 2.925347 2.927354 2.926349 2.926636 2.926261 2.925879 2.925773 2.926106 2.925988 2.926610 2.926263 2.926216 2.925788 2.926876 2.926705 2.926182 2.925428 2.925382 2.926871 2.926150 2.925712 2.926106 2.926306 2.925584 2.925457 2.928520 2.927677 2.926829 2.928021 2.927813 2.928027 2.927534 2.927429 2.927514 2.926753 2.926772 2.926643 2.926677 2.926327 2.927287 2.926832 2.926788 2.926134 2.926078 2.926026 2.925576 2.924819 2.924046 2.924271 2.924218 2.923232 2.922920 2.922158 2.923728 2.925379 2.924922 2.924228 2.923389 2.923185 2.922534 2.923325 2.923185 2.922072 2.923020 2.923666 2.922734 2.922379 2.922323 2.922854 2.921946 2.921010 2.922181 2.921945 2.921976 2.922305 2.921506 2.921138 2.920923 2.920549 2.920789 2.921605 2.920685 2.920379 2.920364 2.919393 2.919047 2.921521 2.922107 2.924181 2.923593 2.923010 2.922024 2.921570 2.921633 2.920738 2.919900 2.920406 2.920143 2.919219 2.918262 2.917732 2.917935 2.917280 2.917189 2.917630 2.918074 2.917824 2.917122 2.916536 2.915494 2.915546 2.915429 2.915602 2.914813 2.914675 2.914028 2.914307 2.914957 2.914059 2.914918 2.914220 2.914592 2.916953 2.916373 2.915655 2.915059 2.914556 2.914467 2.914265 2.914852 2.914491 2.914690 2.916648 2.916972 2.915931 2.914904 2.914243 2.914623 2.914332 2.915503 2.916014 2.917670 2.918545 2.919183 2.918828 2.919764 2.919690 2.919111 2.918662 2.919315 2.920013 2.919496 2.921343 2.921598 2.921635 2.923402 2.922876 2.922103 2.923230 2.922740 2.923139 2.922819 2.922230 2.922215 2.921136 2.920911 2.920754 2.921443 2.920864 2.921591 2.921329 2.920888 2.921561 2.922057 2.923510 2.922993 2.921981 2.921081 2.920906 2.920711 2.920193 2.919550 2.918723 2.919354 2.919609 2.919306 2.919787 2.919597 2.918438 2.917661 2.919069 2.918756 2.917876 2.917951 2.918622 2.918206 2.918962 2.918274 2.919146 2.918385 2.918729 2.918150 2.917307 2.917180 2.916379 2.915597 2.914602 2.914748 2.915116 2.914950 2.915110 2.914909 2.914086 2.913904 2.913150 2.912408 2.913199 2.913684 2.912833 2.912356 2.913351 2.914108 2.914267 2.913841 2.914823 2.913798 2.913258 2.913371 2.912511 2.913003 2.912375 2.912242 2.911841 2.911908 2.911531 2.911413 2.911341 2.912168 2.911619 2.910806 2.911118 2.912429 2.911771 2.911790 2.911326 2.911818 2.911658 2.911341 2.911103 2.910753 2.910957 2.909997 2.910277 2.910406 2.909864 2.910699 2.910124 2.910882 2.910300 2.909739 2.908613 2.909236 2.910193 2.910032 2.910246 2.910360 2.909967 2.910384 2.910406 2.909987 2.909322 2.909995 2.909514 2.910050 2.910718 2.909934 2.910533 2.911182 2.911325 2.911459 2.911164 2.912243 2.912176 2.911271 2.911461 2.912990 2.912477 2.912246 2.911389 2.911220 2.912035 2.911410 2.911182 2.911861 2.911343 2.910504 2.909521 2.909024 2.908383 2.907842 2.908705 2.908286 2.908148 2.907389 2.907432 2.908205 2.907502 2.908212 2.908950 2.909233 2.908313 2.907799 2.908141 2.907910 2.908183 2.907822 2.907737 2.908867 2.908685 2.908976 2.908011 2.907168 2.906950 2.906603 2.906821 2.906363 2.906195 2.907229 2.906579 2.906235 2.908725 2.908789 2.909199 2.909971 2.910065 2.910573 2.909951 2.910126 2.909720 2.909041 2.908683 2.909083 2.910005 2.910366 2.909805 2.909154 2.908792 2.908183 2.907734 2.907625 2.906649 2.907909 2.910278 2.909262 2.909742 2.909625 2.909653 2.909259 2.909647 2.909193 2.909733 2.909989 2.910976 2.911502 2.911449 2.910542 2.909503 2.908557 2.909141 2.908331 2.907333 2.906720 2.906543 2.907825 2.907710 2.907751 2.906942 2.906232 2.906734 2.906363 2.906960 2.906877 2.906374 2.905476 2.906647 2.906929 2.906624 2.906266 2.905851 2.905480 2.904726 2.904783 2.904258 2.903869 2.904585 2.904778 2.905732 2.905657 2.905681 2.906414 2.905815 2.905501 2.905324 2.905366 2.904960 2.905800 2.905635 2.905986 2.906565 2.906917 2.906340 2.906067 2.905990 2.905896 2.905624 2.905589 2.904890 2.904804 2.904179 2.903843 2.903933 2.904833 2.904274 2.903462 2.904076 2.903957 2.904363 2.904215 2.903933 2.903739 2.903539 2.902700 2.903101 2.903474 2.903464 2.902707 2.902311 2.902297 2.901683 2.900890 2.900225 2.899699 2.899117 2.900640 2.900907 2.900539 2.901036 2.900388 2.900711 2.899962 2.900799 2.901072 2.900906 2.901222 2.900317 2.899679 2.899074 2.898795 2.898123 2.897656 2.898920 2.898526 2.899737 2.899901 2.899854 2.899325 2.900720 2.901439 2.900971 2.901885 2.902497 2.902584 2.902516 2.902651 2.902305 2.901633 2.900938 2.900956 2.901114 2.900956 2.899985 2.899749 2.899519 2.899443 2.900185 2.900137 2.899450 2.900704 2.901254 2.900299 2.900066 2.900140 2.899685 2.901386 2.901892 2.900896 2.901515 2.901334 2.901786 2.902601 2.902786 2.902455 2.901918 2.901560 2.904116 2.903952 2.904502 2.904600 2.904796 2.905741 2.905643 2.906033 2.905300 2.905220 2.905524 2.905282 2.904998 2.905694 2.905175 2.905160 2.904237 2.903824 2.903308 2.902926 2.903089 2.904228 2.905175 2.905633 2.904767 2.904877 2.904316 2.903910 2.902927 2.903009 2.902396 2.902579 2.903163 2.902587 2.902485 2.903348 2.903916 2.907697 2.909292 2.908629 2.907718 2.906970 2.906119 2.907192 2.907228 2.907549 2.906957 2.906401 2.906627 2.907080 2.907014 2.906836 2.906665 2.906856 2.907594 2.907475 2.908345 2.907846 2.907933 2.907794 2.907824 2.908250 2.908403 2.908924 2.909491 2.908636 2.908735 2.909346 2.909168 2.908408 2.908563 2.908624 2.909078 2.908482 2.908176 2.907050 2.906969 2.906988 2.907025 2.906322 2.906942 2.906431 2.905878 2.905453 2.905257 2.905371 2.905220 2.906171 2.905584 2.906604 2.905890 2.905796 2.906215 2.906295 2.906427 2.905871 2.905652 2.907417 2.906574 2.906493 2.905694 2.904676 2.903829 2.904241 2.903555 2.902813 2.904519 2.904453 2.904035 2.903389 2.903612 2.904107 2.904097 2.903539 2.903426 2.903189 2.902510 2.902935 2.903207 2.902209 2.902851 2.902910 2.904266 2.904630 2.905390 2.906691 2.906187 2.907075 2.906144 2.905451 2.905123 2.905450 2.905163 2.906997 2.906670 2.906828 2.906481 2.906583 2.906398 2.907120 2.906172 2.906472 2.906916 2.906550 2.905769 2.905070 2.904746 2.905428 2.905148 2.905589 2.905720 2.904822 2.904311 2.904249 2.903696 2.902943 2.902271 2.901801 2.901195 2.900962 2.900210 2.900778 2.900724 2.900069 2.901019 2.900769 2.900148 2.901690 2.902677 2.906215 2.905409 2.904647 2.903616 2.903657 2.902823 2.905415 2.905204 2.905224 2.904670 2.904071 2.903991 2.904834 2.904632 2.904097 2.903310 2.903067 2.903072 2.903344 2.902836 2.902635 2.903094 2.902643 2.902908 2.902749 2.903060 2.903085 2.902376 2.902091 2.902197 2.903752 2.904172 2.904120 2.904200 2.905180 2.906393 2.907258 2.906911 2.907461 2.907540 2.908453 2.909648 2.909717 2.908940 2.908554 2.908688 2.908478 2.908816 2.908465 2.907730 2.907258 2.906614 2.908236 2.907241 2.906760 2.906362 2.906152 2.907619 2.908286 2.908989 2.909098 2.908735 2.909359 2.909551 2.908874 2.909022 2.908645 2.910005 2.909475 2.909007 2.908184 2.907755 2.908660 2.907964 2.907363 2.909379 2.909190 2.909197 2.911002 2.911803 2.912366 2.912298 2.911570 2.912091 2.911420 2.910900 2.911477 2.913555 2.912960 2.912536 2.912891 2.913146 2.912713 2.912641 2.913622 2.914043 2.914662 2.914461 2.913927 2.914132 2.913701 2.912972 2.912315 2.911952 2.911705 2.911706 2.911986 2.911849 2.910853 2.910692 2.910243 2.910631 2.910755 2.910851 2.910632 2.910702 2.910044 2.909312 2.909058 2.909394 2.908743 2.908229 2.907843 2.908696 2.908514 2.908956 2.908407 2.907870 2.907497 2.907176 2.906739 2.905890 2.905162 2.905047 2.906013 2.905643 2.905063 2.904461 2.904022 2.903351 2.903538 2.903267 2.902904 2.902867 2.903635 2.903439 2.903744 2.904595 2.904118 2.903899 2.902990 2.903092 2.902805 2.903040 2.902024 2.902114 2.902099 2.901977 2.901832 2.903043 2.903373 2.902417 2.902506 2.902521 2.902032 2.901413 2.901365 2.900627 2.901340 2.900587 2.900455 2.899805 2.899421 2.898830 2.898218 2.899269 2.898982 2.898603 2.898235 2.897971 2.898242 2.897681 2.897611 2.898462 2.900511 2.901520 2.900681 2.900556 2.900529 2.900129 2.899874 2.899614 2.899020 2.898255 2.897893 2.897578 2.897114 2.898104 2.897757 2.898258 2.897943 2.897205 2.896873 2.896191 2.896512 2.898454 2.898443 2.897643 2.897150 2.896713 2.896297 2.896210 2.896071 2.895917 2.896001 2.896622 2.896223 2.896928 2.896668 2.896109 2.896475 2.896067 2.895947 2.896470 2.895763 2.895652 2.897505 2.897441 2.896841 2.896446 2.896500 2.898702 2.899348 2.899177 2.898869 2.899220 2.899002 2.899701 2.900004 2.900054 2.900423 2.900371 2.899867 2.900029 2.899698 2.899230 2.898796 2.899491 2.900996 2.900698 2.900520 2.900236 2.899930 2.899609 2.899466 2.899199 2.900161 2.900049 2.899711 2.899507 2.899410 2.898705 2.898122 2.899278 2.899108 2.899403 2.899339 2.899065 2.900374 2.899877 2.899284 2.899437 2.898470 2.898571 2.898864 2.898027 2.898646 2.898604 2.898492 2.897564 2.896866 2.897199 2.896387 2.896705 2.895819 2.895118 2.895064 2.894450 2.893839 2.893716 2.893959 2.894138 2.894196 2.894193 2.894405 2.895189 2.896967 2.898065 2.898252 2.898568 2.897837 2.897640 2.897606 2.898070 2.897627 2.898804 2.898607 2.898831 2.898265 2.897888 2.897583 2.897948 2.898682 2.899909 2.899046 2.898547 2.898713 2.899463 2.900323 2.900499 2.900268 2.900019 2.901257 2.901795 2.902157 2.902835 2.902226 2.902566 2.901811 2.901859 2.902525 2.903633 2.903388 2.902937 2.902900 2.903242 2.902821 2.902174 2.901855 2.901192 2.901092 2.900135 2.900066 2.899101 2.900393 2.900891 2.901539 2.901398 2.901958 2.902337 2.902169 2.901396 2.902524 2.902840 2.903461 2.903580 2.904062 2.903707 2.904287 2.904535 2.905050 2.904443 2.904756 2.904276 2.905057 2.905950 2.905457 2.907114 2.907651 2.907137 2.906872 2.906284 2.907466 2.908550 2.909125 2.910509 2.911403 2.911803 2.911452 2.911089 2.911775 2.911627 2.911035 2.911552 2.911496 2.910931 2.910375 2.910852 2.910272 2.910221 2.910272 2.910434 2.909886 2.910043 2.910165 2.909581 2.909656 2.910015 2.909227 2.909405 2.909191 2.908712 2.908171 2.908358 2.907700 2.908120 2.908009 2.907745 2.907407 2.907562 2.907875 2.907989 2.907861 2.907803 2.907377 2.907946 2.907337 2.906520 2.906203 2.906167 2.905710 2.905266 2.904457 2.904383 2.903815 2.903533 2.903620 2.904828 2.905153 2.905048 2.904996 2.906404 2.907870 2.908109 2.909895 2.909673 2.909667 2.909882 2.910209 2.909285 2.909751 2.908861 2.908646 2.908839 2.907960 2.907812 2.907501 2.908323 2.908078 2.907159 2.907495 2.906698 2.905956 2.906716 2.906815 2.906801 2.906429 2.906226 2.907357 2.906949 2.907345 2.908043 2.908143 2.907540 2.906874 2.908332 2.908704 2.908819 2.908441 2.909625 2.909673 2.909750 2.909742 2.909844 2.909761 2.910007 2.909499 2.910942 2.911022 2.911040 2.912631 2.913270 2.913185 2.912804 2.912197 2.912632 2.912916 2.913482 2.912550 2.912594 2.912169 2.912829 2.912724 2.912048 2.912787 2.911924 2.913071 2.914701 2.914754 2.913908 2.914048 2.914439 2.914857 2.915093 2.915276 2.915040 2.915159 2.914599 2.913815 2.913238 2.912803 2.912297 2.912329 2.912159 2.911140 2.911033 2.910340 2.910395 2.910428 2.910069 2.909364 2.909009 2.908210 2.908326 2.907210 2.906894 2.907524 2.907475 2.908119 2.907759 2.908979 2.908582 2.908794 2.908170 2.909694 2.909791 2.909190 2.908854 2.908927 2.909192 2.909256 2.911647 2.910785 2.911556 2.910979 2.910934 2.910859 2.910440 2.909914 2.909415 2.908842 2.908562 2.908325 2.907789 2.907604 2.907194 2.907475 2.907809 2.910596 2.909678 2.909825 2.910217 2.909621 2.909738 2.909735 2.910582 2.910868 2.910330 2.910258 2.910274 2.910621 2.910097 2.910976 2.910705 2.911206 2.911278 2.912185 2.911814 2.911296 2.911971 2.912034 2.912318 2.912077 2.913467 2.914157 2.913800 2.913247 2.913769 2.914120 2.913929 2.913820 2.913835 2.914490 2.914837 2.914846 2.914877 2.914051 2.914692 2.914950 2.915676 2.916008 2.915953 2.917198 2.918480 2.917901 2.917479 2.918056 2.917962 2.917869 2.917360 2.917533 2.917430 2.917292 2.917028 2.917699 2.917303 2.916680 2.917940 2.917586 2.918336 2.918732 2.918525 2.917508 2.917865 2.918441 2.918577 2.918265 2.918024 2.920106 2.919953 2.919786 2.919085 2.919895 2.920197 2.919961 2.920459 2.921545 2.921667 2.921045 2.920335 2.921008 2.920354 2.919694 2.919499 2.918952 2.919262 2.918771 2.918793 2.918356 2.918721 2.920156 2.920763 2.920890 2.920602 2.920411 2.919991 2.920699 2.919954 2.919772 2.919692 2.919597 2.919120 2.919630 2.919409 2.918688 2.918083 2.919395 2.919600 2.919231 2.919978 2.919651 2.919880 2.919573 2.919444 2.919401 2.919355 2.920194 2.920390 2.920239 2.920131 2.920628 2.921726 2.921948 2.922210 2.922003 2.923014 2.923167 2.922584 2.922224 2.921852 2.922031 2.921660 2.920895 2.922386 2.922388 2.922881 2.922310 2.922537 2.922359 2.923500 2.923254 2.922864 2.923236 2.922901 2.923102 2.923138 2.922207 2.923629 2.923557 2.923996 2.924392 2.924327 2.924386 2.924000 2.923452 2.924284 2.923677 2.924428 2.924165 2.924208 2.923910 2.924990 2.924576 2.925073 2.924621 2.925354 2.924912 2.924617 2.925993 2.926246 2.925858 2.925323 2.925313 2.924999 2.924460 2.924177 2.924036 2.923554 2.924044 2.923101 2.922604 2.922112 2.922966 2.923303 2.922546 2.922838 2.922392 2.921980 2.921307 2.921261 2.921352 2.922653 2.922972 2.922472 2.923361 2.923766 2.923306 2.922489 2.922421 2.922829 2.922349 2.921580 2.920772 2.920461 2.920546 2.920461 2.919630 2.919528 2.919213 2.919174 2.919730 2.918701 2.918954 2.918556 2.917958 2.917206 2.917179 2.917452 2.917154 2.917148 2.917435 2.917599 2.917773 2.917154 2.917423 2.917329 2.917167 2.916859 2.917183 2.917451 2.916763 2.917061 2.916774 2.917581 2.918111 2.918952 2.918995 2.919096 2.918933 2.918610 2.917889 2.917315 2.917481 2.917731 2.917185 2.916761 2.916330 2.916853 2.916638 2.917265 2.917329 2.917639 2.917560 2.917272 2.917221 2.917034 2.917055 2.916837 2.916947 2.916590 2.916427 2.916143 2.915976 2.915698 2.915913 2.915074 2.915134 2.914554 2.914636 2.915143 2.914461 2.913724 2.915054 2.914663 2.914559 2.914332 2.914925 2.914667 2.915026 2.918084 2.917949 2.918042 2.917264 2.917580 2.917498 2.917595 2.918607 2.918761 2.919920 2.920142 2.920414 2.919621 2.920611 2.920193 2.919690 2.920285 2.920389 2.920332 2.922485 2.922799 2.922689 2.922176 2.922696 2.923975 2.923490 2.923455 2.922701 2.921890 2.922311 2.921713 2.921543 2.921591 2.921433 2.921121 2.921104 2.921269 2.921104 2.921329 2.921228 2.920281 2.920468 2.920548 2.920222 2.921066 2.920391 2.919975 2.920104 2.919991 2.919243 2.918614 2.919402 2.919713 2.920656 2.920294 2.920735 2.920139 2.920029 2.920671 2.920539 2.919821 2.920915 2.920415 2.920486 2.920095 2.920341 2.919721 2.920102 2.920140 2.919551 2.918945 2.918961 2.918166 2.917841 2.916958 2.916947 2.916390 2.916261 2.917122 2.916968 2.917036 2.917432 2.917834 2.919241 2.918892 2.918535 2.920528 2.920640 2.919697 2.919829 2.920193 2.919630 2.918938 2.918883 2.921360 2.920982 2.920274 2.919618 2.919635 2.919146 2.919411 2.920184 2.920809 2.920738 2.920511 2.920592 2.920520 2.921014 2.921393 2.922075 2.922276 2.922258 2.923756 2.924437 2.924158 2.923575 2.923845 2.923747 2.923308 2.924567 2.924215 2.925521 2.925442 2.925302 2.924733 2.925146 2.925087 2.924969 2.925729 2.926002 2.926023 2.925834 2.927208 2.926588 2.927509 2.927549 2.927200 2.927117 2.927446 2.927756 2.927739 2.927776 2.927497 2.927496 2.927795 2.927620 2.928127 2.928222 2.928388 2.927804 2.927342 2.926591 2.926834 2.926697 2.926965 2.927469 2.926715 2.927027 2.926622 2.926018 2.926313 2.926146 2.925958 2.927312 2.926396 2.926006 2.925848 2.927702 2.927285 2.927074 2.928109 2.927819 2.928906 2.928512 2.928285 2.928442 2.928808 2.928891 2.931748 2.930941 2.930354 2.929739 2.931395 2.931239 2.930528 2.930817 2.931785 2.932065 2.931817 2.931501 2.931117 2.930613 2.930201 2.929634 2.929119 2.929019 2.929685 2.929577 2.929037 2.930592 2.930396 2.930133 2.930441 2.930774 2.931067 2.931617 2.933021 2.935249 2.936566 2.936740 2.936329 2.935756 2.935339 2.936369 2.935700 2.935486 2.935081 2.934489 2.933729 2.933595 2.933433 2.933329 2.933736 2.933330 2.933057 2.933511 2.933537 2.932778 2.932525 2.932771 2.932650 2.933420 2.933249 2.934140 2.933744 2.934316 2.933487 2.932693 2.932518 2.932123 2.932122 2.933072 2.933100 2.933366 2.933126 2.932864 2.932648 2.933376 2.934216 2.936625 2.936277 2.935637 2.936042 2.936494 2.936655 2.937667 2.937937 2.937696 2.939249 2.939190 2.938953 2.938577 2.937932 2.938594 2.939057 2.939018 2.938959 2.938981 2.939141 2.939216 2.938493 2.938847 2.938118 2.939069 2.938702 2.938719 2.938768 2.939532 2.939534 2.938657 2.938624 2.937907 2.938566 2.938813 2.938170 2.937648 2.938712 2.938308 2.939861 2.940700 2.939901 2.940306 2.940359 2.940615 2.939782 2.939284 2.938664 2.938611 2.938438 2.938699 2.938659 2.939138 2.938859 2.938138 2.937994 2.939184 2.938657 2.938960 2.939085 2.938902 2.938600 2.938193 2.938448 2.938332 2.938541 2.939437 2.939458 2.939687 2.939168 2.939093 2.939085 2.938763 2.938534 2.938355 2.938409 2.937961 2.937257 2.938048 2.938695 2.938933 2.939016 2.939595 2.939679 2.939111 2.938951 2.938685 2.940074 2.940022 2.940864 2.940373 2.939743 2.939667 2.939457 2.938867 2.938878 2.939014 2.938449 2.939414 2.940403 2.940191 2.940054 2.939550 2.939587 2.939926 2.940388 2.941104 2.940979 2.940319 2.941555 2.941694 2.941744 2.942081 2.941962 2.941618 2.941005 2.940711 2.941072 2.940602 2.941352 2.940843 2.940159 2.941260 2.941723 2.941721 2.941727 2.941607 2.941266 2.942261 2.942335 2.942384 2.942838 2.942467 2.942213 2.941570 2.941162 2.940805 2.940457 2.941223 2.941045 2.941082 2.941280 2.941334 2.940920 2.940555 2.940468 2.940696 2.940252 2.939587 2.940201 2.939781 2.939390 2.939587 2.938628 2.939710 2.938958 2.939849 2.939729 2.939410 2.939222 2.940022 2.939685 2.939717 2.941019 2.941017 2.940871 2.941155 2.941174 2.941745 2.941362 2.941521 2.942944 2.943719 2.943475 2.942736 2.943379 2.943216 2.944648 2.943997 2.945581 2.946474 2.946112 2.947362 2.947894 2.948715 2.948413 2.948282 2.947658 2.947115 2.947043 2.946551 2.946773 2.947059 2.946436 2.945768 2.946638 2.946909 2.947536 2.946726 2.946665 2.947427 2.947389 2.947792 2.950682 2.949995 2.949395 2.948649 2.949215 2.948867 2.949875 2.949781 2.949024 2.948581 2.948501 2.948120 2.947818 2.947846 2.947542 2.947439 2.948037 2.947681 2.948068 2.948525 2.947870 2.947889 2.949087 2.948624 2.948345 2.949492 2.948781 2.950111 2.949763 2.949592 2.949449 2.949543 2.949958 2.949590 2.948949 2.948926 2.948795 2.949331 2.948925 2.948664 2.949585 2.948950 2.949227 2.948876 2.950230 2.951305 2.950999 2.950956 2.951346 2.951602 2.951663 2.951688 2.951432 2.950875 2.951491 2.951760 2.951611 2.950826 2.951144 2.951378 2.951738 2.951963 2.951210 2.951980 2.954370 2.954528 2.955018 2.955203 2.955750 2.956167 2.957939 2.957990 2.957864 2.957956 2.957924 2.957623 2.958855 2.959513 2.958939 2.959119 2.959400 2.959264 2.959086 2.959404 2.959183 2.958735 2.958266 2.959791 2.960035 2.960982 2.961169 2.962391 2.962177 2.963205 2.962292 2.961898 2.962078 2.961094 2.960675 2.960543 2.959758 2.959958 2.960178 2.959581 2.958803 2.959307 2.960243 2.960344 2.960278 2.959630 2.959810 2.959624 2.961099 2.960657 2.963626 2.963131 2.963890 2.964961 2.965647 2.965594 2.965227 2.965003 2.964658 2.965731 2.965521 2.965423 2.965740 2.965851 2.966429 2.965716 2.966070 2.966388 2.966981 2.966714 2.967046 2.967005 2.966659 2.967287 2.966440 2.968053 2.968557 2.969616 2.969811 2.969294 2.969878 2.970011 2.970130 2.970709 2.970392 2.971285 2.971974 2.971409 2.971168 2.970945 2.971010 2.970876 2.969873 2.969641 2.969556 2.968887 2.970429 2.970000 2.969538 2.970210 2.969573 2.970349 2.970990 2.970284 2.970726 2.970745 2.970231 2.970186 2.970682 2.970423 2.970323 2.970228 2.970019 2.971055 2.970324 2.969709 2.971289 2.971695 2.971160 2.971069 2.970636 2.971340 2.972484 2.972271 2.971856 2.971264 2.970758 2.971563 2.971503 2.971242 2.970990 2.970927 2.971674 2.971297 2.972219 2.972593 2.972702 2.972288 2.971730 2.971466 2.972007 2.972149 2.971913 2.971969 2.971897 2.973795 2.973081 2.973178 2.973574 2.973248 2.976359 2.976322 2.976305 2.976600 2.977166 2.976704 2.976842 2.976708 2.976754 2.976894 2.976476 2.976208 2.976555 2.976285 2.975602 2.975367 2.975364 2.975061 2.975212 2.975290 2.975083 2.974692 2.974246 2.973621 2.974216 2.974861 2.974673 2.973925 2.975070 2.975346 2.974340 2.973534 2.973713 2.973639 2.974241 2.974659 2.975134 2.974698 2.974137 2.974990 2.976549 2.976164 2.976227 2.975505 2.974896 2.974788 2.974826 2.975247 2.974834 2.975118 2.974936 2.974378 2.974393 2.975729 2.975224 2.975941 2.976027 2.975586 2.975084 2.975993 2.975692 2.975486 2.976133 2.976001 2.975534 2.974829 2.974322 2.974271 2.973765 2.973462 2.974320 2.973838 2.973705 2.974089 2.973635 2.973364 2.973103 2.972760 2.971909 2.972096 2.971647 2.973633 2.972998 2.972221 2.972677 2.972979 2.972901 2.972520 2.972162 2.971523 2.971026 2.971706 2.972114 2.971517 2.972183 2.971824 2.971732 2.971423 2.970682 2.970418 2.970404 2.970290 2.970509 2.969778 2.969709 2.969896 2.969732 2.969432 2.970148 2.970352 2.971105 2.972043 2.972504 2.972980 2.973436 2.973067 2.974016 2.973362 2.973608 2.973791 2.974079 2.973793 2.974990 2.974429 2.974330 2.974167 2.972984 2.973243 2.972752 2.972164 2.972750 2.972576 2.972437 2.971511 2.971934 2.971632 2.970988 2.971146 2.971094 2.970741 2.970686 2.970765 2.970861 2.970630 2.970751 2.971272 2.970982 2.970535 2.970056 2.970048 2.969720 2.969927 2.970200 2.970747 2.970084 2.970289 2.970158 2.970267 2.969519 2.970525 2.970126 2.969838 2.970082 2.969780 2.969454 2.969973 2.970228 2.970051 2.970380 2.970186 2.969619 2.971233 2.971433 2.971742 2.971520 2.971661 2.971302 2.971344 2.970812 2.970668 2.971120 2.971338 2.970703 2.970658 2.971242 2.971928 2.973330 2.972704 2.972321 2.972146 2.972349 2.972198 2.972489 2.972852 2.973526 2.974001 2.974361 2.973824 2.974525 2.975401 2.975245 2.974459 2.973639 2.973451 2.973302 2.973397 2.973393 2.973126 2.972747 2.972295 2.973542 2.973385 2.972839 2.972653 2.972393 2.973261 2.972548 2.971630 2.971459 2.970909 2.970584 2.970073 2.969231 2.970038 2.970327 2.971765 2.971608 2.971540 2.972102 2.972090 2.973502 2.973159 2.973553 2.974268 2.974517 2.974863 2.974189 2.974911 2.975440 2.975799 2.975085 2.976000 2.975223 2.976363 2.976571 2.977554 2.978019 2.978148 2.977724 2.977394 2.978554 2.978494 2.979803 2.979450 2.979113 2.978532 2.977927 2.977369 2.977395 2.976983 2.977403 2.978102 2.978170 2.978525 2.979159 2.978488 2.980023 2.980462 2.980121 2.979580 2.978984 2.980083 2.979636 2.979347 2.979546 2.979728 2.979422 2.979792 2.981230 2.981600 2.981229 2.980773 2.981351 2.981227 2.980636 2.980718 2.981359 2.981158 2.980939 2.981545 2.981100 2.983282 2.984025 2.983869 2.984686 2.985496 2.986099 2.986642 2.986339 2.986357 2.987615 2.987849 2.987395 2.988661 2.988152 2.988956 2.988256 2.988503 2.989684 2.989589 2.988910 2.988612 2.990393 2.991113 2.991149 2.990572 2.990885 2.990205 2.991381 2.990596 2.990147 2.989875 2.989645 2.990324 2.990602 2.990474 2.990169 2.989631 2.989444 2.990217 2.990383 2.991682 2.992501 2.993130 2.993450 2.993108 2.993821 2.993850 2.994512 2.994206 2.993569 2.993598 2.993255 2.993595 2.993659 2.993723 2.993371 2.994650 2.994262 2.994744 2.995041 2.994655 2.993995 2.993751 2.994428 2.995592 2.995330 2.995527 2.995980 2.995329 2.995765 2.995566 2.996972 2.997092 2.997292 2.997193 2.997079 2.997160 2.996514 2.998289 2.997950 2.999322 2.998913 2.999219 2.998757 2.999312 2.999671 2.999475 2.998559 2.998554 2.997879 2.997307 2.996583 2.996670 2.996280 2.997695 2.998104 2.998728 2.999581 3.000234 2.999734 3.000571 3.000236 3.000333 3.000620 3.000691 3.000163 2.999528 2.999970 2.999877 2.999733 2.999143 2.999908 3.000103 2.999365 2.999505 2.999305 3.000867 3.001448 3.001914 3.002927 3.003099 3.003279 3.003286 3.002658 3.002100 3.002983 3.003103 3.003184 3.002469 3.002330 3.003288 3.003746 3.003710 3.004107 3.004399 3.004959 3.004675 3.004327 3.005015 3.006315 3.005982 3.005009 3.005155 3.006221 3.006097 3.006293 3.006934 3.007104 3.007339 3.006867 3.006746 3.005915 3.005731 3.005296 3.005944 3.005801 3.006440 3.006187 3.005516 3.005430 3.006052 3.005291 3.004776 3.005353 3.006012 3.005975 3.006196 3.006092 3.005143 3.005793 3.006106 3.005930 3.005467 3.006529 3.006663 3.006847 3.006249 3.006626 3.006605 3.006160 3.005504 3.004907 3.004826 3.004666 3.003917 3.003785 3.003790 3.003173 3.002339 3.001560 3.001131 3.001507 3.001357 3.001267 3.000964 3.000833 3.000510 3.000109 3.000024 2.998995 2.999809 2.999235 2.999294 2.999166 2.999945 3.002011 3.001723 3.001579 3.002648 3.002258 3.003520 3.002887 3.003040 3.002617 3.002230 3.002732 3.002533 3.002485 3.001878 3.001904 3.002026 3.001080 3.000263 3.000702 3.001052 3.000769 3.000920 3.000898 3.001863 3.003358 3.003957 3.003911 3.004193 3.005207 3.004567 3.004338 3.003449 3.002970 3.003750 3.003007 3.004134 3.003816 3.003746 3.004424 3.004094 3.004871 3.004392 3.004494 3.005032 3.005255 3.004809 3.007324 3.006755 3.006420 3.005937 3.005492 3.005569 3.006110 3.005714 3.006273 3.005693 3.006134 3.006586 3.006681 3.006914 3.007421 3.007135 3.007499 3.007235 3.006445 3.006355 3.007202 3.007971 3.007427 3.007046 3.006995 3.006531 3.006456 3.006314 3.006294 3.005693 3.005307 3.004986 3.004802 3.005927 3.006119 3.005439 3.005466 3.005007 3.004869 3.005252 3.004844 3.004962 3.005770 3.005328 3.004992 3.005119 3.005202 3.005337 3.005315 3.005997 3.006435 3.006567 3.007424 3.007654 3.007254 3.007200 3.007635 3.007029 3.007588 3.008559 3.008941 3.009939 3.009129 3.009959 3.009925 3.009586 3.008838 3.009176 3.009786 3.009216 3.008737 3.008431 3.009555 3.008778 3.008756 3.008449 3.008051 3.008953 3.009318 3.008735 3.008779 3.008696 3.009567 3.009232 3.008738 3.009083 3.008819 3.009356 3.009687 3.009870 3.012134 3.012745 3.013376 3.013774 3.014030 3.013016 3.012765 3.012716 3.012413 3.012626 3.012742 3.012966 3.013452 3.013985 3.013872 3.013845 3.013933 3.013963 3.013736 3.013096 3.013098 3.012284 3.013480 3.013230 3.012705 3.013293 3.014188 3.013468 3.013065 3.012944 3.012372 3.011785 3.011766 3.012742 3.012583 3.012681 3.012203 3.011907 3.012110 3.011412 3.012550 3.012065 3.011814 3.012056 3.013021 3.013232 3.013076 3.012757 3.013860 3.013569 3.013541 3.014191 3.013651 3.013683 3.015056 3.015468 3.016504 3.015886 3.015293 3.014916 3.014823 3.015157 3.015170 3.014651 3.014274 3.014483 3.014207 3.013857 3.015091 3.014725 3.014768 3.014735 3.014852 3.014695 3.014628 3.015170 3.016237 3.016354 3.016483 3.016751 3.017170 3.017266 3.017615 3.017431 3.017217 3.016730 3.016438 3.016627 3.016315 3.016036 3.015653 3.015134 3.015269 3.015110 3.014628 3.014682 3.014878 3.016011 3.016170 3.015503 3.015157 3.015560 3.015248 3.014970 3.014328 3.014004 3.013623 3.013712 3.013635 3.012935 3.012944 3.012381 3.012410 3.012543 3.012438 3.012510 3.011812 3.011236 3.012026 3.012089 3.011670 3.013380 3.012699 3.012334 3.011609 3.012372 3.011681 3.011025 3.011752 3.011148 3.010532 3.010266 3.010503 3.011916 3.011708 3.013336 3.013001 3.012689 3.012676 3.012036 3.011182 3.010716 3.010268 3.010457 3.009906 3.012349 3.012503 3.012489 3.013028 3.013289 3.013180 3.013222 3.013988 3.013352 3.013952 3.013896 3.013600 3.013033 3.013252 3.013521 3.013548 3.013229 3.013484 3.012832 3.014703 3.013974 3.013818 3.013698 3.013876 3.013615 3.013066 3.012878 3.012272 3.013376 3.012611 3.013233 3.012880 3.012612 3.013300 3.014014 3.015088 3.014265 3.014013 3.013425 3.013397 3.012577 3.012287 3.011754 3.011801 3.011230 3.010757 3.011154 3.011203 3.011343 3.010825 3.011708 3.010948 3.011021 3.010691 3.011094 3.010791 3.010435 3.010594 3.010845 3.011203 3.010846 3.011736 3.011390 3.011408 3.012727 3.011955 3.011496 3.011192 3.012182 3.011646 3.012479 3.012587 3.013387 3.012697 3.012055 3.011553 3.011281 3.011050 3.010692 3.011246 3.011040 3.010861 3.010352 3.010234 3.010164 3.009698 3.009096 3.009969 3.009620 3.009940 3.009770 3.009794 3.009155 3.008728 3.008284 3.007639 3.007524 3.007375 3.007798 3.007935 3.007784 3.007820 3.007426 3.006885 3.006743 3.006056 3.006812 3.006294 3.005723 3.004810 3.004966 3.004598 3.004464 3.005064 3.005219 3.004733 3.004836 3.005065 3.004562 3.004847 3.005290 3.004920 3.005491 3.005511 3.004541 3.004160 3.003734 3.004401 3.004831 3.005058 3.005285 3.006385 3.006359 3.006011 3.005969 3.005855 3.005835 3.006150 3.006375 3.008353 3.007915 3.007049 3.006828 3.006219 3.005542 3.005518 3.005104 3.004145 3.004261 3.004467 3.005154 3.005993 3.006476 3.007192 3.007509 3.007930 3.007794 3.006946 3.006623 3.006084 3.005891 3.005487 3.005297 3.005079 3.005510 3.006706 3.006827 3.007004 3.007190 3.007147 3.006629 3.006663 3.006691 3.006290 3.007279 3.008869 3.008480 3.007678 3.008783 3.009123 3.009348 3.008957 3.009831 3.009391 3.010294 3.009630 3.009138 3.009997 3.010042 3.010840 3.010027 3.009520 3.010425 3.012275 3.011767 3.011671 3.010747 3.010782 3.010018 3.010040 3.010238 3.010308 3.010702 3.010616 3.011977 3.011192 3.010999 3.010990 3.011618 3.011939 3.012131 3.013338 3.014227 3.013506 3.012894 3.013528 3.013217 3.012992 3.014419 3.014115 3.013703 3.013043 3.013759 3.013340 3.014289 3.014282 3.013503 3.013895 3.013749 3.013229 3.013694 3.012933 3.013328 3.012992 3.012903 3.013698 3.013504 3.014306 3.014100 3.014368 3.015307 3.016149 3.016054 3.016864 3.016065 3.017655 3.017218 3.017498 3.017702 3.017901 3.018309 3.018039 3.017170 3.016483 3.016601 3.017163 3.016545 3.016434 3.016630 3.016181 3.016195 3.017273 3.017149 3.016505 3.016391 3.016794 3.016942 3.017084 3.017024 3.017919 3.017537 3.017215 3.016684 3.017272 3.016416 3.017831 3.017500 3.017337 3.016877 3.016554 3.015566 3.015912 3.015752 3.016219 3.015877 3.016317 3.016205 3.016072 3.015497 3.015476 3.015349 3.015373 3.015807 3.015242 3.014889 3.015525 3.014601 3.014238 3.013863 3.014295 3.013784 3.012992 3.013315 3.013359 3.013743 3.014184 3.013696 3.012720 3.012424 3.012127 3.012818 3.012342 3.012104 3.012170 3.011712 3.011320 3.011880 3.011551 3.011521 3.011107 3.011507 3.011229 3.010799 3.010139 3.010157 3.009715 3.009134 3.008774 3.008276 3.008515 3.008128 3.007778 3.008306 3.007794 3.008595 3.008579 3.009359 3.010062 3.010720 3.011471 3.012161 3.012968 3.012375 3.012351 3.013432 3.012503 3.013404 3.014364 3.014033 3.014779 3.015092 3.014639 3.014675 3.014023 3.013630 3.012627 3.012441 3.013169 3.012622 3.012435 3.013215 3.012638 3.012707 3.013116 3.013993 3.013726 3.013091 3.012921 3.012321 3.011790 3.011699 3.011228 3.010923 3.011176 3.010691 3.011343 3.010677 3.010162 3.010097 3.010157 3.009524 3.008956 3.008721 3.009421 3.009830 3.009218 3.010076 3.011659 3.012942 3.012930 3.013137 3.012770 3.012519 3.012737 3.014199 3.014553 3.014003 3.013685 3.013835 3.013270 3.013479 3.013267 3.012677 3.012723 3.012177 3.011772 3.011354 3.010836 3.011672 3.011722 3.011948 3.013705 3.013906 3.013877 3.013904 3.014309 3.013425 3.012971 3.012878 3.013039 3.012917 3.012408 3.012723 3.011983 3.011937 3.011192 3.011084 3.010325 3.010609 3.010154 3.010912 3.010683 3.010494 3.010295 3.010163 3.009771 3.009254 3.011169 3.011271 3.011429 3.011917 3.011960 3.011697 3.010940 3.010953 3.010086 3.009509 3.009799 3.009570 3.009398 3.010208 3.009758 3.009273 3.008923 3.009147 3.008767 3.009050 3.008436 3.008406 3.007541 3.007099 3.006920 3.007277 3.008122 3.008247 3.009500 3.008965 3.009067 3.009182 3.009305 3.009010 3.009398 3.009633 3.010022 3.011254 3.011981 3.011570 3.010855 3.010251 3.009821 3.009532 3.009575 3.009494 3.009874 3.009523 3.009709 3.009181 3.009041 3.008831 3.008912 3.009144 3.008806 3.008404 3.007852 3.007706 3.007493 3.007866 3.007348 3.007663 3.007511 3.007410 3.007990 3.007791 3.008018 3.007676 3.007859 3.007362 3.007902 3.007960 3.007950 3.007227 3.007199 3.006710 3.006222 3.005888 3.005247 3.005227 3.005806 3.004781 3.004335 3.004772 3.004719 3.004809 3.004032 3.004390 3.005183 3.004934 3.005143 3.005738 3.006021 3.005267 3.004959 3.005624 3.005653 3.005601 3.006653 3.007488 3.006580 3.006869 3.006866 3.007721 3.008259 3.007675 3.007551 3.007982 3.009707 3.009346 3.008900 3.009229 3.008995 3.010149 3.010404 3.010730 3.010861 3.011083 3.011274 3.012075 3.012267 3.011916 3.011994 3.012716 3.012717 3.012705 3.012834 3.012144 3.011544 3.011018 3.010588 3.009755 3.009515 3.010067 3.009663 3.009520 3.009865 3.010410 3.009731 3.009492 3.008906 3.008664 3.008475 3.008941 3.009540 3.009113 3.010123 3.009509 3.009398 3.009292 3.009998 3.009844 3.009315 3.009130 3.009964 3.009810 3.009562 3.009287 3.009173 3.009037 3.008483 3.008578 3.009009 3.008594 3.008652 3.008248 3.009061 3.009852 3.009200 3.010015 3.010502 3.010529 3.010623 3.010815 3.010798 3.010490 3.010192 3.010066 3.009717 3.009235 3.009945 3.010068 3.010963 3.011454 3.012009 3.011909 3.011659 3.011516 3.011571 3.011267 3.011272 3.011265 3.011569 3.010970 3.010985 3.011438 3.011274 3.011357 3.011267 3.011319 3.010866 3.012299 3.012009 3.012277 3.013315 3.013184 3.013409 3.014375 3.014581 3.014282 3.014354 3.013668 3.013601 3.013502 3.013326 3.012848 3.012758 3.012865 3.012483 3.013459 3.012527 3.013750 3.013623 3.013799 3.015458 3.015165 3.015280 3.015178 3.016038 3.015667 3.014926 3.017038 3.016820 3.017768 3.016937 3.016731 3.016395 3.016653 3.016276 3.016773 3.016842 3.015839 3.016301 3.015466 3.015567 3.014860 3.015532 3.015338 3.015501 3.014722 3.015050 3.015501 3.015349 3.015669 3.016366 3.016392 3.015486 3.016356 3.016552 3.016742 3.016154 3.016139 3.015743 3.015201 3.014718 3.014016 3.013663 3.013123 3.013851 3.013612 3.013476 3.014641 3.014397 3.014367 3.014437 3.014879 3.015443 3.015579 3.016163 3.016228 3.015978 3.015155 3.014989 3.015212 3.015511 3.015041 3.014741 3.014823 3.014457 3.015401 3.015196 3.015562 3.014987 3.014295 3.014883 3.015276 3.014579 3.014340 3.013603 3.013436 3.012914 3.012703 3.012601 3.013576 3.013438 3.012893 3.012940 3.013272 3.013859 3.014334 3.014698 3.014247 3.013988 3.013685 3.013524 
