-2.851810 3.893692 -2.535151 4.208212 -0.027216 0.127388 4.672027 -1.762111 4.975978 1.541625 -0.766626 -0.200377 2.173069 1.846089 5.854255 -1.765846 -0.440132 4.029557 -5.125291 -3.852616 0.880616 -0.001463 -2.529549 -1.464888 -4.835379 -1.403881 -1.070366 1.602542 -3.666549 -2.842147 0.252150 -3.882172 -9.486817 3.492248 -4.868088 0.364112 -4.109346 4.158223 0.988298 3.826840 3.710673 -3.098413 -2.693119 -4.107271 0.272669 3.678873 -2.214155 0.999846 3.679672 -7.068662 1.963277 1.041524 0.169858 -0.771658 1.711029 -2.630848 4.912298 -0.184601 -3.658343 3.117864 0.129792 4.256845 -3.185179 0.142712 0.314013 -2.017906 -5.750818 -0.293928 0.853836 -1.707662 3.131184 5.489614 -3.988996 -2.123150 0.980268 -1.931159 1.742785 -1.356535 5.540154 2.241906 3.016843 1.503187 -2.720567 2.050618 -3.360007 -3.548212 0.996484 -2.007586 -1.205503 -0.313397 -1.866827 9.818198 -1.287852 1.970912 3.949593 1.082406 3.331100 2.874153 -0.066234 -2.167754 4.669897 1.753544 3.461474 0.768358 -3.095182 2.244407 -0.312704 6.164890 0.143253 4.600287 -0.080087 3.058655 2.969182 -3.887077 -3.452978 -0.785661 -6.021112 1.723412 0.941562 5.558028 0.693034 -4.524739 2.059624 1.475296 2.539574 -0.567058 -0.857045 -0.332974 2.417516 2.629865 -4.053921 -3.294109 3.929755 2.540457 -2.341649 3.025938 -3.805415 6.181755 -1.342087 1.568568 0.951489 2.803033 0.215711 0.857941 -8.108449 7.217914 0.364049 -1.628754 -7.772511 -1.254174 0.702114 0.475358 -4.158630 -0.589579 -3.190269 -1.753554 3.218258 0.318168 -0.173857 2.441777 2.442020 -4.122840 1.398117 -1.237013 -5.918576 -2.986033 -0.406459 5.602803 2.202733 -1.628643 0.108999 -1.694459 -1.263847 -1.542504 1.975894 -1.550361 -3.412487 0.446815 7.551110 1.564095 -0.323871 -4.174878 -1.101049 2.769572 -0.551383 3.573282 -1.694522 1.393292 -0.016106 -1.656978 -1.407341 -1.845980 -0.109363 -0.343605 -0.399569 -1.925365 -5.535566 -1.769142 4.848635 3.012374 -2.123810 3.344328 1.059982 -0.781611 6.435891 0.406934 -0.235801 -4.671680 -1.200599 -1.211687 -1.595610 0.743608 -6.137550 -4.749764 1.119188 -3.898717 -0.960411 -1.108507 1.186787 -1.128953 -0.393065 -1.997842 2.665550 1.629244 3.546940 0.514516 3.029980 0.514763 0.880518 -5.908390 -0.488318 -1.457350 2.523895 1.584728 1.727264 -2.348171 1.439009 -7.361737 2.935571 -1.346987 0.251059 -0.243919 -6.209719 0.223057 4.919750 5.684434 6.783831 -5.580494 1.210412 1.227843 5.077139 -3.200344 3.432347 0.131674 -1.776755 3.733193 -0.846393 1.080631 -1.422496 -1.236856 -0.937805 -1.219901 -3.116003 -4.687513 -8.318463 -0.020279 3.531441 0.186851 -1.679850 4.015986 -0.528748 -1.962724 0.842282 -2.213474 -0.792191 -5.492406 -1.998791 -1.743795 0.599737 2.941653 -6.277343 4.189369 1.247262 0.871108 -1.303381 -1.072028 -3.318097 -0.728449 1.308070 -3.562422 -1.107084 1.683482 3.602691 0.891988 -3.235736 0.022377 -0.313246 -0.729623 -5.274219 -2.472480 -2.442851 0.002928 0.110039 2.525820 2.073756 -4.421987 -0.669129 -2.708872 -3.050180 1.110793 0.056072 -0.133451 -4.051659 -2.326737 0.772331 -2.236506 4.321485 2.791080 -2.346412 1.164540 -0.615223 4.080719 2.698956 1.705158 1.331094 3.222482 2.983174 2.791057 0.022454 -2.059361 -4.195761 2.909392 -0.703657 -3.209459 1.933558 1.833694 -0.386813 0.357325 2.782767 4.122452 0.622193 5.338656 2.235686 -0.295404 0.305827 2.604326 -0.652123 3.441488 2.522188 4.440655 3.842454 -0.354789 -1.732325 -1.257798 0.578722 -0.386703 1.093348 0.880028 -1.025435 4.551494 0.014924 0.344075 -6.345721 1.304505 2.476811 1.263482 9.935883 4.218354 -2.058467 -1.947015 3.444412 1.850394 2.001525 -3.428001 -0.378872 -2.196081 -2.855943 0.397038 -0.114787 5.801740 2.367538 0.346183 -0.680250 0.127384 2.455268 -0.745736 3.166838 -0.047503 -4.352187 1.875500 -2.531018 -2.058669 -4.124219 -1.432707 -3.723014 -3.232660 4.325282 1.299882 3.484414 1.635368 2.058494 13.078699 -2.947389 -3.974682 1.424326 2.451776 -5.294921 0.021521 -4.465170 -3.742578 3.687339 5.816420 0.036988 -3.836215 4.561938 -0.453878 1.472491 -1.108024 0.792954 0.162326 -1.695706 1.492481 -3.096635 -2.679524 2.442220 -0.755853 3.737210 0.846875 1.267623 -2.674528 -3.886026 3.534064 1.803746 0.661282 7.369275 1.822826 -1.685027 -0.124118 -1.954502 -4.596846 -7.116784 4.451794 -1.909402 -1.462185 -1.898739 -2.572048 2.714401 -0.105554 -7.074315 0.567426 -0.463466 -0.283346 0.028067 -1.678749 -1.061728 -2.957905 -2.149070 0.145010 -0.892811 1.323915 -5.341047 2.944271 0.362170 0.344270 -4.000645 -1.016420 3.083906 -2.326247 0.420595 0.679720 -4.069222 -0.518903 1.793605 5.463659 -2.754394 0.452602 1.030223 3.057203 2.476073 -4.482695 -3.707233 -7.618150 2.258527 -1.061440 2.856118 6.757232 1.767818 0.825720 -4.343074 -3.303666 0.799619 0.754535 1.739964 -1.141138 0.044972 -4.964496 1.489343 1.068076 6.336185 4.027102 1.206737 1.986825 2.824622 -1.601105 -1.096823 0.303900 -0.796408 -1.399787 3.516635 0.983887 -0.710777 -1.886124 -3.213161 -0.797977 2.889264 1.515283 -3.305435 2.378265 0.523049 3.223231 0.571947 -1.800360 -1.805667 2.632205 4.024067 3.220895 -1.634877 1.853506 -2.519404 2.699484 3.821349 -4.312765 -1.421164 1.247478 -1.092463 -0.548453 -2.661447 0.101407 4.024225 3.166179 -1.346151 -2.827340 4.762554 -7.274662 0.734222 -0.095783 1.236726 -3.636473 2.288440 2.327224 2.107624 -2.515186 -1.288072 2.688996 3.886970 -1.588276 -0.807591 -0.542716 6.449284 -5.809133 -8.557789 6.072599 -3.005224 3.939059 -0.896329 1.905209 -0.092576 -1.557873 1.699659 2.803324 -1.170887 -0.584564 -2.731838 0.532262 -1.858937 3.021656 2.131811 -2.816470 2.623483 0.299795 0.391177 0.423212 -4.288819 -1.289327 -1.522262 -1.420066 3.206829 4.471757 -0.290964 0.734059 -3.030090 0.088286 -2.865396 -0.873394 -5.971388 -0.787117 1.550289 -4.886824 -3.272471 -0.016924 3.896350 2.830719 -2.084441 1.146141 3.138888 2.732672 -4.003669 -1.113670 -1.577176 4.664505 -0.954464 1.779525 -2.855728 -3.933125 -0.557231 3.690972 -0.405588 1.545126 -0.921054 0.172817 0.567345 0.796595 -4.138559 -3.834931 -1.491819 -1.626356 2.700198 4.412189 -0.494376 0.624529 1.330312 -3.065647 1.490855 4.565389 -3.794418 7.973970 0.094987 1.201208 -4.947170 2.997912 -2.777974 -1.052481 0.687728 -1.745360 2.884972 -1.075749 4.212637 1.507588 5.439765 -4.223610 1.165174 0.657683 -1.945763 -1.899018 -1.504001 -1.636856 3.175860 2.520946 -1.689260 -3.228076 -2.103998 -1.813230 2.282586 -5.547112 1.991492 7.984619 4.712602 -1.463468 -2.089166 -1.410397 0.388844 3.529447 1.929412 -1.361889 -2.555251 -2.789657 -1.463694 -3.843567 -4.052482 -4.346917 0.216615 0.127554 0.680889 -3.021116 0.588106 0.582958 -4.120110 0.672983 1.915584 0.886986 -1.158692 -2.408578 -1.401882 3.018763 1.972325 -3.110651 -2.720371 -2.108099 4.923207 1.516166 1.264801 1.140927 -1.025481 1.919345 -4.952528 2.230636 0.782458 -0.043301 2.470566 0.165012 -1.495329 1.519911 1.075518 0.621699 1.988923 5.925442 -1.761327 -2.842420 2.808090 4.117324 0.440375 0.355786 4.716842 1.514091 3.983193 4.033066 3.328215 2.521600 0.066497 2.474104 -2.739842 -2.421552 -2.070779 2.260632 1.469188 -0.787754 0.056704 -3.673992 4.023277 3.115691 -2.275933 -3.993325 -3.129973 -0.296944 -2.659956 -4.524853 -1.563974 2.621613 0.138801 0.926503 -0.876665 -6.963227 1.158495 0.395701 -4.913513 2.135804 -0.718927 -0.017403 0.669488 -0.982033 -0.663208 3.242148 2.293971 1.724880 -0.867180 2.208689 -0.245290 -4.455905 0.732012 -0.299223 1.161581 5.252473 -4.238164 -0.230352 0.236773 -6.288069 -1.043977 0.112006 -5.233791 -2.223798 -1.465331 -2.765930 -0.013116 0.124544 0.046901 -2.604997 2.467315 -2.415905 -2.022513 -1.621892 -1.539620 -3.991794 -3.367948 1.398765 -1.509813 0.916284 3.416522 -1.468686 -2.917923 -6.450899 1.070263 -0.527028 5.114159 -4.939582 3.346258 -1.026620 -2.070746 -1.595803 0.228010 3.066574 -0.419909 2.016777 -6.301780 -0.180932 0.035722 -0.590774 0.797874 2.194496 -2.762362 0.812127 1.155162 1.206404 6.956052 0.874616 0.855609 3.151573 -1.623062 1.132123 4.816453 3.240485 -2.070562 0.924590 1.312201 -1.239839 -3.251101 8.241541 1.120141 3.163330 1.255773 -0.229605 4.444201 1.355425 -3.536001 1.111928 0.011036 2.327627 1.920600 -0.070585 -3.963979 3.752439 2.958431 -0.115293 -11.343975 0.127353 1.572279 0.780764 -1.495946 -2.932800 -4.395952 -0.622324 1.842942 -3.362783 0.768699 -1.614978 1.398315 -0.554712 -2.164590 -1.700080 -3.944072 3.069445 4.158025 0.761713 -0.828156 2.444678 4.786037 -2.671013 -6.522605 -3.475162 -4.114291 0.243716 1.984466 -0.597026 -1.999325 -0.277293 -3.606070 -2.987825 3.117872 3.363931 -4.612411 1.514645 -2.281287 -1.227834 3.434872 -4.274864 2.447878 -3.166679 -0.005992 4.690865 3.653335 1.187541 -0.809686 1.915076 5.949545 1.811861 3.736926 4.991905 -2.415829 -1.089624 -0.546629 -1.035167 2.456791 -0.979108 3.740065 3.233131 -3.051526 -3.404269 1.757663 0.500659 -2.818673 -0.566043 6.106667 -3.932279 -1.847316 8.284416 -0.443681 1.583232 1.512113 5.608601 1.911089 -4.564438 -2.655818 -2.668815 3.489759 2.262082 1.397858 -0.605337 4.897270 0.606136 1.244842 2.940617 -4.948269 -2.294327 0.168928 1.944884 1.350174 1.404306 -2.296383 -1.175780 3.722249 -1.624349 -1.944271 -1.888224 0.530966 -3.962493 3.825315 0.984362 0.790779 -1.242181 1.945905 -0.739836 -2.913662 4.086606 7.239963 0.953697 1.842338 2.520674 -1.809959 5.197543 3.712687 4.439196 -3.508072 -1.969490 -2.987673 -4.716774 -2.127721 -4.846045 1.672083 1.150478 1.593128 2.661672 0.916649 1.493787 -0.947445 -1.263561 -3.953697 -4.070604 2.984972 -0.162018 -1.957801 -0.699283 4.422904 1.494805 1.345951 5.590327 1.966156 1.632066 -0.156943 0.173665 4.192226 -3.800714 1.481697 3.084986 -2.098813 3.322779 0.792169 3.148755 -1.855544 -5.617054 2.334069 -1.348515 0.693402 4.969548 -0.383239 0.703752 -0.692050 2.340081 -2.914276 3.524214 -4.295832 0.765666 -1.546658 -0.618148 -4.714154 -1.320883 0.759371 -4.122619 3.051476 2.670449 0.020157 3.132867 -1.206909 3.880684 0.505475 0.216151 2.219790 1.317734 7.925860 -4.306462 -2.585715 -1.610007 -6.280934 -1.261795 -2.119558 -2.513388 -1.980489 -0.901197 -1.648931 -1.022297 1.426187 -3.547250 1.085019 0.661930 0.502718 0.640311 -1.250104 -2.840528 -6.717143 0.853639 -8.994957 2.938941 3.940248 -1.137702 -2.022520 -2.423609 0.725318 0.052279 5.530542 -2.825509 -0.516069 -1.849719 -0.635678 -2.696487 1.820328 -1.706022 -3.972879 1.183284 1.330877 1.004722 1.191506 -0.976521 -2.828631 -0.281299 3.870532 0.190746 -0.158737 6.902352 -2.895735 -1.500531 1.402895 -1.635019 4.304567 0.549106 -1.566989 -0.865582 1.962037 -4.478008 0.555427 -2.446367 1.867012 -3.494561 4.334325 -0.698673 2.067840 -4.527291 -0.930690 0.725632 -2.279436 -0.233121 -0.251364 1.896400 -0.044314 0.515188 -1.271658 -3.507075 -0.969130 3.040814 -0.566888 3.944338 1.370832 -4.532182 -2.845779 -2.246602 8.150014 0.553105 -8.538691 0.713394 -3.524028 -0.245355 -4.814450 1.965638 0.453010 -2.156547 3.881709 1.576531 1.287058 -2.847267 -2.305284 -6.780698 2.204345 0.774384 0.160085 2.501774 0.894401 -2.676214 -3.545823 1.191056 -0.385726 -4.072692 0.922555 -1.476592 -0.769609 -2.016306 3.211047 2.051167 1.124228 -1.174320 -0.723209 5.835311 0.192568 0.231248 0.273081 -0.023171 -4.483968 2.974469 1.788041 3.019228 0.183367 3.370436 -3.475366 -2.338365 -4.303342 -4.330420 3.728367 2.070365 -4.894334 1.742887 2.332257 -1.836242 0.704752 -4.329302 4.299876 2.300139 -0.020140 0.772057 1.049431 -0.852269 -2.669768 8.298249 3.428800 2.172758 2.708799 3.259375 -1.273092 1.503275 -1.461559 -2.256956 -0.780617 -0.692211 -0.561061 -0.056678 2.712678 0.418997 0.525249 -1.534909 2.999833 1.920957 1.448610 -3.058891 0.139428 -4.252871 -1.151202 0.738429 -0.014191 -0.412647 2.416814 2.618195 0.668078 -1.221419 1.519092 4.961855 -3.191756 1.990843 1.653620 -2.955853 -1.896447 0.945325 2.459366 1.378473 3.469851 3.544686 1.071978 -0.395968 4.643224 -3.413180 3.367504 4.330170 1.139554 1.338571 4.280511 1.851045 -0.355505 -2.467160 0.120560 -1.037550 -3.402181 3.951375 -3.469031 -0.029133 -3.643524 -4.661554 2.552175 1.246731 -1.600482 1.251230 -0.771360 0.394539 -1.573407 -3.240596 3.379237 6.065104 -3.980580 -0.068644 0.625398 0.876628 -1.616840 -1.411911 0.400233 1.721563 -0.664745 -1.767162 -3.396408 1.838684 -3.254996 3.740019 0.267130 0.193868 0.645346 1.369471 1.372098 -1.132200 0.930199 -6.052069 -0.939703 -0.962127 3.232594 0.189030 0.704981 -0.933062 2.139760 -2.658429 0.099578 3.514807 4.433005 -3.158912 0.753299 -3.182631 2.040073 -5.520146 -2.553034 3.491388 -0.068667 2.533141 -1.131371 2.044376 -0.027930 -4.521796 -3.785668 0.181711 1.078946 0.722293 1.035454 -2.452820 1.049624 -0.839838 3.538470 -0.333609 3.532602 0.625270 -7.578579 3.474420 0.539726 -0.349608 1.603909 -1.112134 1.596158 3.811926 1.501098 1.657238 -1.205437 3.694762 0.433920 -2.058037 -3.779211 -1.043883 -3.433237 1.508987 -1.325111 -1.004503 -0.645425 2.381613 4.342201 1.401461 -0.937786 -2.588243 2.138038 -0.822938 3.218815 4.393603 -3.000574 2.789677 -1.305351 3.530951 -4.249387 -1.715331 4.715126 -1.279197 -0.771643 -4.068296 1.304675 -1.199969 0.832810 -3.853522 3.097760 -0.019056 0.687417 0.957365 -0.979552 1.176894 -1.222228 -3.461974 1.437270 -1.740259 -3.531859 6.116958 -3.834426 -2.693259 -4.030938 -3.137924 3.254308 1.743668 1.355962 -0.593110 -4.062998 0.194813 2.070799 -1.398425 -2.028591 -2.118821 -1.481468 3.515323 -5.611499 -1.935582 2.544041 -2.822690 -0.161567 4.300036 5.524784 0.302531 -3.125870 -1.419089 -1.785609 -2.488792 1.579796 -2.025629 -4.005748 -0.152332 0.830407 0.889022 -3.823363 5.594082 -2.640185 -0.058215 -1.807052 0.847563 -4.165219 1.062854 -3.832048 1.085443 0.307901 7.310059 -0.740157 -1.893105 3.479081 0.623913 -6.814657 0.937274 -0.412750 9.817932 -3.201998 -0.919075 0.199764 -1.935094 0.403801 -4.822329 -3.144685 -3.281976 1.417584 -0.245919 0.125949 0.645099 -3.439006 3.873580 2.852185 -2.823561 -0.108038 -2.262575 -1.707419 -1.527245 0.716766 -4.268226 0.545925 0.663473 2.968112 0.235220 -1.421939 -0.926585 -3.060163 3.657643 2.340299 -0.968221 -2.557334 0.792135 0.976911 0.699485 -1.947082 -4.086254 0.566051 4.741333 3.740963 -3.242199 -4.063221 -2.744827 -0.358954 3.191434 1.509574 0.662861 1.232104 -2.014845 1.688946 -3.206176 5.325836 5.236478 1.501838 -0.222726 -1.142174 -4.664009 2.849186 1.063778 -4.683644 2.047024 4.198924 4.033600 -0.057352 1.054578 -1.202534 -3.926383 -1.530736 2.171176 2.575059 -2.207906 8.232308 -1.042148 -2.197841 -3.428536 1.019052 -3.200110 0.696581 0.177037 -1.645868 -7.319874 0.039583 1.901916 -1.639276 0.103382 0.083913 0.001302 0.683878 1.229409 -1.085845 -1.424457 -1.461536 -3.703777 3.080718 2.103297 1.678508 -4.639224 1.516470 -3.077120 3.688257 -0.017962 1.689652 0.974965 5.913188 -1.230041 2.125311 -0.666062 -0.769176 -1.611159 -1.648366 2.363004 1.682110 -2.795133 3.257307 0.617143 -1.554963 -5.715590 1.656030 -1.944953 -2.285490 0.518579 -3.639276 -0.647347 0.054110 2.262977 3.744790 2.639338 -1.748439 1.390305 1.281125 -5.641129 1.519358 0.464458 1.743186 3.639619 1.496005 -0.062928 -3.810408 1.597802 0.644416 3.444872 8.865216 -1.520938 2.278032 3.418837 -1.186660 0.970211 8.490161 -0.962901 -0.982536 -2.111267 3.769369 -1.705832 -1.306128 -3.451507 -1.300159 4.923987 -0.012390 2.549438 -5.909295 0.206302 0.439319 6.289120 -0.109454 2.001203 2.046967 5.033507 2.378573 0.470367 -2.286844 -2.195530 4.032703 -1.496189 -3.672339 -2.487387 2.692837 -6.434471 -2.614068 -0.089923 -5.263573 1.924131 2.054108 3.949684 3.709129 -0.426704 0.867111 5.059634 -0.885942 1.139590 -4.137656 -3.375736 1.540104 1.221520 1.013885 -1.175070 3.839026 1.512702 -0.690302 2.063283 1.297663 2.670873 0.068990 2.525525 0.064062 0.168764 -1.666214 3.054223 -0.330402 -2.577184 -4.171133 3.475535 0.165325 -1.884379 1.000186 -1.173805 -1.057815 -0.394850 -2.556947 -0.240739 3.687855 -1.296716 1.611178 -4.840637 1.014938 -3.798890 3.201763 -4.689305 0.329238 0.209249 -3.583048 -0.400393 -2.039030 -2.250353 -1.943943 2.317036 -0.331544 -0.303270 2.632254 -1.698153 0.942748 -3.468786 -3.183493 1.183947 -4.198721 -1.281823 1.277495 1.106863 -0.770450 -0.084791 -4.088651 -3.569877 3.093017 -4.741895 -0.035950 -6.542229 -0.490045 -2.446390 -1.938969 2.623589 1.701063 1.145251 1.916570 -2.478093 0.766720 6.719435 2.623419 -0.456688 -2.284045 0.826751 0.582249 2.456638 3.831214 0.354907 -1.745897 1.779209 -2.706601 -0.233947 -0.870642 -3.538777 1.095662 -1.322964 -2.942647 4.642670 -2.854524 6.744476 0.942488 -1.178264 -2.836028 -4.462377 2.561870 3.324777 1.765396 1.957071 -4.439629 4.401911 1.644796 0.921053 2.291454 -3.254682 1.753985 -0.476817 -2.375189 2.658615 -0.606040 -2.680484 4.561205 -0.803993 -0.469750 1.963755 -0.338369 1.785649 1.298102 -1.010875 7.956090 -0.420337 -1.884182 -3.246404 1.702572 -3.720674 -1.413914 -1.512105 -1.496619 3.069930 -3.116071 4.616745 -2.661172 -6.561983 -5.083468 3.921765 -0.355607 -0.730246 -2.274643 -2.918613 2.374267 2.477775 1.579588 2.878846 4.219522 1.832681 0.030005 -3.747473 -3.179197 0.804107 -2.583772 -5.017913 0.238714 2.575498 0.429512 -3.123585 4.804931 -3.103902 3.697006 0.755924 -1.865346 6.996091 -2.880974 0.403529 -1.425696 0.624608 2.385237 1.287702 -1.060623 -0.546962 1.861341 -2.272884 -2.064686 -4.045376 -3.951888 2.798607 -2.483932 0.330516 -1.471434 1.534894 1.719891 3.661846 5.026616 1.692805 1.499545 4.176622 -3.267131 1.821559 -3.442907 -1.187542 -3.785925 3.323582 4.746199 1.878734 -6.343222 0.697521 0.295708 -0.361037 3.133759 -0.198327 3.928445 -2.492794 1.531493 -0.325240 -5.317450 -2.649132 1.425737 -2.150208 -1.659957 -3.012631 0.687427 -3.744349 -0.534073 -0.707395 5.204242 1.553301 -2.434133 1.127172 3.627462 2.631989 -4.457950 -1.645726 -4.012571 2.635696 -0.226040 -2.304862 4.825491 -6.721842 -2.481240 5.032364 3.004829 3.955081 1.173171 -2.470641 0.964950 -1.345370 1.068005 1.743927 -1.724899 -1.235896 1.753761 -0.206411 0.178700 -4.323824 5.191255 1.240391 -1.369131 3.822474 5.556880 -2.004378 3.638470 -1.246669 5.254790 -5.430380 -4.099388 0.820273 -0.127370 -2.589872 -3.665692 -2.967554 -0.050468 1.830090 1.796622 3.446124 -3.644048 2.309153 2.309766 -0.565025 -0.898490 -1.074121 -5.670706 -0.208947 -4.758114 0.459030 2.013130 -2.638784 2.804200 0.615062 0.777649 0.908617 0.484904 -2.005134 2.301756 8.224261 -2.142178 3.097410 1.244988 -3.232146 -0.476104 1.396065 2.213647 1.001748 5.549610 -9.759440 1.694079 1.727086 0.603543 3.832778 0.722625 -1.483357 1.985455 -2.096480 5.419853 -1.182746 3.170966 2.434683 -2.235544 -7.681293 -3.521202 2.962579 3.450331 1.934753 2.364432 -1.541555 4.636482 6.834534 5.294261 -3.094537 -2.657973 0.067269 1.944042 -3.199403 -2.543669 -4.533775 0.855698 3.095191 2.803799 0.145623 -1.493831 1.665329 1.748461 1.069630 -3.866994 -3.489615 -2.901267 -2.407929 4.526273 1.259079 1.168487 -0.231835 -3.559592 -0.147505 -2.775707 -1.014264 -1.711204 -1.883222 1.180722 3.808000 -4.973796 -0.963137 1.428493 -1.585154 2.460837 -2.538630 2.327176 4.387561 -4.637733 3.800584 -1.438193 0.545743 4.661591 -5.366667 0.283104 4.746684 3.800781 -3.022265 0.131644 2.656034 -0.551933 -0.563071 -0.150179 5.727288 0.085630 0.866971 -0.579107 -4.850916 2.509895 1.609396 4.833046 -0.675054 -4.353996 2.145139 -4.539394 -3.932797 -1.608911 -4.925786 2.027676 1.725433 2.195243 -1.588332 -0.378179 -1.885693 -4.252774 4.379626 -4.140993 2.518832 0.428524 -3.227818 0.524594 -1.430963 2.743790 -0.673101 -1.173376 1.621563 3.471437 -3.251218 -4.137517 1.009301 0.172123 3.641301 0.748581 3.009622 -1.374641 -4.518071 3.612694 -0.091549 0.860042 -1.813762 0.765449 -3.296578 -2.102810 -1.314021 -1.513281 -2.149681 0.383708 0.134676 -1.742613 7.870322 4.628394 3.996144 -0.439938 0.200208 2.167803 -1.076813 -8.097463 6.163200 -4.846153 -3.665717 4.415143 -0.493831 -0.492729 0.229459 7.038012 -1.261047 -1.213098 -2.235182 2.206360 1.064715 -1.253719 5.466308 -2.200820 5.166374 0.756925 0.779715 -1.587772 -1.595779 -3.905466 5.174280 -5.400099 0.378231 0.468257 -1.239983 -2.980813 0.134334 3.995255 -1.750010 2.888602 5.325876 -6.729852 4.173241 1.454833 4.862983 -1.021095 1.546119 -0.608194 -2.632071 -1.813105 -3.631953 6.796762 -1.589316 5.367421 -1.198346 -0.129959 2.883551 -2.032792 -4.491514 -6.479455 0.225002 -0.215036 -0.561912 0.471969 1.034475 3.721389 -0.584437 -0.251762 3.851932 -0.011284 -2.317579 -3.784614 -5.214419 -2.292504 -0.111671 6.127630 -4.209974 1.675130 0.420893 0.931201 -1.312949 3.053986 -0.715400 -3.236168 -2.424847 -3.570682 -1.150844 -1.034626 -3.354544 -2.779918 2.077107 -2.504894 -3.898916 -0.661521 -0.734016 -3.338535 1.702257 -3.138398 3.889329 7.640229 -4.247238 1.720629 1.769243 -3.339611 -3.075263 -3.161413 0.985615 1.977702 1.876361 4.878381 2.214402 -3.832344 -0.149664 3.665873 3.713336 -0.261441 2.140451 -6.466385 -2.278176 -1.372181 -1.763206 -2.816188 3.543681 -6.081252 0.302998 1.067321 3.525192 0.268542 -1.853301 5.057066 1.550871 -1.079662 2.094716 3.544355 -6.109906 -0.314107 -0.230324 -0.998173 0.755400 -1.264547 3.545321 0.864814 -0.910986 -4.370978 2.697356 1.522419 0.574525 0.401727 0.743394 -1.372164 -2.564641 -6.249089 3.234175 -1.004574 -1.286743 -2.897460 -1.731255 -0.982385 -2.667556 -0.055868 1.613712 2.616588 0.318994 0.945701 -2.911443 0.092116 2.015503 -3.449538 0.934848 0.495737 2.566132 -1.752190 -0.734733 -2.416558 -2.408526 -0.284652 -0.741778 0.829886 -5.805075 2.440496 0.312142 -4.224653 1.116694 0.544535 1.960015 -0.618662 2.052725 -2.313244 0.182784 0.402739 -2.221832 1.860363 1.227845 0.812971 3.292919 0.831492 -3.242509 -2.568624 -2.363877 3.745093 -0.342504 -2.600577 -1.586022 -0.749897 -2.418977 2.458676 3.481298 2.100334 1.648767 0.117593 0.715054 -1.542396 2.818771 -0.691807 -3.632832 1.367451 -3.245808 1.849905 -0.489651 3.946919 -1.243350 5.647733 2.739137 -2.040016 0.710199 2.905594 -2.906636 -0.348991 3.776784 -1.586143 2.997417 -1.157983 -0.579410 1.591466 -5.499441 -4.613448 -6.581109 -1.735624 0.235418 1.891035 -4.490141 1.621569 2.067291 -0.072268 -0.230292 -0.523671 3.093463 -2.292237 2.783795 0.496003 0.206381 -3.894083 -0.730111 -7.694700 -2.532192 -5.077117 -0.214549 1.492238 3.830131 -0.520669 -3.561194 -2.191614 4.732825 2.360829 -1.120006 -3.367716 -0.128938 -1.936994 -5.536045 -2.424308 3.577220 -2.713716 0.243046 0.998719 3.439042 -1.355323 1.716506 -0.868520 0.661097 2.116220 1.704032 5.588347 -1.752682 1.434929 -2.610727 -0.194130 -0.759194 5.016507 -3.208177 2.059209 0.085659 -1.320689 -3.142416 -0.324422 -1.249979 2.546088 6.041418 7.626267 2.424508 1.420359 4.447182 -3.138605 5.366698 -1.262966 2.200324 -0.612502 -2.001037 -5.058500 -1.541498 4.843517 0.908282 6.620552 -2.706785 -3.516294 9.354046 0.910086 -1.937534 0.254542 -2.544121 2.123844 -4.943190 3.175623 -0.077263 -0.441542 2.752514 2.457388 -0.262782 2.323629 -2.515238 2.484235 -2.980777 -2.462048 2.169615 -0.814419 1.580172 3.900743 -3.174599 -1.908213 0.799892 0.405633 1.731266 -1.224085 1.423731 -0.818958 -0.114780 -6.104191 -5.198820 1.675507 2.537206 1.448687 1.784473 -2.002743 -0.400933 0.284916 0.004613 -3.424740 2.764882 -9.104212 -0.414202 2.307935 -4.739788 -1.580150 -3.258065 5.869238 2.214368 -2.546971 1.232437 -1.325179 1.246968 -1.080554 0.669450 4.407396 3.076433 1.105897 -0.323708 2.329013 1.892856 1.033427 -3.883836 0.779747 -4.145362 -3.281907 -4.682364 4.747389 -1.194492 -0.807278 -6.499456 4.134282 -1.439188 0.997454 -1.617114 2.860801 -2.438277 -1.208437 -0.676781 1.500632 2.559980 4.414518 -0.801342 -0.029080 0.370393 -1.634709 -3.995203 0.502709 3.824144 4.727910 -4.467498 2.196993 -1.981202 2.803354 -2.501986 -2.765975 3.400185 -6.513171 -0.400469 2.636592 -0.499311 -0.170243 0.014275 -4.174134 0.769499 0.235059 4.512394 5.288508 0.253726 -0.941755 0.037844 0.083354 -2.717505 -3.309186 3.123272 -2.592897 0.515995 -5.113167 -1.410739 -1.194273 -1.411307 4.915141 -1.027220 3.604865 6.200909 5.657473 3.281115 0.782391 -3.738177 5.221599 -3.524854 -1.165689 -3.630103 -0.771090 -0.373277 -2.039663 -3.565827 1.508249 0.589407 2.948266 4.580740 -0.289611 -1.900454 1.352290 7.606171 -1.180324 5.232218 0.032536 -1.959926 1.259392 -5.254623 1.756560 0.447120 -0.380430 2.334175 -0.053328 5.321307 0.463434 -1.537179 -0.991834 0.544818 2.034874 -0.992596 3.584188 -1.089556 -0.412586 0.557020 -1.775679 -4.164021 4.846322 -1.147404 -0.957347 -0.287669 -1.689656 0.994364 -1.352312 5.273318 1.547322 -1.203787 -4.350974 1.293253 -3.580878 -1.164952 0.593042 -0.044036 -2.409699 -3.190056 -1.918838 -3.717984 0.792207 -1.965776 2.166730 -2.605869 -1.485780 -2.657155 0.220002 4.170530 -3.767810 -1.098423 1.630445 -1.013862 -2.565343 -1.958916 0.303996 -2.629893 2.085586 -4.646018 -1.710347 -1.186847 1.276799 0.855060 4.890695 1.782811 1.981714 2.206166 -2.011128 0.255496 -4.740472 1.880325 -1.456788 -1.652464 -3.027405 4.556300 -0.455991 -0.004603 -4.254564 0.901402 2.150893 -2.938621 1.963355 -0.598869 1.614964 4.207804 -3.028006 -4.406925 -1.693660 2.415662 3.462306 -2.181872 0.962267 -0.897896 -0.131627 2.606094 -0.695656 5.191899 -0.652354 1.987054 2.353766 -6.770271 1.405729 0.571332 1.618023 -1.284655 -3.334532 0.198594 0.281457 -1.788593 3.006695 1.571928 3.371940 -1.317165 -2.544182 0.421038 -0.161992 -2.892155 -0.620657 3.262274 -1.846774 -0.943512 0.129342 -2.081651 -1.999309 -4.102449 -1.692736 -2.168311 -4.298692 -3.091863 1.939943 1.526018 1.437670 3.740133 1.168466 3.334980 -3.576255 1.513615 2.769941 -7.515239 -3.955682 0.995016 4.510641 -5.205123 -3.599894 -0.011480 1.649758 3.420155 5.112230 -2.903590 2.360317 -3.955417 3.878804 -4.194442 0.026305 1.625183 -5.662414 -1.918934 3.442249 4.502107 1.624285 1.511712 1.974389 -0.678068 6.273614 0.574566 -6.882058 -3.464935 1.349595 -3.909109 5.303461 2.002785 -2.591797 -1.143815 0.252148 0.092116 -0.875928 0.738603 2.403133 1.630719 0.114174 1.004086 1.070679 -1.444245 0.716102 -2.186344 -0.149998 -0.270433 -0.063269 -1.886111 0.923044 5.240017 1.962609 1.710808 1.899510 6.049760 0.659352 2.975679 -1.910922 4.649842 -0.949804 1.498791 -0.962727 3.527450 2.851572 -1.630459 -3.165870 -0.106922 5.891962 0.121785 2.208617 2.249939 2.116259 2.573990 0.478787 0.220273 -4.808401 6.673715 -1.409383 -3.560884 2.160395 4.116352 -7.459410 5.643118 4.431299 -1.370255 1.282038 1.987433 -2.869546 -0.119074 0.020113 6.326005 6.370735 -0.802331 -1.525194 1.785602 -0.571826 -0.775745 -3.733718 -1.685743 0.252679 0.589234 -2.988136 2.555371 -2.107146 -3.613768 -2.830901 -0.569792 0.900718 4.837875 -4.472368 -0.407609 -4.037459 -0.645429 -5.339011 -0.868779 -1.674540 -1.813302 -0.924986 2.523079 2.380889 6.894632 -5.188609 -3.661582 -0.970022 0.629339 -0.363710 -0.768952 -7.232120 -3.020866 2.500269 0.044380 -2.709839 -2.361961 -1.924775 0.816512 5.229306 -2.326290 -4.117048 1.457935 1.283121 2.979464 2.161331 1.633729 1.546421 -2.507642 0.953870 -4.034368 0.241220 8.344678 -0.485691 -1.966425 -2.579179 -1.445516 -5.550414 -0.869171 2.545351 -3.763767 -2.822402 -0.815669 2.116211 1.973351 -0.583215 -4.900139 2.176366 -0.817970 5.921378 0.264912 -3.941771 4.055113 -0.842976 5.928716 0.120460 1.706321 -2.728058 -2.059487 1.008013 0.322010 -0.552664 -2.606090 2.186613 2.224109 -2.413321 5.261411 -2.480245 -4.305064 -7.649069 -0.017022 5.544585 1.256298 -2.873472 1.110725 1.616317 6.598980 -1.298580 0.735293 -2.429715 -2.279816 2.856322 -6.686450 0.870960 -1.566218 -1.446444 -0.562387 3.850225 -1.247421 5.796783 0.608106 -3.320831 3.954292 -7.882864 -2.406365 -0.307506 3.041735 0.135790 0.424566 3.859710 -2.730422 -3.989280 1.573890 1.902494 2.607828 1.881840 -2.155367 -0.797175 2.335165 -0.073085 -0.707099 -1.420995 -8.198988 6.584444 5.255934 -0.073510 -1.435138 -0.386946 0.091393 -0.147422 -2.883840 -3.130779 -1.437925 -3.057565 -4.134941 1.295951 3.039158 -2.009755 -1.130428 6.092365 2.521934 2.167606 0.130660 -2.038349 0.283836 2.198284 -0.796214 3.230128 2.396636 -6.225736 -1.959475 -1.325563 -1.859895 -0.215049 1.436596 3.273138 5.247609 -1.061071 0.543376 -3.798985 0.870043 -0.360743 -1.543138 9.210894 3.079782 -0.712552 -0.700643 2.294394 -0.697633 2.659782 -1.030187 -1.599536 -5.691388 -1.256659 -2.824933 -0.437461 -3.094962 1.625339 3.322445 3.169483 3.365525 1.448599 3.770383 -1.132008 -5.617502 1.638960 -4.312288 -1.971407 -1.583123 0.984432 -0.955924 -0.185285 2.793469 -2.120541 -4.187036 -3.194557 3.294734 -4.622040 2.696649 -1.876880 3.116751 -3.454509 -2.123888 0.438519 -4.856562 -0.226547 -0.301561 -0.888717 2.024691 -2.399695 -3.302327 -0.344230 -0.748728 1.069780 0.145851 0.077022 0.429782 -1.311174 -2.638535 -0.044286 -0.789172 0.904382 6.919903 -3.144642 7.028653 -0.039007 0.439323 -3.786389 0.627106 -2.715502 1.187522 2.698572 0.415566 -1.475151 -4.190048 -3.073112 -2.860347 -1.477550 2.187466 5.349629 0.361527 1.865027 0.814543 3.502284 4.623090 0.608523 -2.512286 2.032250 -0.586440 -0.039163 -2.081791 -6.152170 -3.077166 -0.724593 1.073835 0.494580 -1.784198 -0.525569 -1.884280 1.062935 0.591105 3.963108 2.720545 0.147657 0.956094 -2.911887 -0.027017 1.780121 0.366053 -2.457686 0.115867 4.914580 2.195575 -2.106448 1.111129 2.800503 1.827511 3.539383 -3.815718 -3.085113 -0.071739 4.324183 -5.661851 1.686893 1.328884 1.121513 -0.698218 2.314019 -0.504717 1.606262 3.460269 -1.420355 2.911218 -3.909047 -2.956465 -0.041433 1.472781 -1.439067 5.256437 -2.057551 3.599254 1.362306 1.643202 5.589326 -2.518166 0.068274 2.439720 -5.071349 0.734464 -6.345479 -7.508304 0.327567 -2.673904 -6.626263 -3.073298 2.121117 2.085271 -2.525661 1.068697 -1.225080 3.124078 -1.663743 2.888628 -0.294712 -2.594241 -10.327150 2.921126 -0.743023 -1.480302 0.820186 -1.146046 1.693149 -2.029755 -1.207662 -1.056848 2.234406 1.502368 0.988080 -3.286283 0.263941 -1.705491 0.829559 2.260463 1.115240 0.660110 3.298511 3.254833 -3.403966 -0.401363 -7.099618 2.131865 0.733717 -2.404808 0.450237 0.881153 1.537229 -4.500624 0.732504 2.398923 -1.637564 0.826084 -1.403036 -1.056099 -4.786218 0.717996 4.716773 -1.663793 -1.293842 6.127375 0.672784 1.117592 1.334788 0.957733 -2.043308 -4.122358 7.589138 -1.277419 -3.480618 0.456917 0.476433 -1.812720 -1.495869 -1.487849 0.421963 -0.223135 7.034776 -0.749676 -2.370903 -1.033961 -0.774771 -3.450533 5.152258 0.996787 0.642219 -3.065132 -3.276617 -0.027580 3.765240 4.220678 4.962756 1.785196 0.679031 4.031277 1.617205 0.849225 -0.235556 3.293074 4.475876 -0.609948 2.660905 -1.520080 3.357804 -1.645601 0.293133 -4.632405 0.126343 -2.093414 5.050668 -2.498403 -3.678741 4.100623 -3.100133 6.035639 2.643911 1.635647 -2.364680 0.727296 3.432047 4.441131 0.715952 7.458248 -0.696452 0.414339 7.715518 -4.854329 -2.114068 0.220537 -0.692004 -3.042610 -0.429880 0.212699 -1.933753 -1.201380 -4.560148 -1.927907 0.211722 -4.699031 2.745248 2.135395 6.431984 6.113134 -0.787437 0.494666 0.549913 -0.149324 1.298609 -2.447410 2.156010 1.910128 -6.422733 -1.771276 0.821794 2.125489 -1.078645 3.294658 -1.394523 -2.848485 -1.250891 -2.883857 1.161144 0.086806 -0.420206 0.042866 2.690249 5.301637 2.542355 -4.202087 1.323938 4.951031 3.343430 0.266607 -1.712625 -3.130596 0.132013 -6.393509 -1.220409 0.035330 3.625621 1.099362 -0.267845 -1.152244 -2.364427 -4.157942 -1.675564 1.447727 2.295640 1.774734 0.451093 -6.990852 -0.146134 1.950694 -1.965330 1.584674 2.863603 0.392530 -5.015483 3.882033 -0.986929 0.339619 -2.428910 -0.244349 -2.799376 2.333426 4.537846 6.097545 0.614324 -0.650981 -4.419568 0.843036 1.871961 -1.871547 -0.087089 -2.077245 1.203402 -2.432916 0.569978 4.720467 5.143238 -0.314204 2.679208 -1.679795 -0.909445 3.559229 -2.103234 1.832564 3.388436 0.723154 -7.243845 1.437684 -3.130239 -3.430330 -3.474451 3.332441 -0.113665 2.644567 3.416549 -0.578054 -2.394771 -1.480643 -2.002704 -2.767543 1.107158 0.732466 -3.583287 2.596438 -1.380405 1.281482 -1.279306 0.699160 0.117359 -0.255783 0.091018 -1.725587 -1.385160 -0.818914 -3.242752 3.769973 -1.844131 -5.869124 6.769074 1.066835 -5.652088 -4.013241 -1.118337 9.377993 0.020522 0.420398 1.216244 -0.950991 0.292560 2.453389 -3.579951 -3.862881 -3.623542 -2.569465 -2.300324 0.229921 -2.007927 -1.525188 -5.314142 2.683780 6.180621 0.076191 2.526644 -3.953514 3.843183 -1.083190 2.960000 -0.325054 -3.351830 4.076420 -0.724077 -7.147019 -0.861533 -3.649037 -3.470343 0.887318 9.203634 -1.458043 -2.535542 2.030517 10.829859 1.272859 -3.629110 -0.836597 0.899586 2.431882 -2.080354 -1.933151 0.418665 -2.001484 -3.128137 -2.560753 -4.957682 -2.322092 0.009105 -2.284718 -1.873583 0.997554 1.260181 1.281576 1.147446 0.957625 -1.633503 0.838009 -3.783479 -3.453492 -0.997223 -1.295149 0.844855 0.692709 0.860484 3.482135 7.554479 -0.063255 0.152334 0.231237 4.187336 -6.067249 -3.055268 -2.807210 -3.002002 -0.420677 4.292376 -1.063146 -2.547009 -3.423684 2.278457 3.249483 -4.756088 2.483599 1.860280 -2.803411 0.930303 -1.250052 7.427358 0.982911 -1.357594 1.857267 -3.126821 -6.638267 1.184436 1.966382 2.812401 -0.194672 -1.128218 4.573618 1.968308 -4.690814 2.554939 3.022542 6.074712 2.804019 -1.283966 -2.184160 3.045982 4.596027 0.726692 -0.447330 -0.365992 2.253688 0.351382 -3.735688 3.463566 2.089578 1.391658 1.528951 1.526327 -2.753229 4.718794 1.704409 -1.209476 -1.349457 3.424389 -1.644752 -1.176078 3.710888 -1.489482 -1.423237 -5.005307 0.344763 -2.397398 1.867208 -2.753252 2.144551 2.108591 0.206001 0.705256 -1.369886 -5.900395 3.838530 0.011921 -2.537787 -4.196046 3.725698 -1.056466 3.691116 1.076986 0.811863 4.932327 -2.134991 -1.378332 3.253496 4.026349 0.989708 -1.417381 3.868431 -5.496867 0.133844 2.486329 7.526479 -1.075848 -0.257976 -1.183258 6.119113 -6.196717 -0.581660 -5.794332 -5.580922 6.151206 -3.865721 -0.764291 -4.150166 -0.722549 2.459020 -3.181088 -2.725921 -0.526703 -0.926634 -4.428298 -1.315742 -7.532919 -2.086759 -1.984650 2.417918 3.809861 -3.351082 2.861068 1.109817 3.193526 -3.945370 2.569719 3.700264 0.093771 -8.254680 -8.062437 -4.580083 -4.485477 -4.860089 -0.304482 -5.423002 -1.402023 2.481585 -5.889260 -2.421961 4.130297 2.391388 -2.999825 -2.283238 -3.392670 -2.770427 -0.189603 1.631551 0.166278 -0.206868 0.608829 -3.066480 -0.003877 1.978276 -1.486898 -1.865171 -1.754255 -1.406452 -3.256562 6.190051 4.816929 -0.835938 -0.012434 -3.683627 -2.938914 5.843409 1.238294 -2.047871 0.440533 1.254457 -0.348363 -2.244669 0.199510 1.356067 4.465287 1.546907 1.678499 1.979936 -4.332119 -3.141750 1.281231 3.899103 -2.357001 2.425445 -3.722635 0.014004 2.860828 8.744286 1.811421 -1.057960 1.958221 -2.142230 -1.842251 0.582283 -0.831042 -1.511708 5.178511 0.472952 -5.519782 5.108191 4.314538 -1.546697 0.743119 0.460607 2.380240 -6.909190 -0.606207 5.951170 -3.041379 -2.160864 5.420759 -2.395304 0.649893 -1.295402 3.423264 -2.395613 -2.248833 -1.326561 -1.492803 -1.556387 1.214407 0.647964 0.661050 -3.664880 -0.090599 -0.136409 1.642287 3.130526 6.676248 -0.986294 2.341815 -1.618281 1.091746 0.196407 1.369589 0.323804 0.054750 -1.708771 3.988181 -1.074104 1.514487 7.535226 -7.418629 0.800739 0.919813 -1.883390 0.599014 -2.188849 2.769811 -2.258244 0.577348 -2.968200 -5.201567 4.588149 -3.421739 3.344091 -1.429844 -5.426992 -1.158127 -1.068193 3.205451 4.044805 -3.941777 -6.483543 4.021684 -0.862119 -1.152482 -3.731123 3.131336 4.494411 -2.636473 1.231803 -5.194498 6.344338 0.691704 4.195437 -1.014091 -0.919158 -2.033036 -1.118823 0.773153 -0.041361 1.033280 -3.172748 -2.266187 -3.217784 1.722634 1.041916 0.216307 0.062782 2.595384 -1.830624 1.377204 7.676737 1.389046 5.272582 0.329928 -1.506222 -2.993393 1.604660 2.849042 -1.083774 1.010666 -0.593665 0.016951 -1.309173 -3.259479 3.502034 -2.591565 -0.253422 4.527352 1.541749 -0.156566 -1.660052 -1.012343 -3.367894 2.831454 -2.626691 -2.735544 0.217310 0.760870 -1.079897 1.593736 -0.990261 1.283026 -3.728807 6.004568 -6.385270 1.305653 1.318397 5.240698 -0.161804 0.248644 0.625263 5.195223 -2.889263 4.663117 0.841056 0.563731 2.872436 0.562782 -1.657762 -10.077704 0.360384 -0.178124 -1.641996 -3.545982 1.792618 -0.104042 0.789354 -0.939120 1.606658 -4.016838 -1.221613 0.959082 0.388832 -2.131702 0.993625 -1.042372 -0.564533 3.869658 -1.356677 -1.426443 -3.289714 -0.410416 -0.442226 1.308279 -1.200738 -0.944290 3.879695 -0.729859 -0.446785 2.004480 3.422187 -1.787992 0.749498 -5.711853 4.062086 5.064624 3.913242 1.147782 -2.868901 0.755163 -1.193878 4.836247 0.983422 -0.304856 0.284677 1.056499 3.799937 -1.074853 -3.347130 -4.981586 1.823934 -3.320190 1.226713 -3.340748 -2.312885 5.363682 2.580947 2.204787 4.235600 -9.793716 -0.583461 -0.929567 -6.033830 -1.439639 0.191331 -1.766929 8.063985 0.763559 4.231389 3.643211 -3.345442 -2.589571 -3.051027 3.033260 -0.623513 -1.129035 0.240178 0.879262 -5.048576 -1.342009 2.662291 1.033730 0.050265 -1.661697 3.718190 -2.981350 2.388945 2.097303 0.842351 2.505946 2.167148 -2.298590 0.823667 0.627993 -1.661268 0.186304 4.258328 -1.157326 1.493725 -2.520894 2.862940 -2.280030 -4.339572 -1.531132 0.207598 1.860574 -0.440050 -0.027671 -1.363125 -3.057743 0.064516 -2.761433 3.409198 2.185873 4.023006 -2.366868 5.658541 3.095876 -1.984390 2.474318 -0.737565 -3.615162 -0.750253 -2.941367 -4.422288 2.590197 0.012903 6.710837 5.516047 3.139090 5.852162 3.123116 -1.468748 2.910328 1.227765 2.490865 5.768510 2.863075 -1.107653 -6.522206 2.033928 -3.292778 0.163722 -2.940525 3.770799 -0.869636 0.574218 -0.385502 2.363446 -0.838357 -3.099771 3.454179 0.292103 -2.206891 1.291210 -2.958973 -6.474279 3.401629 0.077471 1.593676 1.065020 -2.672933 -1.189201 1.621856 -0.825717 -7.859603 3.718859 0.604722 0.173395 -1.390456 -2.478159 -1.580391 5.193926 1.711398 1.012307 -1.779021 1.627944 -0.389891 -0.196777 -0.378899 -5.317776 -0.408441 -0.298457 1.728306 3.735260 3.243685 -5.285684 -3.495783 -2.582941 3.733395 3.653834 0.045755 2.655369 -3.269041 0.973022 -0.611778 0.779151 -0.499266 -1.513757 5.426455 0.473122 3.300329 1.637182 -0.651889 -0.306809 1.358037 2.639534 -2.889969 -2.470751 3.154794 -1.781428 -5.494914 4.508946 3.172456 2.118518 6.493026 -2.642902 0.812201 1.061290 -1.322215 -1.762914 -0.522304 -0.664347 -0.521314 2.178781 0.556143 -1.533180 -3.002832 -4.532691 2.389988 3.209475 4.323470 3.876682 4.195849 -1.619114 1.911818 -5.029287 3.664740 1.277485 -2.123014 -3.623926 4.533555 0.126059 -8.008619 2.451982 -2.766729 0.829641 -3.848619 3.624977 1.104255 -1.090260 -3.996747 1.614391 -1.774201 0.370089 -2.536001 -4.226246 0.917810 1.185844 1.188102 1.211352 -1.247981 3.873387 5.343468 -6.561928 3.684673 2.684216 -0.310950 -0.167343 2.140180 -0.348161 -2.591413 4.833354 -4.647569 -2.316893 0.578345 0.280080 2.226927 -0.407839 0.250680 0.684712 -3.769834 -0.322948 1.230242 -1.911347 -3.917384 3.550580 0.992678 3.209502 -1.243912 -0.449769 1.896748 5.673946 0.023578 4.282410 3.490363 -0.924272 -6.737842 1.550738 -1.744869 1.723084 2.976164 2.655607 2.837090 -5.072971 1.613865 -0.831459 -2.107102 -4.688209 -0.354949 6.153691 5.277595 -3.416796 -1.044140 -0.304165 -0.328396 3.176418 1.407304 -1.880181 -1.121067 0.376878 -0.872870 -0.896933 -3.359947 -7.698563 -0.208134 -0.496600 1.562958 3.671280 -2.934851 3.194620 -3.323552 -2.570647 -0.378031 0.386323 -0.344529 -4.870522 7.683646 4.845231 -2.442151 3.593398 2.969268 1.949996 -0.987481 -0.985800 -1.012782 -1.553784 -5.274833 0.242936 -0.407276 1.672810 3.742434 -0.907937 2.097255 0.073954 -1.976014 2.662759 1.183558 4.850323 3.821679 -2.933330 1.024682 1.208459 -7.938492 -2.654695 -3.371133 -3.752821 -5.761133 -2.084487 -5.390771 0.155769 -6.089246 -2.505504 1.780100 1.032513 -1.360828 -5.022843 0.807384 3.092031 -2.483481 -1.947993 -2.010682 2.477939 -2.345510 -1.721449 -7.818840 -0.147681 -7.023224 0.516479 1.987315 -1.061863 -0.440243 0.805196 1.279921 1.263608 -1.846399 -10.429530 -0.503087 -3.269319 -1.185537 -1.311851 1.243141 -0.554534 6.930772 -0.255773 -2.051857 -2.149891 0.184335 1.406892 -4.046043 -3.543573 -0.426512 -2.614172 -5.941041 -2.716857 -0.567746 -1.217091 3.184077 0.766253 -1.196704 -2.461727 -1.379849 3.054240 3.485627 -0.194912 -0.126037 0.358428 3.281991 2.907648 -0.026508 4.007583 -1.593702 3.124970 4.955501 -2.752659 2.315500 1.898379 3.658251 -8.114564 2.063532 -2.708756 1.271175 3.062568 2.568810 -0.044521 -3.627939 6.641257 -0.997493 -4.141658 0.999227 2.185285 -2.952818 0.098893 2.786887 2.339987 -2.701378 -1.398034 0.937478 2.177303 -0.827197 -0.590434 -2.752911 -2.072098 -1.472100 0.876251 0.047362 -0.416395 4.211819 1.703170 -0.364433 0.257986 -4.200189 0.565402 3.988459 2.419701 3.921152 -0.743855 0.671793 -0.856173 -0.782535 -3.519032 -2.088700 1.766426 3.288305 -1.440835 0.014893 7.483741 -0.190616 4.205747 5.469188 3.801519 0.728798 3.256616 0.989345 -3.842043 -3.429562 3.669525 -0.456267 -3.040481 -2.009897 3.345557 0.717324 0.997506 1.136772 0.675844 0.294107 4.933659 -2.617545 -0.009915 -2.179259 -1.624019 2.838493 1.847320 3.540197 -1.267028 6.250882 -0.571608 -0.403677 -2.365343 -2.561154 3.652929 -2.095669 -1.796666 -0.848610 6.163236 -0.841182 1.698229 -0.470305 5.946530 4.457611 3.858789 1.215584 3.521625 5.324199 -4.020016 0.935689 0.404058 -0.665556 -2.899297 -4.496226 -5.642167 -0.381179 -4.834627 4.903644 -5.369770 0.387496 -1.111301 -4.840669 2.916238 -2.555038 8.250345 6.587229 0.985051 2.532689 0.617445 1.106291 -1.803790 -2.794854 -0.980721 -4.214189 1.300757 1.631661 1.710935 -2.272365 -3.451682 4.076880 0.457783 -4.722339 2.685494 -2.469415 2.645380 -6.157070 2.060625 3.694717 -2.128466 3.119367 0.576536 -1.794904 3.538715 -3.774590 1.479802 0.439371 0.142849 0.328053 -1.954943 -3.237626 -2.497073 -4.516879 2.722224 -5.284889 -0.007361 2.570454 2.425762 -1.709265 -0.749948 -0.355289 -0.662662 -3.448835 -0.764735 -1.345308 0.976126 1.218294 1.583014 -4.928472 5.173917 -0.209386 1.608422 5.428596 -0.132138 -4.197335 1.656094 -0.694546 -3.221723 0.857448 0.528253 -0.026486 0.301325 -1.005958 -4.791062 -4.044018 -3.474209 0.628440 1.591110 1.085177 -0.692852 0.577272 1.540856 -0.642856 -1.033199 2.745391 1.274302 -1.390661 1.600607 -2.499523 -1.779074 0.805187 0.217760 -0.536952 1.361159 -5.170064 2.876299 -1.867596 -3.642745 -0.979323 5.283858 -0.484761 -0.329376 0.449358 -3.389745 1.505625 -0.894758 2.981645 1.682787 3.419346 -0.660131 2.329699 -1.923611 -3.750965 -5.905878 -5.547836 3.109305 1.757975 -0.783642 -1.551050 2.166870 -1.598992 -5.629883 1.495103 1.990968 0.247265 -1.643930 -0.336333 -8.210003 6.936810 -3.242270 0.795920 -0.090855 -0.118685 0.492201 1.001001 -3.166649 4.096605 -1.951748 -3.576786 5.535468 6.516111 3.049510 -1.195214 -4.284898 3.612138 -2.308279 -0.360336 3.124207 -2.821894 -1.694619 4.207745 4.041994 -1.159566 -3.288110 -0.127146 1.416926 -1.710078 0.794895 -6.128567 -2.714332 4.853261 -2.706693 -4.641659 2.810926 0.000978 -2.172048 5.078172 0.020627 -0.342118 -0.011474 0.596196 2.286785 -3.177482 4.168587 7.623340 -0.684841 -3.983033 -0.312051 