-3.35214013009863665005 -5.01205530295470680358 -5.01205530295470680358 -5.01205530295470680358 -5.01205530295470680358 -5.01205530295470680358 -3.35214013009863665005 -1.69222495724256605243 -5.01205530295470680358 -6.67197047581077651301 -6.67197047581077651301 -5.01205530295470680358 -3.35214013009863665005 -3.35214013009863665005 -8.33188564866684799881 -6.67197047581077651301 -1.69222495724256605243 -5.01205530295470680358 -5.01205530295470680358 -0.03230978438649618339 -1.69222495724256605243 -5.01205530295470680358 -5.01205530295470680358 -6.67197047581077651301 -3.35214013009863665005 -1.69222495724256605243 -1.69222495724256605243 -1.69222495724256605243 -3.35214013009863665005 -5.01205530295470680358 -3.35214013009863665005 -6.67197047581077651301 -6.67197047581077651301 -3.35214013009863665005 -0.03230978438649618339 -1.69222495724256605243 -6.67197047581077651301 -3.35214013009863665005 -6.67197047581077651301 -6.67197047581077651301 -5.01205530295470680358 -6.67197047581077651301 -3.35214013009863665005 -1.69222495724256605243 -3.35214013009863665005 -5.01205530295470680358 -5.01205530295470680358 -3.35214013009863665005 -5.01205530295470680358 -0.03230978438649618339 -0.03230978438649618339 -0.03230978438649618339 -1.69222495724256605243 -0.03230978438649618339 -5.01205530295470680358 -5.01205530295470680358 -3.35214013009863665005 -1.69222495724256605243 -5.01205530295470680358 -1.69222495724256605243 -1.69222495724256605243 -3.35214013009863665005 -3.35214013009863665005 -1.69222495724256605243 -3.35214013009863665005 -3.35214013009863665005 -1.69222495724256605243 -1.69222495724256605243 -0.03230978438649618339 -3.35214013009863665005 -3.35214013009863665005 -6.67197047581077651301 -5.01205530295470680358 -5.01205530295470680358 -5.01205530295470680358 -5.01205530295470680358 -1.69222495724256605243 -1.69222495724256605243 -1.69222495724256605243 -6.67197047581077651301 -6.67197047581077651301 -5.01205530295470680358 -6.67197047581077651301 -3.35214013009863665005 -1.69222495724256605243 -1.69222495724256605243 -3.35214013009863665005 -6.67197047581077651301 -6.67197047581077651301 -5.01205530295470680358 -3.35214013009863665005 -3.35214013009863665005 -3.35214013009863665005 -5.01205530295470680358 -5.01205530295470680358 -3.35214013009863665005 -3.35214013009863665005 -1.69222495724256605243 -1.69222495724256605243 -1.69222495724256605243 1.62760538846957403258 -5.01205530295470680358 -0.03230978438649618339 -3.35214013009863665005 -1.69222495724256605243 -3.35214013009863665005 -5.01205530295470680358 -0.03230978438649618339 -0.03230978438649618339 -1.69222495724256605243 -0.03230978438649618339 -1.69222495724256605243 -1.69222495724256605243 -0.03230978438649618339 -3.35214013009863665005 -5.01205530295470680358 -0.03230978438649618339 1.62760538846957403258 -0.03230978438649618339 -6.67197047581077651301 1.62760538846957403258 -0.03230978438649618339 -3.35214013009863665005 1.62760538846957403258 1.62760538846957403258 -1.69222495724256605243 -0.03230978438649618339 1.62760538846957403258 -1.69222495724256605243 -3.35214013009863665005 3.28752056132564396407 1.62760538846957403258 3.28752056132564396407 1.62760538846957403258 -0.03230978438649618339 1.62760538846957403258 -0.03230978438649618339 -1.69222495724256605243 -0.03230978438649618339 1.62760538846957403258 -1.69222495724256605243 3.28752056132564396407 3.28752056132564396407 1.62760538846957403258 3.28752056132564396407 6.60735090703778382704 -0.03230978438649618339 -1.69222495724256605243 -0.03230978438649618339 6.60735090703778382704 3.28752056132564396407 1.62760538846957403258 4.94743573418171411760 3.28752056132564396407 -1.69222495724256605243 -1.69222495724256605243 1.62760538846957403258 1.62760538846957403258 -1.69222495724256605243 -1.69222495724256605243 -0.03230978438649618339 -0.03230978438649618339 -0.03230978438649618339 1.62760538846957403258 3.28752056132564396407 1.62760538846957403258 3.28752056132564396407 -0.03230978438649618339 1.62760538846957403258 1.62760538846957403258 3.28752056132564396407 -0.03230978438649618339 1.62760538846957403258 1.62760538846957403258 3.28752056132564396407 3.28752056132564396407 -0.03230978438649618339 -0.03230978438649618339 -1.69222495724256605243 -3.35214013009863665005 -3.35214013009863665005 1.62760538846957403258 1.62760538846957403258 -0.03230978438649618339 -3.35214013009863665005 -0.03230978438649618339 -3.35214013009863665005 -5.01205530295470680358 -6.67197047581077651301 -3.35214013009863665005 -1.69222495724256605243 -3.35214013009863665005 -3.35214013009863665005 -3.35214013009863665005 -5.01205530295470680358 -1.69222495724256605243 -1.69222495724256605243 -0.03230978438649618339 1.62760538846957403258 -0.03230978438649618339 -3.35214013009863665005 -1.69222495724256605243 -1.69222495724256605243 -3.35214013009863665005 -1.69222495724256605243 -0.03230978438649618339 -1.69222495724256605243 1.62760538846957403258 -3.35214013009863665005 -3.35214013009863665005 -3.35214013009863665005 -3.35214013009863665005 -3.35214013009863665005 -5.01205530295470680358 -1.69222495724256605243 -5.01205530295470680358 -8.33188564866684799881 -5.01205530295470680358 -6.67197047581077651301 -3.35214013009863665005 -3.35214013009863665005 -3.35214013009863665005 -3.35214013009863665005 -3.35214013009863665005 -6.67197047581077651301 -6.67197047581077651301 -3.35214013009863665005 -5.01205530295470680358 -5.01205530295470680358 1.62760538846957403258 -11.65171599437898741769 -5.01205530295470680358 -6.67197047581077651301 -3.35214013009863665005 -5.01205530295470680358 -5.01205530295470680358 -8.33188564866684799881 -3.35214013009863665005 -6.67197047581077651301 -6.67197047581077651301 -6.67197047581077651301 -6.67197047581077651301 -3.35214013009863665005 -8.33188564866684799881 -3.35214013009863665005 -6.67197047581077651301 -3.35214013009863665005 -5.01205530295470680358 -6.67197047581077651301 -5.01205530295470680358 -5.01205530295470680358 -5.01205530295470680358 -9.99180082152291682007 -5.01205530295470680358 -6.67197047581077651301 -6.67197047581077651301 -8.33188564866684799881 -5.01205530295470680358 -8.33188564866684799881 -8.33188564866684799881 -8.33188564866684799881 -5.01205530295470680358 -8.33188564866684799881 -9.99180082152291682007 -6.67197047581077651301 -9.99180082152291682007 -5.01205530295470680358 -6.67197047581077651301 -5.01205530295470680358 -8.33188564866684799881 -6.67197047581077651301 -8.33188564866684799881 -11.65171599437898741769 -8.33188564866684799881 -8.33188564866684799881 -8.33188564866684799881 -9.99180082152291682007 -8.33188564866684799881 -9.99180082152291682007 -13.31163116723505801531 -11.65171599437898741769 -8.33188564866684799881 -9.99180082152291682007 -9.99180082152291682007 -11.65171599437898741769 -9.99180082152291682007 -14.97154634009112861293 -13.31163116723505801531 -13.31163116723505801531 -11.65171599437898741769 -9.99180082152291682007 -13.31163116723505801531 -11.65171599437898741769 -11.65171599437898741769 -11.65171599437898741769 -14.97154634009112861293 -11.65171599437898741769 -14.97154634009112861293 -11.65171599437898741769 -9.99180082152291682007 -9.99180082152291682007 -11.65171599437898741769 -11.65171599437898741769 -14.97154634009112861293 -14.97154634009112861293 -11.65171599437898741769 -9.99180082152291682007 -11.65171599437898741769 -14.97154634009112861293 -14.97154634009112861293 -11.65171599437898741769 -14.97154634009112861293 -13.31163116723505801531 -13.31163116723505801531 -13.31163116723505801531 -9.99180082152291682007 -9.99180082152291682007 -11.65171599437898741769 -13.31163116723505801531 -13.31163116723505801531 -13.31163116723505801531 -9.99180082152291682007 -11.65171599437898741769 -13.31163116723505801531 -9.99180082152291682007 -9.99180082152291682007 -11.65171599437898741769 -11.65171599437898741769 -14.97154634009112861293 -11.65171599437898741769 -9.99180082152291682007 -13.31163116723505801531 -6.67197047581077651301 -9.99180082152291682007 -13.31163116723505801531 -14.97154634009112861293 -16.63146151294720098690 -9.99180082152291682007 -8.33188564866684799881 -11.65171599437898741769 -9.99180082152291682007 -9.99180082152291682007 -11.65171599437898741769 -11.65171599437898741769 -9.99180082152291682007 -8.33188564866684799881 -9.99180082152291682007 -6.67197047581077651301 -11.65171599437898741769 -11.65171599437898741769 -11.65171599437898741769 -11.65171599437898741769 -11.65171599437898741769 -9.99180082152291682007 -8.33188564866684799881 -8.33188564866684799881 -11.65171599437898741769 -11.65171599437898741769 -8.33188564866684799881 -6.67197047581077651301 -11.65171599437898741769 -5.01205530295470680358 -6.67197047581077651301 -6.67197047581077651301 -11.65171599437898741769 -8.33188564866684799881 -6.67197047581077651301 -6.67197047581077651301 -3.35214013009863665005 -6.67197047581077651301 -8.33188564866684799881 -5.01205530295470680358 -9.99180082152291682007 -8.33188564866684799881 -6.67197047581077651301 -8.33188564866684799881 -6.67197047581077651301 -3.35214013009863665005 -8.33188564866684799881 -5.01205530295470680358 -5.01205530295470680358 -5.01205530295470680358 -5.01205530295470680358 -5.01205530295470680358 -5.01205530295470680358 -6.67197047581077651301 -6.67197047581077651301 -5.01205530295470680358 -1.69222495724256605243 -3.35214013009863665005 -6.67197047581077651301 -3.35214013009863665005 -5.01205530295470680358 -5.01205530295470680358 -5.01205530295470680358 -6.67197047581077651301 -6.67197047581077651301 -6.67197047581077651301 -5.01205530295470680358 -6.67197047581077651301 -6.67197047581077651301 -3.35214013009863665005 -1.69222495724256605243 -3.35214013009863665005 -3.35214013009863665005 -3.35214013009863665005 -3.35214013009863665005 -3.35214013009863665005 -3.35214013009863665005 -5.01205530295470680358 -1.69222495724256605243 -1.69222495724256605243 -1.69222495724256605243 -5.01205530295470680358 -1.69222495724256605243 -5.01205530295470680358 -5.01205530295470680358 -1.69222495724256605243 -1.69222495724256605243 -0.03230978438649618339 -1.69222495724256605243 -1.69222495724256605243 -1.69222495724256605243 -6.67197047581077651301 -5.01205530295470680358 -3.35214013009863665005 -6.67197047581077651301 -0.03230978438649618339 -6.67197047581077651301 -5.01205530295470680358 -6.67197047581077651301 -8.33188564866684799881 -6.67197047581077651301 -5.01205530295470680358 -9.99180082152291682007 -6.67197047581077651301 -6.67197047581077651301 -8.33188564866684799881 -8.33188564866684799881 -5.01205530295470680358 -9.99180082152291682007 -5.01205530295470680358 -6.67197047581077651301 -8.33188564866684799881 -11.65171599437898741769 -9.99180082152291682007 -11.65171599437898741769 -9.99180082152291682007 -11.65171599437898741769 -6.67197047581077651301 -9.99180082152291682007 -11.65171599437898741769 -11.65171599437898741769 -11.65171599437898741769 -13.31163116723505801531 -8.33188564866684799881 -8.33188564866684799881 -11.65171599437898741769 -11.65171599437898741769 -9.99180082152291682007 -13.31163116723505801531 -11.65171599437898741769 -14.97154634009112861293 -9.99180082152291682007 -11.65171599437898741769 -11.65171599437898741769 -9.99180082152291682007 -9.99180082152291682007 -11.65171599437898741769 -9.99180082152291682007 -9.99180082152291682007 -9.99180082152291682007 -11.65171599437898741769 -9.99180082152291682007 -13.31163116723505801531 -9.99180082152291682007 -13.31163116723505801531 -11.65171599437898741769 -8.33188564866684799881 -11.65171599437898741769 -8.33188564866684799881 -6.67197047581077651301 -8.33188564866684799881 -8.33188564866684799881 -11.65171599437898741769 -13.31163116723505801531 -13.31163116723505801531 -13.31163116723505801531 -9.99180082152291682007 -6.67197047581077651301 -8.33188564866684799881 -6.67197047581077651301 -8.33188564866684799881 -11.65171599437898741769 -13.31163116723505801531 -9.99180082152291682007 -6.67197047581077651301 -9.99180082152291682007 -6.67197047581077651301 -8.33188564866684799881 -8.33188564866684799881 -11.65171599437898741769 -6.67197047581077651301 -6.67197047581077651301 -11.65171599437898741769 -5.01205530295470680358 -8.33188564866684799881 -8.33188564866684799881 -11.65171599437898741769 -6.67197047581077651301 -8.33188564866684799881 -8.33188564866684799881 -8.33188564866684799881 -11.65171599437898741769 -8.33188564866684799881 -9.99180082152291682007 -8.33188564866684799881 -5.01205530295470680358 -6.67197047581077651301 -3.35214013009863665005 -6.67197047581077651301 -8.33188564866684799881 -8.33188564866684799881 -5.01205530295470680358 -1.69222495724256605243 -3.35214013009863665005 -5.01205530295470680358 -8.33188564866684799881 -5.01205530295470680358 -6.67197047581077651301 -6.67197047581077651301 -5.01205530295470680358 -5.01205530295470680358 -5.01205530295470680358 -1.69222495724256605243 -6.67197047581077651301 -1.69222495724256605243 -3.35214013009863665005 -3.35214013009863665005 -5.01205530295470680358 -3.35214013009863665005 -1.69222495724256605243 -5.01205530295470680358 -5.01205530295470680358 -9.99180082152291682007 -5.01205530295470680358 -5.01205530295470680358 -0.03230978438649618339 -3.35214013009863665005 -6.67197047581077651301 -5.01205530295470680358 -5.01205530295470680358 -5.01205530295470680358 -8.33188564866684799881 -6.67197047581077651301 -5.01205530295470680358 -0.03230978438649618339 -1.69222495724256605243 -6.67197047581077651301 -6.67197047581077651301 -6.67197047581077651301 -8.33188564866684799881 -5.01205530295470680358 -6.67197047581077651301 -3.35214013009863665005 -6.67197047581077651301 -8.33188564866684799881 -5.01205530295470680358 -6.67197047581077651301 -3.35214013009863665005 -3.35214013009863665005 -3.35214013009863665005 -3.35214013009863665005 -3.35214013009863665005 -3.35214013009863665005 -5.01205530295470680358 -6.67197047581077651301 -6.67197047581077651301 -5.01205530295470680358 -1.69222495724256605243 -5.01205530295470680358 -5.01205530295470680358 -1.69222495724256605243 -3.35214013009863665005 -6.67197047581077651301 -3.35214013009863665005 -6.67197047581077651301 -3.35214013009863665005 -3.35214013009863665005 -6.67197047581077651301 -3.35214013009863665005 -1.69222495724256605243 -3.35214013009863665005 -6.67197047581077651301 -5.01205530295470680358 -1.69222495724256605243 -1.69222495724256605243 1.62760538846957403258 1.62760538846957403258 -3.35214013009863665005 1.62760538846957403258 -5.01205530295470680358 -3.35214013009863665005 -0.03230978438649618339 -1.69222495724256605243 -3.35214013009863665005 -1.69222495724256605243 -5.01205530295470680358 -5.01205530295470680358 -3.35214013009863665005 -5.01205530295470680358 -1.69222495724256605243 3.28752056132564396407 -1.69222495724256605243 -0.03230978438649618339 -1.69222495724256605243 -1.69222495724256605243 -5.01205530295470680358 -1.69222495724256605243 1.62760538846957403258 -0.03230978438649618339 1.62760538846957403258 -1.69222495724256605243 -3.35214013009863665005 -0.03230978438649618339 -0.03230978438649618339 -3.35214013009863665005 -1.69222495724256605243 -1.69222495724256605243 1.62760538846957403258 3.28752056132564396407 -0.03230978438649618339 -1.69222495724256605243 -0.03230978438649618339 -3.35214013009863665005 -1.69222495724256605243 -0.03230978438649618339 -0.03230978438649618339 3.28752056132564396407 -1.69222495724256605243 -0.03230978438649618339 3.28752056132564396407 -0.03230978438649618339 1.62760538846957403258 -0.03230978438649618339 1.62760538846957403258 3.28752056132564396407 -1.69222495724256605243 -0.03230978438649618339 -0.03230978438649618339 -1.69222495724256605243 1.62760538846957403258 4.94743573418171411760 4.94743573418171411760 4.94743573418171411760 4.94743573418171411760 -0.03230978438649618339 -3.35214013009863665005 6.60735090703778382704 3.28752056132564396407 4.94743573418171411760 6.60735090703778382704 1.62760538846957403258 6.60735090703778382704 4.94743573418171411760 1.62760538846957403258 -0.03230978438649618339 3.28752056132564396407 -0.03230978438649618339 8.26726607989385442465 6.60735090703778382704 1.62760538846957403258 1.62760538846957403258 1.62760538846957403258 4.94743573418171411760 3.28752056132564396407 6.60735090703778382704 4.94743573418171411760 4.94743573418171411760 4.94743573418171411760 3.28752056132564396407 6.60735090703778382704 8.26726607989385442465 4.94743573418171411760 4.94743573418171411760 4.94743573418171411760 3.28752056132564396407 3.28752056132564396407 -3.35214013009863665005 9.92718125274992502227 1.62760538846957403258 11.58709642560599384353 3.28752056132564396407 3.28752056132564396407 1.62760538846957403258 -1.69222495724256605243 6.60735090703778382704 6.60735090703778382704 4.94743573418171411760 3.28752056132564396407 -1.69222495724256605243 1.62760538846957403258 -0.03230978438649618339 1.62760538846957403258 3.28752056132564396407 3.28752056132564396407 4.94743573418171411760 1.62760538846957403258 -1.69222495724256605243 3.28752056132564396407 -0.03230978438649618339 1.62760538846957403258 1.62760538846957403258 1.62760538846957403258 1.62760538846957403258 -0.03230978438649618339 -0.03230978438649618339 -1.69222495724256605243 -1.69222495724256605243 1.62760538846957403258 -1.69222495724256605243 -1.69222495724256605243 1.62760538846957403258 -3.35214013009863665005 -0.03230978438649618339 -0.03230978438649618339 -3.35214013009863665005 -0.03230978438649618339 1.62760538846957403258 -1.69222495724256605243 -0.03230978438649618339 -5.01205530295470680358 -0.03230978438649618339 1.62760538846957403258 3.28752056132564396407 -0.03230978438649618339 -0.03230978438649618339 -5.01205530295470680358 -5.01205530295470680358 -3.35214013009863665005 -1.69222495724256605243 -3.35214013009863665005 1.62760538846957403258 -3.35214013009863665005 -3.35214013009863665005 -1.69222495724256605243 -3.35214013009863665005 -3.35214013009863665005 -1.69222495724256605243 -1.69222495724256605243 -1.69222495724256605243 -0.03230978438649618339 -1.69222495724256605243 -5.01205530295470680358 -0.03230978438649618339 -1.69222495724256605243 -3.35214013009863665005 -5.01205530295470680358 -3.35214013009863665005 -1.69222495724256605243 -1.69222495724256605243 -8.33188564866684799881 -6.67197047581077651301 -3.35214013009863665005 -8.33188564866684799881 -3.35214013009863665005 -1.69222495724256605243 -3.35214013009863665005 -5.01205530295470680358 -6.67197047581077651301 -6.67197047581077651301 -3.35214013009863665005 -6.67197047581077651301 -3.35214013009863665005 -3.35214013009863665005 -3.35214013009863665005 -1.69222495724256605243 -9.99180082152291682007 -6.67197047581077651301 -1.69222495724256605243 -0.03230978438649618339 -5.01205530295470680358 -1.69222495724256605243 -6.67197047581077651301 -5.01205530295470680358 -5.01205530295470680358 -5.01205530295470680358 -5.01205530295470680358 -0.03230978438649618339 -3.35214013009863665005 -3.35214013009863665005 -3.35214013009863665005 -0.03230978438649618339 -3.35214013009863665005 -5.01205530295470680358 -6.67197047581077651301 -5.01205530295470680358 -1.69222495724256605243 3.28752056132564396407 -0.03230978438649618339 -3.35214013009863665005 -3.35214013009863665005 -3.35214013009863665005 -1.69222495724256605243 -3.35214013009863665005 -5.01205530295470680358 -3.35214013009863665005 -5.01205530295470680358 -3.35214013009863665005 -5.01205530295470680358 -3.35214013009863665005 -1.69222495724256605243 -0.03230978438649618339 -0.03230978438649618339 1.62760538846957403258 -1.69222495724256605243 3.28752056132564396407 -3.35214013009863665005 -0.03230978438649618339 -3.35214013009863665005 -0.03230978438649618339 1.62760538846957403258 -0.03230978438649618339 -1.69222495724256605243 -3.35214013009863665005 1.62760538846957403258 -0.03230978438649618339 -3.35214013009863665005 -0.03230978438649618339 4.94743573418171411760 -0.03230978438649618339 -1.69222495724256605243 -0.03230978438649618339 -3.35214013009863665005 -1.69222495724256605243 -1.69222495724256605243 -3.35214013009863665005 -0.03230978438649618339 -3.35214013009863665005 1.62760538846957403258 -1.69222495724256605243 1.62760538846957403258 -0.03230978438649618339 4.94743573418171411760 -0.03230978438649618339 4.94743573418171411760 -0.03230978438649618339 -1.69222495724256605243 -1.69222495724256605243 -0.03230978438649618339 -3.35214013009863665005 1.62760538846957403258 -1.69222495724256605243 1.62760538846957403258 -0.03230978438649618339 -1.69222495724256605243 -1.69222495724256605243 -5.01205530295470680358 3.28752056132564396407 -1.69222495724256605243 3.28752056132564396407 4.94743573418171411760 -1.69222495724256605243 -1.69222495724256605243 -6.67197047581077651301 -1.69222495724256605243 -3.35214013009863665005 -0.03230978438649618339 1.62760538846957403258 1.62760538846957403258 3.28752056132564396407 -1.69222495724256605243 -5.01205530295470680358 -3.35214013009863665005 -1.69222495724256605243 -0.03230978438649618339 1.62760538846957403258 -0.03230978438649618339 -0.03230978438649618339 -1.69222495724256605243 -3.35214013009863665005 -5.01205530295470680358 -0.03230978438649618339 -1.69222495724256605243 -1.69222495724256605243 -1.69222495724256605243 1.62760538846957403258 -0.03230978438649618339 -6.67197047581077651301 -5.01205530295470680358 -3.35214013009863665005 -3.35214013009863665005 -0.03230978438649618339 -0.03230978438649618339 -1.69222495724256605243 -1.69222495724256605243 -5.01205530295470680358 -1.69222495724256605243 -1.69222495724256605243 -5.01205530295470680358 -0.03230978438649618339 1.62760538846957403258 -0.03230978438649618339 -1.69222495724256605243 -3.35214013009863665005 -1.69222495724256605243 -3.35214013009863665005 -3.35214013009863665005 -3.35214013009863665005 -0.03230978438649618339 -1.69222495724256605243 -1.69222495724256605243 -1.69222495724256605243 -3.35214013009863665005 -5.01205530295470680358 -1.69222495724256605243 1.62760538846957403258 1.62760538846957403258 -3.35214013009863665005 -3.35214013009863665005 -1.69222495724256605243 -1.69222495724256605243 -1.69222495724256605243 -1.69222495724256605243 -1.69222495724256605243 1.62760538846957403258 -1.69222495724256605243 1.62760538846957403258 -5.01205530295470680358 -5.01205530295470680358 -5.01205530295470680358 -6.67197047581077651301 -1.69222495724256605243 1.62760538846957403258 -3.35214013009863665005 -1.69222495724256605243 -3.35214013009863665005 -3.35214013009863665005 -0.03230978438649618339 -0.03230978438649618339 -1.69222495724256605243 -0.03230978438649618339 -0.03230978438649618339 -1.69222495724256605243 -5.01205530295470680358 -5.01205530295470680358 -1.69222495724256605243 -1.69222495724256605243 1.62760538846957403258 -1.69222495724256605243 -0.03230978438649618339 -1.69222495724256605243 -3.35214013009863665005 -1.69222495724256605243 -1.69222495724256605243 -1.69222495724256605243 -0.03230978438649618339 -0.03230978438649618339 -1.69222495724256605243 -6.67197047581077651301 -0.03230978438649618339 -5.01205530295470680358 -3.35214013009863665005 -5.01205530295470680358 -0.03230978438649618339 -0.03230978438649618339 -3.35214013009863665005 -0.03230978438649618339 -5.01205530295470680358 -5.01205530295470680358 -1.69222495724256605243 1.62760538846957403258 -3.35214013009863665005 -0.03230978438649618339 1.62760538846957403258 -0.03230978438649618339 -8.33188564866684799881 -3.35214013009863665005 -1.69222495724256605243 -6.67197047581077651301 -0.03230978438649618339 -3.35214013009863665005 1.62760538846957403258 -5.01205530295470680358 -0.03230978438649618339 -1.69222495724256605243 -0.03230978438649618339 -0.03230978438649618339 -1.69222495724256605243 -1.69222495724256605243 -3.35214013009863665005 -3.35214013009863665005 -0.03230978438649618339 1.62760538846957403258 -0.03230978438649618339 1.62760538846957403258 -1.69222495724256605243 -1.69222495724256605243 1.62760538846957403258 -3.35214013009863665005 -1.69222495724256605243 -1.69222495724256605243 -3.35214013009863665005 -3.35214013009863665005 -3.35214013009863665005 -1.69222495724256605243 -3.35214013009863665005 -1.69222495724256605243 -6.67197047581077651301 -5.01205530295470680358 -3.35214013009863665005 -5.01205530295470680358 -1.69222495724256605243 -5.01205530295470680358 -3.35214013009863665005 -5.01205530295470680358 -3.35214013009863665005 -6.67197047581077651301 -3.35214013009863665005 -1.69222495724256605243 -3.35214013009863665005 -3.35214013009863665005 -5.01205530295470680358 -6.67197047581077651301 -8.33188564866684799881 -6.67197047581077651301 -5.01205530295470680358 -3.35214013009863665005 -5.01205530295470680358 -6.67197047581077651301 -5.01205530295470680358 -3.35214013009863665005 -5.01205530295470680358 -8.33188564866684799881 -5.01205530295470680358 -5.01205530295470680358 -3.35214013009863665005 -3.35214013009863665005 -6.67197047581077651301 -8.33188564866684799881 -9.99180082152291682007 -8.33188564866684799881 -6.67197047581077651301 -8.33188564866684799881 -6.67197047581077651301 -5.01205530295470680358 -5.01205530295470680358 -6.67197047581077651301 -8.33188564866684799881 -9.99180082152291682007 -8.33188564866684799881 -11.65171599437898741769 -5.01205530295470680358 -8.33188564866684799881 -8.33188564866684799881 -5.01205530295470680358 -9.99180082152291682007 -6.67197047581077651301 -9.99180082152291682007 -11.65171599437898741769 -8.33188564866684799881 -6.67197047581077651301 -9.99180082152291682007 -5.01205530295470680358 -5.01205530295470680358 -3.35214013009863665005 -8.33188564866684799881 -9.99180082152291682007 -8.33188564866684799881 -13.31163116723505801531 -8.33188564866684799881 -11.65171599437898741769 -13.31163116723505801531 -11.65171599437898741769 -6.67197047581077651301 -14.97154634009112861293 -13.31163116723505801531 -14.97154634009112861293 -13.31163116723505801531 -13.31163116723505801531 -13.31163116723505801531 -13.31163116723505801531 -9.99180082152291682007 -14.97154634009112861293 -14.97154634009112861293 -14.97154634009112861293 -14.97154634009112861293 -14.97154634009112861293 -16.63146151294720098690 -13.31163116723505801531 -9.99180082152291682007 -13.31163116723505801531 -14.97154634009112861293 -16.63146151294720098690 -16.63146151294720098690 -16.63146151294720098690 -16.63146151294720098690 -13.31163116723505801531 -14.97154634009112861293 -14.97154634009112861293 -11.65171599437898741769 -14.97154634009112861293 -16.63146151294720098690 -18.29137668580326803180 -13.31163116723505801531 -14.97154634009112861293 -11.65171599437898741769 -13.31163116723505801531 -9.99180082152291682007 -14.97154634009112861293 -14.97154634009112861293 -14.97154634009112861293 -18.29137668580326803180 -9.99180082152291682007 -14.97154634009112861293 -9.99180082152291682007 -13.31163116723505801531 -11.65171599437898741769 -11.65171599437898741769 -14.97154634009112861293 -13.31163116723505801531 -16.63146151294720098690 -9.99180082152291682007 -11.65171599437898741769 -11.65171599437898741769 -9.99180082152291682007 -8.33188564866684799881 -14.97154634009112861293 -13.31163116723505801531 -14.97154634009112861293 -9.99180082152291682007 -6.67197047581077651301 -9.99180082152291682007 -9.99180082152291682007 -9.99180082152291682007 -8.33188564866684799881 -9.99180082152291682007 -11.65171599437898741769 -8.33188564866684799881 -8.33188564866684799881 -6.67197047581077651301 -5.01205530295470680358 -3.35214013009863665005 -5.01205530295470680358 -5.01205530295470680358 -13.31163116723505801531 -5.01205530295470680358 -6.67197047581077651301 -6.67197047581077651301 -5.01205530295470680358 -5.01205530295470680358 -8.33188564866684799881 -3.35214013009863665005 -6.67197047581077651301 -5.01205530295470680358 -5.01205530295470680358 -1.69222495724256605243 -3.35214013009863665005 -3.35214013009863665005 -3.35214013009863665005 -6.67197047581077651301 -3.35214013009863665005 -1.69222495724256605243 -0.03230978438649618339 -1.69222495724256605243 -0.03230978438649618339 -0.03230978438649618339 -0.03230978438649618339 1.62760538846957403258 -0.03230978438649618339 1.62760538846957403258 -0.03230978438649618339 1.62760538846957403258 3.28752056132564396407 1.62760538846957403258 1.62760538846957403258 -0.03230978438649618339 3.28752056132564396407 4.94743573418171411760 3.28752056132564396407 1.62760538846957403258 3.28752056132564396407 3.28752056132564396407 3.28752056132564396407 6.60735090703778382704 3.28752056132564396407 3.28752056132564396407 1.62760538846957403258 6.60735090703778382704 8.26726607989385442465 8.26726607989385442465 6.60735090703778382704 1.62760538846957403258 -0.03230978438649618339 4.94743573418171411760 1.62760538846957403258 6.60735090703778382704 8.26726607989385442465 -0.03230978438649618339 6.60735090703778382704 6.60735090703778382704 9.92718125274992502227 3.28752056132564396407 4.94743573418171411760 4.94743573418171411760 4.94743573418171411760 4.94743573418171411760 6.60735090703778382704 4.94743573418171411760 8.26726607989385442465 6.60735090703778382704 6.60735090703778382704 13.24701159846206444115 6.60735090703778382704 3.28752056132564396407 3.28752056132564396407 3.28752056132564396407 4.94743573418171411760 6.60735090703778382704 6.60735090703778382704 4.94743573418171411760 6.60735090703778382704 3.28752056132564396407 6.60735090703778382704 3.28752056132564396407 1.62760538846957403258 9.92718125274992502227 4.94743573418171411760 8.26726607989385442465 3.28752056132564396407 9.92718125274992502227 1.62760538846957403258 3.28752056132564396407 4.94743573418171411760 6.60735090703778382704 6.60735090703778382704 4.94743573418171411760 3.28752056132564396407 4.94743573418171411760 3.28752056132564396407 6.60735090703778382704 6.60735090703778382704 6.60735090703778382704 9.92718125274992502227 4.94743573418171411760 1.62760538846957403258 -0.03230978438649618339 3.28752056132564396407 3.28752056132564396407 4.94743573418171411760 8.26726607989385442465 4.94743573418171411760 4.94743573418171411760 8.26726607989385442465 6.60735090703778382704 3.28752056132564396407 6.60735090703778382704 9.92718125274992502227 4.94743573418171411760 9.92718125274992502227 4.94743573418171411760 3.28752056132564396407 4.94743573418171411760 8.26726607989385442465 8.26726607989385442465 8.26726607989385442465 4.94743573418171411760 3.28752056132564396407 4.94743573418171411760 4.94743573418171411760 6.60735090703778382704 3.28752056132564396407 3.28752056132564396407 6.60735090703778382704 3.28752056132564396407 -0.03230978438649618339 3.28752056132564396407 3.28752056132564396407 1.62760538846957403258 1.62760538846957403258 3.28752056132564396407 1.62760538846957403258 1.62760538846957403258 4.94743573418171411760 1.62760538846957403258 3.28752056132564396407 3.28752056132564396407 1.62760538846957403258 1.62760538846957403258 -1.69222495724256605243 3.28752056132564396407 -1.69222495724256605243 1.62760538846957403258 -1.69222495724256605243 -1.69222495724256605243 1.62760538846957403258 -0.03230978438649618339 -1.69222495724256605243 -1.69222495724256605243 -1.69222495724256605243 -1.69222495724256605243 1.62760538846957403258 -1.69222495724256605243 -1.69222495724256605243 -3.35214013009863665005 1.62760538846957403258 3.28752056132564396407 -0.03230978438649618339 -0.03230978438649618339 3.28752056132564396407 -3.35214013009863665005 1.62760538846957403258 -1.69222495724256605243 -3.35214013009863665005 -0.03230978438649618339 1.62760538846957403258 1.62760538846957403258 -0.03230978438649618339 -0.03230978438649618339 -0.03230978438649618339 -1.69222495724256605243 -0.03230978438649618339 1.62760538846957403258 3.28752056132564396407 1.62760538846957403258 -0.03230978438649618339 -3.35214013009863665005 -0.03230978438649618339 -0.03230978438649618339 1.62760538846957403258 -3.35214013009863665005 1.62760538846957403258 -3.35214013009863665005 -1.69222495724256605243 1.62760538846957403258 -1.69222495724256605243 -3.35214013009863665005 -0.03230978438649618339 -3.35214013009863665005 -3.35214013009863665005 -3.35214013009863665005 -3.35214013009863665005 -1.69222495724256605243 -0.03230978438649618339 1.62760538846957403258 -5.01205530295470680358 -0.03230978438649618339 -3.35214013009863665005 -3.35214013009863665005 -0.03230978438649618339 1.62760538846957403258 -1.69222495724256605243 1.62760538846957403258 -1.69222495724256605243 1.62760538846957403258 -0.03230978438649618339 -1.69222495724256605243 1.62760538846957403258 1.62760538846957403258 -5.01205530295470680358 -0.03230978438649618339 -1.69222495724256605243 1.62760538846957403258 -1.69222495724256605243 -1.69222495724256605243 -3.35214013009863665005 -0.03230978438649618339 -5.01205530295470680358 1.62760538846957403258 -0.03230978438649618339 -0.03230978438649618339 -3.35214013009863665005 -0.03230978438649618339 -0.03230978438649618339 3.28752056132564396407 -3.35214013009863665005 -1.69222495724256605243 -0.03230978438649618339 -1.69222495724256605243 1.62760538846957403258 3.28752056132564396407 -1.69222495724256605243 -0.03230978438649618339 -1.69222495724256605243 -3.35214013009863665005 -3.35214013009863665005 -1.69222495724256605243 3.28752056132564396407 -1.69222495724256605243 -3.35214013009863665005 -3.35214013009863665005 -1.69222495724256605243 -1.69222495724256605243 -1.69222495724256605243 1.62760538846957403258 -3.35214013009863665005 -3.35214013009863665005 -3.35214013009863665005 -5.01205530295470680358 -6.67197047581077651301 -6.67197047581077651301 -1.69222495724256605243 -5.01205530295470680358 -1.69222495724256605243 -3.35214013009863665005 -3.35214013009863665005 -3.35214013009863665005 -3.35214013009863665005 -1.69222495724256605243 -5.01205530295470680358 1.62760538846957403258 -5.01205530295470680358 -1.69222495724256605243 -8.33188564866684799881 -6.67197047581077651301 -8.33188564866684799881 -8.33188564866684799881 -0.03230978438649618339 -3.35214013009863665005 -0.03230978438649618339 -3.35214013009863665005 -5.01205530295470680358 -5.01205530295470680358 -3.35214013009863665005 -5.01205530295470680358 -3.35214013009863665005 -3.35214013009863665005 -1.69222495724256605243 -5.01205530295470680358 -5.01205530295470680358 -6.67197047581077651301 -5.01205530295470680358 -1.69222495724256605243 -5.01205530295470680358 -1.69222495724256605243 -0.03230978438649618339 -1.69222495724256605243 -6.67197047581077651301 -8.33188564866684799881 -6.67197047581077651301 -3.35214013009863665005 -0.03230978438649618339 -1.69222495724256605243 -3.35214013009863665005 -3.35214013009863665005 -1.69222495724256605243 -3.35214013009863665005 -1.69222495724256605243 -3.35214013009863665005 1.62760538846957403258 1.62760538846957403258 -1.69222495724256605243 -3.35214013009863665005 -0.03230978438649618339 -0.03230978438649618339 1.62760538846957403258 -1.69222495724256605243 -5.01205530295470680358 -0.03230978438649618339 -1.69222495724256605243 1.62760538846957403258 -1.69222495724256605243 -0.03230978438649618339 -0.03230978438649618339 -3.35214013009863665005 1.62760538846957403258 3.28752056132564396407 3.28752056132564396407 4.94743573418171411760 3.28752056132564396407 1.62760538846957403258 -0.03230978438649618339 1.62760538846957403258 1.62760538846957403258 4.94743573418171411760 8.26726607989385442465 1.62760538846957403258 1.62760538846957403258 3.28752056132564396407 -0.03230978438649618339 4.94743573418171411760 4.94743573418171411760 6.60735090703778382704 4.94743573418171411760 6.60735090703778382704 3.28752056132564396407 3.28752056132564396407 1.62760538846957403258 4.94743573418171411760 6.60735090703778382704 1.62760538846957403258 1.62760538846957403258 6.60735090703778382704 3.28752056132564396407 4.94743573418171411760 3.28752056132564396407 3.28752056132564396407 3.28752056132564396407 1.62760538846957403258 4.94743573418171411760 3.28752056132564396407 4.94743573418171411760 1.62760538846957403258 4.94743573418171411760 6.60735090703778382704 1.62760538846957403258 3.28752056132564396407 1.62760538846957403258 4.94743573418171411760 1.62760538846957403258 4.94743573418171411760 -0.03230978438649618339 1.62760538846957403258 -0.03230978438649618339 -1.69222495724256605243 -0.03230978438649618339 -1.69222495724256605243 -1.69222495724256605243 -0.03230978438649618339 -0.03230978438649618339 3.28752056132564396407 -1.69222495724256605243 -1.69222495724256605243 -5.01205530295470680358 -5.01205530295470680358 -3.35214013009863665005 -3.35214013009863665005 -1.69222495724256605243 -1.69222495724256605243 -3.35214013009863665005 -6.67197047581077651301 -3.35214013009863665005 -8.33188564866684799881 -0.03230978438649618339 -3.35214013009863665005 -0.03230978438649618339 -1.69222495724256605243 -1.69222495724256605243 -3.35214013009863665005 -5.01205530295470680358 -5.01205530295470680358 -5.01205530295470680358 -1.69222495724256605243 3.28752056132564396407 -3.35214013009863665005 -5.01205530295470680358 -3.35214013009863665005 -6.67197047581077651301 -3.35214013009863665005 -1.69222495724256605243 -0.03230978438649618339 -0.03230978438649618339 -1.69222495724256605243 -3.35214013009863665005 -3.35214013009863665005 -5.01205530295470680358 -5.01205530295470680358 -1.69222495724256605243 1.62760538846957403258 1.62760538846957403258 -5.01205530295470680358 -6.67197047581077651301 -1.69222495724256605243 -6.67197047581077651301 -3.35214013009863665005 -1.69222495724256605243 -3.35214013009863665005 -1.69222495724256605243 -0.03230978438649618339 -3.35214013009863665005 -6.67197047581077651301 -1.69222495724256605243 -1.69222495724256605243 -3.35214013009863665005 -0.03230978438649618339 -1.69222495724256605243 -5.01205530295470680358 -5.01205530295470680358 1.62760538846957403258 -3.35214013009863665005 -1.69222495724256605243 1.62760538846957403258 -0.03230978438649618339 -5.01205530295470680358 -1.69222495724256605243 -1.69222495724256605243 -1.69222495724256605243 4.94743573418171411760 -1.69222495724256605243 -1.69222495724256605243 -5.01205530295470680358 -1.69222495724256605243 -0.03230978438649618339 -0.03230978438649618339 -1.69222495724256605243 1.62760538846957403258 -1.69222495724256605243 -3.35214013009863665005 -0.03230978438649618339 1.62760538846957403258 4.94743573418171411760 1.62760538846957403258 -0.03230978438649618339 -3.35214013009863665005 -1.69222495724256605243 -1.69222495724256605243 -0.03230978438649618339 3.28752056132564396407 1.62760538846957403258 -1.69222495724256605243 -1.69222495724256605243 -0.03230978438649618339 -1.69222495724256605243 -0.03230978438649618339 1.62760538846957403258 -1.69222495724256605243 1.62760538846957403258 -0.03230978438649618339 -1.69222495724256605243 -1.69222495724256605243 -0.03230978438649618339 1.62760538846957403258 1.62760538846957403258 4.94743573418171411760 3.28752056132564396407 1.62760538846957403258 3.28752056132564396407 -1.69222495724256605243 -1.69222495724256605243 -1.69222495724256605243 3.28752056132564396407 1.62760538846957403258 1.62760538846957403258 -1.69222495724256605243 -0.03230978438649618339 -1.69222495724256605243 -1.69222495724256605243 3.28752056132564396407 -1.69222495724256605243 -0.03230978438649618339 1.62760538846957403258 -0.03230978438649618339 -3.35214013009863665005 -3.35214013009863665005 -0.03230978438649618339 -3.35214013009863665005 -3.35214013009863665005 -0.03230978438649618339 1.62760538846957403258 -0.03230978438649618339 -1.69222495724256605243 -6.67197047581077651301 -3.35214013009863665005 6.60735090703778382704 1.62760538846957403258 -0.03230978438649618339 -0.03230978438649618339 -0.03230978438649618339 -1.69222495724256605243 -5.01205530295470680358 1.62760538846957403258 1.62760538846957403258 3.28752056132564396407 1.62760538846957403258 1.62760538846957403258 -0.03230978438649618339 -0.03230978438649618339 3.28752056132564396407 1.62760538846957403258 1.62760538846957403258 1.62760538846957403258 3.28752056132564396407 1.62760538846957403258 -3.35214013009863665005 1.62760538846957403258 3.28752056132564396407 -0.03230978438649618339 6.60735090703778382704 4.94743573418171411760 -0.03230978438649618339 3.28752056132564396407 -1.69222495724256605243 1.62760538846957403258 1.62760538846957403258 1.62760538846957403258 1.62760538846957403258 8.26726607989385442465 6.60735090703778382704 -0.03230978438649618339 4.94743573418171411760 3.28752056132564396407 4.94743573418171411760 3.28752056132564396407 6.60735090703778382704 3.28752056132564396407 3.28752056132564396407 1.62760538846957403258 3.28752056132564396407 -0.03230978438649618339 1.62760538846957403258 6.60735090703778382704 6.60735090703778382704 4.94743573418171411760 4.94743573418171411760 4.94743573418171411760 1.62760538846957403258 4.94743573418171411760 6.60735090703778382704 8.26726607989385442465 8.26726607989385442465 4.94743573418171411760 4.94743573418171411760 3.28752056132564396407 1.62760538846957403258 6.60735090703778382704 8.26726607989385442465 4.94743573418171411760 6.60735090703778382704 4.94743573418171411760 1.62760538846957403258 3.28752056132564396407 8.26726607989385442465 6.60735090703778382704 4.94743573418171411760 3.28752056132564396407 4.94743573418171411760 3.28752056132564396407 9.92718125274992502227 4.94743573418171411760 4.94743573418171411760 9.92718125274992502227 8.26726607989385442465 4.94743573418171411760 4.94743573418171411760 4.94743573418171411760 13.24701159846206444115 6.60735090703778382704 4.94743573418171411760 1.62760538846957403258 6.60735090703778382704 6.60735090703778382704 6.60735090703778382704 4.94743573418171411760 3.28752056132564396407 6.60735090703778382704 4.94743573418171411760 3.28752056132564396407 6.60735090703778382704 8.26726607989385442465 3.28752056132564396407 1.62760538846957403258 3.28752056132564396407 1.62760538846957403258 -0.03230978438649618339 4.94743573418171411760 6.60735090703778382704 6.60735090703778382704 3.28752056132564396407 -0.03230978438649618339 3.28752056132564396407 4.94743573418171411760 1.62760538846957403258 1.62760538846957403258 4.94743573418171411760 1.62760538846957403258 -0.03230978438649618339 3.28752056132564396407 -0.03230978438649618339 -1.69222495724256605243 -0.03230978438649618339 -0.03230978438649618339 -1.69222495724256605243 1.62760538846957403258 1.62760538846957403258 1.62760538846957403258 1.62760538846957403258 -1.69222495724256605243 -1.69222495724256605243 1.62760538846957403258 -0.03230978438649618339 1.62760538846957403258 -1.69222495724256605243 -3.35214013009863665005 -3.35214013009863665005 -1.69222495724256605243 1.62760538846957403258 -0.03230978438649618339 1.62760538846957403258 3.28752056132564396407 1.62760538846957403258 1.62760538846957403258 -1.69222495724256605243 -1.69222495724256605243 4.94743573418171411760 1.62760538846957403258 3.28752056132564396407 -1.69222495724256605243 3.28752056132564396407 -0.03230978438649618339 -0.03230978438649618339 -0.03230978438649618339 -1.69222495724256605243 1.62760538846957403258 -0.03230978438649618339 1.62760538846957403258 4.94743573418171411760 -0.03230978438649618339 -1.69222495724256605243 -0.03230978438649618339 -0.03230978438649618339 -0.03230978438649618339 -0.03230978438649618339 1.62760538846957403258 -0.03230978438649618339 -3.35214013009863665005 -0.03230978438649618339 -0.03230978438649618339 1.62760538846957403258 -0.03230978438649618339 6.60735090703778382704 1.62760538846957403258 -0.03230978438649618339 -1.69222495724256605243 3.28752056132564396407 1.62760538846957403258 1.62760538846957403258 1.62760538846957403258 -1.69222495724256605243 -1.69222495724256605243 -0.03230978438649618339 -3.35214013009863665005 -0.03230978438649618339 -0.03230978438649618339 3.28752056132564396407 -3.35214013009863665005 -1.69222495724256605243 -0.03230978438649618339 -0.03230978438649618339 -3.35214013009863665005 -1.69222495724256605243 -1.69222495724256605243 -5.01205530295470680358 -1.69222495724256605243 -5.01205530295470680358 -5.01205530295470680358 -0.03230978438649618339 -1.69222495724256605243 1.62760538846957403258 1.62760538846957403258 -0.03230978438649618339 1.62760538846957403258 3.28752056132564396407 -0.03230978438649618339 4.94743573418171411760 1.62760538846957403258 -0.03230978438649618339 1.62760538846957403258 4.94743573418171411760 1.62760538846957403258 1.62760538846957403258 -3.35214013009863665005 1.62760538846957403258 1.62760538846957403258 1.62760538846957403258 1.62760538846957403258 -0.03230978438649618339 4.94743573418171411760 -0.03230978438649618339 4.94743573418171411760 1.62760538846957403258 4.94743573418171411760 1.62760538846957403258 1.62760538846957403258 1.62760538846957403258 -0.03230978438649618339 3.28752056132564396407 3.28752056132564396407 1.62760538846957403258 6.60735090703778382704 3.28752056132564396407 -3.35214013009863665005 3.28752056132564396407 -3.35214013009863665005 -0.03230978438649618339 1.62760538846957403258 -0.03230978438649618339 1.62760538846957403258 3.28752056132564396407 -0.03230978438649618339 -0.03230978438649618339 1.62760538846957403258 -0.03230978438649618339 -0.03230978438649618339 -0.03230978438649618339 -1.69222495724256605243 -1.69222495724256605243 -0.03230978438649618339 -3.35214013009863665005 -3.35214013009863665005 -5.01205530295470680358 -1.69222495724256605243 1.62760538846957403258 -1.69222495724256605243 -3.35214013009863665005 -5.01205530295470680358 -6.67197047581077651301 -1.69222495724256605243 -0.03230978438649618339 -0.03230978438649618339 -5.01205530295470680358 -1.69222495724256605243 -1.69222495724256605243 -5.01205530295470680358 -0.03230978438649618339 -3.35214013009863665005 1.62760538846957403258 -3.35214013009863665005 -0.03230978438649618339 -3.35214013009863665005 -3.35214013009863665005 -6.67197047581077651301 -6.67197047581077651301 -3.35214013009863665005 -1.69222495724256605243 -3.35214013009863665005 -1.69222495724256605243 -3.35214013009863665005 -1.69222495724256605243 -3.35214013009863665005 -3.35214013009863665005 -3.35214013009863665005 -3.35214013009863665005 -3.35214013009863665005 -3.35214013009863665005 -1.69222495724256605243 -3.35214013009863665005 -3.35214013009863665005 -3.35214013009863665005 -8.33188564866684799881 -3.35214013009863665005 -3.35214013009863665005 -5.01205530295470680358 -1.69222495724256605243 -5.01205530295470680358 -3.35214013009863665005 -5.01205530295470680358 -1.69222495724256605243 -3.35214013009863665005 -1.69222495724256605243 -5.01205530295470680358 -3.35214013009863665005 1.62760538846957403258 1.62760538846957403258 -3.35214013009863665005 -0.03230978438649618339 -1.69222495724256605243 -1.69222495724256605243 -3.35214013009863665005 1.62760538846957403258 -0.03230978438649618339 -3.35214013009863665005 -0.03230978438649618339 -6.67197047581077651301 -1.69222495724256605243 3.28752056132564396407 -1.69222495724256605243 3.28752056132564396407 1.62760538846957403258 -1.69222495724256605243 -1.69222495724256605243 -3.35214013009863665005 -5.01205530295470680358 1.62760538846957403258 -0.03230978438649618339 -0.03230978438649618339 -0.03230978438649618339 -1.69222495724256605243 -3.35214013009863665005 -5.01205530295470680358 -1.69222495724256605243 -3.35214013009863665005 -1.69222495724256605243 -0.03230978438649618339 -0.03230978438649618339 -1.69222495724256605243 -6.67197047581077651301 -1.69222495724256605243 -5.01205530295470680358 -0.03230978438649618339 3.28752056132564396407 -1.69222495724256605243 -3.35214013009863665005 -1.69222495724256605243 -3.35214013009863665005 -1.69222495724256605243 -1.69222495724256605243 -0.03230978438649618339 -1.69222495724256605243 1.62760538846957403258 -1.69222495724256605243 -3.35214013009863665005 -3.35214013009863665005 -0.03230978438649618339 -3.35214013009863665005 -1.69222495724256605243 -1.69222495724256605243 1.62760538846957403258 -0.03230978438649618339 -1.69222495724256605243 -5.01205530295470680358 -1.69222495724256605243 -3.35214013009863665005 1.62760538846957403258 -0.03230978438649618339 -1.69222495724256605243 -1.69222495724256605243 -3.35214013009863665005 -1.69222495724256605243 -0.03230978438649618339 1.62760538846957403258 -0.03230978438649618339 4.94743573418171411760 -3.35214013009863665005 3.28752056132564396407 -0.03230978438649618339 -0.03230978438649618339 -1.69222495724256605243 1.62760538846957403258 -1.69222495724256605243 3.28752056132564396407 1.62760538846957403258 -0.03230978438649618339 -0.03230978438649618339 -3.35214013009863665005 -1.69222495724256605243 -0.03230978438649618339 3.28752056132564396407 4.94743573418171411760 1.62760538846957403258 1.62760538846957403258 1.62760538846957403258 -5.01205530295470680358 -0.03230978438649618339 -0.03230978438649618339 3.28752056132564396407 4.94743573418171411760 -0.03230978438649618339 3.28752056132564396407 -0.03230978438649618339 1.62760538846957403258 4.94743573418171411760 3.28752056132564396407 4.94743573418171411760 4.94743573418171411760 3.28752056132564396407 1.62760538846957403258 6.60735090703778382704 9.92718125274992502227 4.94743573418171411760 4.94743573418171411760 6.60735090703778382704 4.94743573418171411760 3.28752056132564396407 1.62760538846957403258 1.62760538846957403258 4.94743573418171411760 8.26726607989385442465 6.60735090703778382704 4.94743573418171411760 4.94743573418171411760 6.60735090703778382704 8.26726607989385442465 3.28752056132564396407 4.94743573418171411760 4.94743573418171411760 -0.03230978438649618339 3.28752056132564396407 6.60735090703778382704 8.26726607989385442465 4.94743573418171411760 6.60735090703778382704 4.94743573418171411760 4.94743573418171411760 6.60735090703778382704 4.94743573418171411760 6.60735090703778382704 6.60735090703778382704 3.28752056132564396407 3.28752056132564396407 6.60735090703778382704 1.62760538846957403258 1.62760538846957403258 4.94743573418171411760 3.28752056132564396407 4.94743573418171411760 1.62760538846957403258 1.62760538846957403258 1.62760538846957403258 -3.35214013009863665005 3.28752056132564396407 4.94743573418171411760 3.28752056132564396407 4.94743573418171411760 1.62760538846957403258 3.28752056132564396407 1.62760538846957403258 3.28752056132564396407 6.60735090703778382704 3.28752056132564396407 -1.69222495724256605243 3.28752056132564396407 1.62760538846957403258 1.62760538846957403258 -0.03230978438649618339 -1.69222495724256605243 1.62760538846957403258 -0.03230978438649618339 8.26726607989385442465 1.62760538846957403258 1.62760538846957403258 -1.69222495724256605243 -3.35214013009863665005 -0.03230978438649618339 -0.03230978438649618339 -0.03230978438649618339 -0.03230978438649618339 -0.03230978438649618339 -0.03230978438649618339 -0.03230978438649618339 -3.35214013009863665005 -1.69222495724256605243 -0.03230978438649618339 -0.03230978438649618339 -0.03230978438649618339 1.62760538846957403258 -1.69222495724256605243 -5.01205530295470680358 -0.03230978438649618339 -1.69222495724256605243 -1.69222495724256605243 1.62760538846957403258 3.28752056132564396407 -0.03230978438649618339 -0.03230978438649618339 -3.35214013009863665005 -3.35214013009863665005 -1.69222495724256605243 -1.69222495724256605243 -1.69222495724256605243 -1.69222495724256605243 -1.69222495724256605243 -0.03230978438649618339 -1.69222495724256605243 -3.35214013009863665005 -1.69222495724256605243 -1.69222495724256605243 1.62760538846957403258 1.62760538846957403258 -0.03230978438649618339 -1.69222495724256605243 1.62760538846957403258 -0.03230978438649618339 -1.69222495724256605243 1.62760538846957403258 -1.69222495724256605243 -0.03230978438649618339 -0.03230978438649618339 -0.03230978438649618339 -3.35214013009863665005 -3.35214013009863665005 -0.03230978438649618339 -0.03230978438649618339 1.62760538846957403258 1.62760538846957403258 -3.35214013009863665005 -3.35214013009863665005 -0.03230978438649618339 -5.01205530295470680358 1.62760538846957403258 4.94743573418171411760 1.62760538846957403258 1.62760538846957403258 -3.35214013009863665005 -0.03230978438649618339 -5.01205530295470680358 -1.69222495724256605243 -0.03230978438649618339 -1.69222495724256605243 -1.69222495724256605243 -1.69222495724256605243 -3.35214013009863665005 -3.35214013009863665005 -6.67197047581077651301 -1.69222495724256605243 1.62760538846957403258 3.28752056132564396407 -5.01205530295470680358 -3.35214013009863665005 -5.01205530295470680358 -1.69222495724256605243 -6.67197047581077651301 -3.35214013009863665005 -1.69222495724256605243 -3.35214013009863665005 1.62760538846957403258 -0.03230978438649618339 -0.03230978438649618339 -1.69222495724256605243 -1.69222495724256605243 -0.03230978438649618339 -0.03230978438649618339 1.62760538846957403258 -0.03230978438649618339 -3.35214013009863665005 4.94743573418171411760 -1.69222495724256605243 -3.35214013009863665005 -3.35214013009863665005 -0.03230978438649618339 -0.03230978438649618339 4.94743573418171411760 -0.03230978438649618339 -0.03230978438649618339 -0.03230978438649618339 -3.35214013009863665005 -1.69222495724256605243 -0.03230978438649618339 3.28752056132564396407 -0.03230978438649618339 -0.03230978438649618339 1.62760538846957403258 -1.69222495724256605243 -5.01205530295470680358 1.62760538846957403258 -0.03230978438649618339 4.94743573418171411760 -0.03230978438649618339 3.28752056132564396407 -1.69222495724256605243 -0.03230978438649618339 1.62760538846957403258 4.94743573418171411760 -0.03230978438649618339 6.60735090703778382704 3.28752056132564396407 3.28752056132564396407 3.28752056132564396407 1.62760538846957403258 3.28752056132564396407 1.62760538846957403258 1.62760538846957403258 6.60735090703778382704 3.28752056132564396407 -0.03230978438649618339 3.28752056132564396407 4.94743573418171411760 4.94743573418171411760 4.94743573418171411760 1.62760538846957403258 -0.03230978438649618339 1.62760538846957403258 6.60735090703778382704 4.94743573418171411760 1.62760538846957403258 1.62760538846957403258 6.60735090703778382704 3.28752056132564396407 3.28752056132564396407 3.28752056132564396407 3.28752056132564396407 3.28752056132564396407 -1.69222495724256605243 3.28752056132564396407 1.62760538846957403258 4.94743573418171411760 -1.69222495724256605243 4.94743573418171411760 3.28752056132564396407 -3.35214013009863665005 -0.03230978438649618339 -0.03230978438649618339 4.94743573418171411760 1.62760538846957403258 1.62760538846957403258 1.62760538846957403258 1.62760538846957403258 -0.03230978438649618339 -1.69222495724256605243 -0.03230978438649618339 3.28752056132564396407 3.28752056132564396407 -0.03230978438649618339 -1.69222495724256605243 -0.03230978438649618339 -1.69222495724256605243 -0.03230978438649618339 -0.03230978438649618339 3.28752056132564396407 -0.03230978438649618339 -1.69222495724256605243 -0.03230978438649618339 -0.03230978438649618339 1.62760538846957403258 1.62760538846957403258 3.28752056132564396407 1.62760538846957403258 1.62760538846957403258 1.62760538846957403258 -0.03230978438649618339 1.62760538846957403258 -0.03230978438649618339 6.60735090703778382704 3.28752056132564396407 4.94743573418171411760 1.62760538846957403258 -0.03230978438649618339 1.62760538846957403258 4.94743573418171411760 6.60735090703778382704 3.28752056132564396407 1.62760538846957403258 -1.69222495724256605243 1.62760538846957403258 -0.03230978438649618339 1.62760538846957403258 -0.03230978438649618339 -0.03230978438649618339 -0.03230978438649618339 -0.03230978438649618339 -3.35214013009863665005 -1.69222495724256605243 -1.69222495724256605243 1.62760538846957403258 -0.03230978438649618339 3.28752056132564396407 -1.69222495724256605243 -0.03230978438649618339 1.62760538846957403258 -1.69222495724256605243 -5.01205530295470680358 -1.69222495724256605243 1.62760538846957403258 -0.03230978438649618339 1.62760538846957403258 -1.69222495724256605243 -5.01205530295470680358 -0.03230978438649618339 -0.03230978438649618339 -0.03230978438649618339 -0.03230978438649618339 -0.03230978438649618339 -5.01205530295470680358 -3.35214013009863665005 -3.35214013009863665005 3.28752056132564396407 -0.03230978438649618339 -1.69222495724256605243 1.62760538846957403258 -1.69222495724256605243 -0.03230978438649618339 -0.03230978438649618339 -0.03230978438649618339 -3.35214013009863665005 1.62760538846957403258 -3.35214013009863665005 -5.01205530295470680358 1.62760538846957403258 -0.03230978438649618339 -0.03230978438649618339 1.62760538846957403258 1.62760538846957403258 -0.03230978438649618339 -0.03230978438649618339 1.62760538846957403258 -0.03230978438649618339 3.28752056132564396407 1.62760538846957403258 -0.03230978438649618339 -0.03230978438649618339 4.94743573418171411760 -5.01205530295470680358 -0.03230978438649618339 4.94743573418171411760 3.28752056132564396407 -0.03230978438649618339 -0.03230978438649618339 -0.03230978438649618339 -1.69222495724256605243 -0.03230978438649618339 -3.35214013009863665005 -1.69222495724256605243 -1.69222495724256605243 -1.69222495724256605243 -1.69222495724256605243 -0.03230978438649618339 -0.03230978438649618339 -1.69222495724256605243 -0.03230978438649618339 -0.03230978438649618339 1.62760538846957403258 -3.35214013009863665005 1.62760538846957403258 -1.69222495724256605243 -0.03230978438649618339 -1.69222495724256605243 1.62760538846957403258 -3.35214013009863665005 1.62760538846957403258 -1.69222495724256605243 1.62760538846957403258 -0.03230978438649618339 1.62760538846957403258 -3.35214013009863665005 -0.03230978438649618339 -1.69222495724256605243 3.28752056132564396407 1.62760538846957403258 -1.69222495724256605243 -1.69222495724256605243 -3.35214013009863665005 -0.03230978438649618339 1.62760538846957403258 -1.69222495724256605243 1.62760538846957403258 -3.35214013009863665005 3.28752056132564396407 -1.69222495724256605243 -0.03230978438649618339 -0.03230978438649618339 -3.35214013009863665005 1.62760538846957403258 -0.03230978438649618339 1.62760538846957403258 1.62760538846957403258 -0.03230978438649618339 -1.69222495724256605243 -0.03230978438649618339 -0.03230978438649618339 1.62760538846957403258 -0.03230978438649618339 1.62760538846957403258 3.28752056132564396407 -3.35214013009863665005 1.62760538846957403258 1.62760538846957403258 3.28752056132564396407 3.28752056132564396407 3.28752056132564396407 1.62760538846957403258 3.28752056132564396407 1.62760538846957403258 1.62760538846957403258 6.60735090703778382704 3.28752056132564396407 1.62760538846957403258 3.28752056132564396407 3.28752056132564396407 4.94743573418171411760 1.62760538846957403258 -1.69222495724256605243 6.60735090703778382704 4.94743573418171411760 4.94743573418171411760 3.28752056132564396407 3.28752056132564396407 3.28752056132564396407 4.94743573418171411760 4.94743573418171411760 3.28752056132564396407 6.60735090703778382704 4.94743573418171411760 3.28752056132564396407 1.62760538846957403258 6.60735090703778382704 6.60735090703778382704 4.94743573418171411760 8.26726607989385442465 4.94743573418171411760 4.94743573418171411760 4.94743573418171411760 6.60735090703778382704 6.60735090703778382704 4.94743573418171411760 8.26726607989385442465 4.94743573418171411760 4.94743573418171411760 3.28752056132564396407 8.26726607989385442465 -0.03230978438649618339 4.94743573418171411760 3.28752056132564396407 6.60735090703778382704 4.94743573418171411760 3.28752056132564396407 1.62760538846957403258 6.60735090703778382704 6.60735090703778382704 4.94743573418171411760 1.62760538846957403258 6.60735090703778382704 4.94743573418171411760 1.62760538846957403258 3.28752056132564396407 1.62760538846957403258 3.28752056132564396407 1.62760538846957403258 3.28752056132564396407 1.62760538846957403258 4.94743573418171411760 -0.03230978438649618339 3.28752056132564396407 3.28752056132564396407 4.94743573418171411760 3.28752056132564396407 6.60735090703778382704 6.60735090703778382704 6.60735090703778382704 -0.03230978438649618339 -0.03230978438649618339 1.62760538846957403258 1.62760538846957403258 3.28752056132564396407 3.28752056132564396407 4.94743573418171411760 4.94743573418171411760 4.94743573418171411760 4.94743573418171411760 -0.03230978438649618339 3.28752056132564396407 8.26726607989385442465 4.94743573418171411760 9.92718125274992502227 4.94743573418171411760 3.28752056132564396407 3.28752056132564396407 4.94743573418171411760 4.94743573418171411760 1.62760538846957403258 1.62760538846957403258 4.94743573418171411760 1.62760538846957403258 1.62760538846957403258 3.28752056132564396407 -1.69222495724256605243 1.62760538846957403258 6.60735090703778382704 4.94743573418171411760 4.94743573418171411760 4.94743573418171411760 3.28752056132564396407 1.62760538846957403258 1.62760538846957403258 3.28752056132564396407 -1.69222495724256605243 3.28752056132564396407 -0.03230978438649618339 3.28752056132564396407 -0.03230978438649618339 1.62760538846957403258 1.62760538846957403258 4.94743573418171411760 3.28752056132564396407 6.60735090703778382704 3.28752056132564396407 -0.03230978438649618339 -0.03230978438649618339 -0.03230978438649618339 4.94743573418171411760 3.28752056132564396407 4.94743573418171411760 3.28752056132564396407 -0.03230978438649618339 1.62760538846957403258 -0.03230978438649618339 3.28752056132564396407 1.62760538846957403258 1.62760538846957403258 3.28752056132564396407 3.28752056132564396407 4.94743573418171411760 -0.03230978438649618339 -0.03230978438649618339 1.62760538846957403258 -0.03230978438649618339 3.28752056132564396407 3.28752056132564396407 1.62760538846957403258 3.28752056132564396407 -0.03230978438649618339 -1.69222495724256605243 -0.03230978438649618339 -1.69222495724256605243 1.62760538846957403258 3.28752056132564396407 -0.03230978438649618339 3.28752056132564396407 3.28752056132564396407 3.28752056132564396407 -1.69222495724256605243 1.62760538846957403258 3.28752056132564396407 3.28752056132564396407 -0.03230978438649618339 1.62760538846957403258 -1.69222495724256605243 1.62760538846957403258 3.28752056132564396407 4.94743573418171411760 6.60735090703778382704 3.28752056132564396407 1.62760538846957403258 1.62760538846957403258 3.28752056132564396407 1.62760538846957403258 -0.03230978438649618339 3.28752056132564396407 6.60735090703778382704 4.94743573418171411760 1.62760538846957403258 1.62760538846957403258 1.62760538846957403258 -0.03230978438649618339 3.28752056132564396407 6.60735090703778382704 6.60735090703778382704 6.60735090703778382704 4.94743573418171411760 3.28752056132564396407 1.62760538846957403258 -0.03230978438649618339 3.28752056132564396407 4.94743573418171411760 6.60735090703778382704 6.60735090703778382704 3.28752056132564396407 6.60735090703778382704 3.28752056132564396407 4.94743573418171411760 3.28752056132564396407 4.94743573418171411760 1.62760538846957403258 4.94743573418171411760 6.60735090703778382704 4.94743573418171411760 4.94743573418171411760 3.28752056132564396407 1.62760538846957403258 4.94743573418171411760 4.94743573418171411760 4.94743573418171411760 6.60735090703778382704 6.60735090703778382704 3.28752056132564396407 1.62760538846957403258 1.62760538846957403258 3.28752056132564396407 8.26726607989385442465 4.94743573418171411760 6.60735090703778382704 4.94743573418171411760 4.94743573418171411760 -0.03230978438649618339 1.62760538846957403258 3.28752056132564396407 -0.03230978438649618339 3.28752056132564396407 4.94743573418171411760 4.94743573418171411760 4.94743573418171411760 -1.69222495724256605243 -0.03230978438649618339 -0.03230978438649618339 1.62760538846957403258 3.28752056132564396407 4.94743573418171411760 -0.03230978438649618339 3.28752056132564396407 3.28752056132564396407 3.28752056132564396407 -0.03230978438649618339 -1.69222495724256605243 -0.03230978438649618339 3.28752056132564396407 4.94743573418171411760 -0.03230978438649618339 -0.03230978438649618339 3.28752056132564396407 1.62760538846957403258 3.28752056132564396407 1.62760538846957403258 1.62760538846957403258 -0.03230978438649618339 -0.03230978438649618339 1.62760538846957403258 3.28752056132564396407 3.28752056132564396407 6.60735090703778382704 3.28752056132564396407 3.28752056132564396407 1.62760538846957403258 4.94743573418171411760 -0.03230978438649618339 1.62760538846957403258 4.94743573418171411760 1.62760538846957403258 3.28752056132564396407 4.94743573418171411760 -0.03230978438649618339 -0.03230978438649618339 3.28752056132564396407 1.62760538846957403258 -0.03230978438649618339 1.62760538846957403258 3.28752056132564396407 4.94743573418171411760 1.62760538846957403258 1.62760538846957403258 1.62760538846957403258 -0.03230978438649618339 1.62760538846957403258 -1.69222495724256605243 1.62760538846957403258 1.62760538846957403258 -0.03230978438649618339 1.62760538846957403258 1.62760538846957403258 1.62760538846957403258 6.60735090703778382704 4.94743573418171411760 1.62760538846957403258 3.28752056132564396407 3.28752056132564396407 3.28752056132564396407 3.28752056132564396407 1.62760538846957403258 1.62760538846957403258 6.60735090703778382704 8.26726607989385442465 6.60735090703778382704 3.28752056132564396407 6.60735090703778382704 4.94743573418171411760 1.62760538846957403258 4.94743573418171411760 3.28752056132564396407 1.62760538846957403258 6.60735090703778382704 3.28752056132564396407 3.28752056132564396407 6.60735090703778382704 3.28752056132564396407 8.26726607989385442465 6.60735090703778382704 8.26726607989385442465 8.26726607989385442465 4.94743573418171411760 4.94743573418171411760 3.28752056132564396407 8.26726607989385442465 6.60735090703778382704 4.94743573418171411760 9.92718125274992502227 6.60735090703778382704 6.60735090703778382704 6.60735090703778382704 6.60735090703778382704 6.60735090703778382704 8.26726607989385442465 9.92718125274992502227 6.60735090703778382704 8.26726607989385442465 4.94743573418171411760 4.94743573418171411760 3.28752056132564396407 4.94743573418171411760 8.26726607989385442465 8.26726607989385442465 9.92718125274992502227 6.60735090703778382704 8.26726607989385442465 4.94743573418171411760 9.92718125274992502227 8.26726607989385442465 11.58709642560599384353 11.58709642560599384353 6.60735090703778382704 6.60735090703778382704 8.26726607989385442465 6.60735090703778382704 8.26726607989385442465 8.26726607989385442465 8.26726607989385442465 4.94743573418171411760 8.26726607989385442465 4.94743573418171411760 1.62760538846957403258 3.28752056132564396407 8.26726607989385442465 6.60735090703778382704 9.92718125274992502227 8.26726607989385442465 8.26726607989385442465 9.92718125274992502227 4.94743573418171411760 1.62760538846957403258 6.60735090703778382704 6.60735090703778382704 3.28752056132564396407 11.58709642560599384353 8.26726607989385442465 4.94743573418171411760 9.92718125274992502227 9.92718125274992502227 8.26726607989385442465 8.26726607989385442465 8.26726607989385442465 6.60735090703778382704 4.94743573418171411760 4.94743573418171411760 4.94743573418171411760 3.28752056132564396407 6.60735090703778382704 9.92718125274992502227 8.26726607989385442465 4.94743573418171411760 8.26726607989385442465 3.28752056132564396407 4.94743573418171411760 6.60735090703778382704 6.60735090703778382704 8.26726607989385442465 8.26726607989385442465 6.60735090703778382704 4.94743573418171411760 3.28752056132564396407 6.60735090703778382704 3.28752056132564396407 6.60735090703778382704 6.60735090703778382704 4.94743573418171411760 6.60735090703778382704 -0.03230978438649618339 3.28752056132564396407 6.60735090703778382704 6.60735090703778382704 4.94743573418171411760 3.28752056132564396407 6.60735090703778382704 6.60735090703778382704 1.62760538846957403258 4.94743573418171411760 3.28752056132564396407 8.26726607989385442465 6.60735090703778382704 4.94743573418171411760 3.28752056132564396407 6.60735090703778382704 1.62760538846957403258 6.60735090703778382704 6.60735090703778382704 6.60735090703778382704 4.94743573418171411760 6.60735090703778382704 6.60735090703778382704 6.60735090703778382704 1.62760538846957403258 4.94743573418171411760 6.60735090703778382704 3.28752056132564396407 1.62760538846957403258 3.28752056132564396407 3.28752056132564396407 4.94743573418171411760 8.26726607989385442465 4.94743573418171411760 8.26726607989385442465 8.26726607989385442465 8.26726607989385442465 3.28752056132564396407 3.28752056132564396407 4.94743573418171411760 3.28752056132564396407 6.60735090703778382704 6.60735090703778382704 6.60735090703778382704 6.60735090703778382704 8.26726607989385442465 1.62760538846957403258 6.60735090703778382704 3.28752056132564396407 6.60735090703778382704 4.94743573418171411760 3.28752056132564396407 6.60735090703778382704 6.60735090703778382704 1.62760538846957403258 1.62760538846957403258 -0.03230978438649618339 4.94743573418171411760 6.60735090703778382704 3.28752056132564396407 4.94743573418171411760 1.62760538846957403258 3.28752056132564396407 3.28752056132564396407 3.28752056132564396407 4.94743573418171411760 1.62760538846957403258 6.60735090703778382704 3.28752056132564396407 4.94743573418171411760 1.62760538846957403258 8.26726607989385442465 3.28752056132564396407 4.94743573418171411760 1.62760538846957403258 3.28752056132564396407 3.28752056132564396407 1.62760538846957403258 -0.03230978438649618339 3.28752056132564396407 3.28752056132564396407 4.94743573418171411760 3.28752056132564396407 3.28752056132564396407 3.28752056132564396407 3.28752056132564396407 1.62760538846957403258 1.62760538846957403258 1.62760538846957403258 3.28752056132564396407 6.60735090703778382704 1.62760538846957403258 6.60735090703778382704 -1.69222495724256605243 -0.03230978438649618339 3.28752056132564396407 3.28752056132564396407 8.26726607989385442465 3.28752056132564396407 1.62760538846957403258 1.62760538846957403258 4.94743573418171411760 3.28752056132564396407 1.62760538846957403258 6.60735090703778382704 3.28752056132564396407 4.94743573418171411760 6.60735090703778382704 1.62760538846957403258 1.62760538846957403258 3.28752056132564396407 6.60735090703778382704 3.28752056132564396407 3.28752056132564396407 4.94743573418171411760 1.62760538846957403258 6.60735090703778382704 3.28752056132564396407 3.28752056132564396407 3.28752056132564396407 1.62760538846957403258 3.28752056132564396407 4.94743573418171411760 1.62760538846957403258 3.28752056132564396407 -0.03230978438649618339 4.94743573418171411760 6.60735090703778382704 3.28752056132564396407 1.62760538846957403258 3.28752056132564396407 1.62760538846957403258 -1.69222495724256605243 -0.03230978438649618339 4.94743573418171411760 4.94743573418171411760 1.62760538846957403258 4.94743573418171411760 8.26726607989385442465 -0.03230978438649618339 -1.69222495724256605243 1.62760538846957403258 4.94743573418171411760 1.62760538846957403258 3.28752056132564396407 4.94743573418171411760 4.94743573418171411760 3.28752056132564396407 1.62760538846957403258 3.28752056132564396407 -1.69222495724256605243 1.62760538846957403258 1.62760538846957403258 -0.03230978438649618339 1.62760538846957403258 4.94743573418171411760 -0.03230978438649618339 -0.03230978438649618339 1.62760538846957403258 3.28752056132564396407 1.62760538846957403258 -0.03230978438649618339 3.28752056132564396407 3.28752056132564396407 3.28752056132564396407 1.62760538846957403258 1.62760538846957403258 4.94743573418171411760 4.94743573418171411760 3.28752056132564396407 6.60735090703778382704 3.28752056132564396407 4.94743573418171411760 -1.69222495724256605243 3.28752056132564396407 4.94743573418171411760 4.94743573418171411760 3.28752056132564396407 4.94743573418171411760 3.28752056132564396407 1.62760538846957403258 1.62760538846957403258 1.62760538846957403258 3.28752056132564396407 6.60735090703778382704 1.62760538846957403258 1.62760538846957403258 1.62760538846957403258 3.28752056132564396407 6.60735090703778382704 4.94743573418171411760 6.60735090703778382704 4.94743573418171411760 6.60735090703778382704 6.60735090703778382704 8.26726607989385442465 3.28752056132564396407 4.94743573418171411760 1.62760538846957403258 6.60735090703778382704 8.26726607989385442465 6.60735090703778382704 6.60735090703778382704 3.28752056132564396407 6.60735090703778382704 4.94743573418171411760 6.60735090703778382704 4.94743573418171411760 4.94743573418171411760 11.58709642560599384353 4.94743573418171411760 6.60735090703778382704 6.60735090703778382704 6.60735090703778382704 4.94743573418171411760 3.28752056132564396407 4.94743573418171411760 1.62760538846957403258 6.60735090703778382704 4.94743573418171411760 8.26726607989385442465 6.60735090703778382704 3.28752056132564396407 1.62760538846957403258 8.26726607989385442465 9.92718125274992502227 9.92718125274992502227 11.58709642560599384353 8.26726607989385442465 4.94743573418171411760 3.28752056132564396407 6.60735090703778382704 9.92718125274992502227 8.26726607989385442465 6.60735090703778382704 8.26726607989385442465 1.62760538846957403258 3.28752056132564396407 4.94743573418171411760 6.60735090703778382704 9.92718125274992502227 4.94743573418171411760 9.92718125274992502227 6.60735090703778382704 6.60735090703778382704 8.26726607989385442465 6.60735090703778382704 8.26726607989385442465 8.26726607989385442465 8.26726607989385442465 9.92718125274992502227 3.28752056132564396407 9.92718125274992502227 9.92718125274992502227 11.58709642560599384353 11.58709642560599384353 8.26726607989385442465 4.94743573418171411760 6.60735090703778382704 6.60735090703778382704 6.60735090703778382704 9.92718125274992502227 9.92718125274992502227 3.28752056132564396407 6.60735090703778382704 6.60735090703778382704 6.60735090703778382704 4.94743573418171411760 4.94743573418171411760 3.28752056132564396407 6.60735090703778382704 9.92718125274992502227 3.28752056132564396407 3.28752056132564396407 3.28752056132564396407 4.94743573418171411760 4.94743573418171411760 4.94743573418171411760 6.60735090703778382704 4.94743573418171411760 1.62760538846957403258 3.28752056132564396407 3.28752056132564396407 6.60735090703778382704 4.94743573418171411760 1.62760538846957403258 3.28752056132564396407 1.62760538846957403258 -3.35214013009863665005 1.62760538846957403258 -0.03230978438649618339 1.62760538846957403258 1.62760538846957403258 3.28752056132564396407 3.28752056132564396407 -1.69222495724256605243 -1.69222495724256605243 -0.03230978438649618339 3.28752056132564396407 3.28752056132564396407 -0.03230978438649618339 -0.03230978438649618339 -5.01205530295470680358 -0.03230978438649618339 -6.67197047581077651301 -1.69222495724256605243 -0.03230978438649618339 1.62760538846957403258 -3.35214013009863665005 -0.03230978438649618339 -0.03230978438649618339 -5.01205530295470680358 -6.67197047581077651301 -5.01205530295470680358 -1.69222495724256605243 -5.01205530295470680358 -3.35214013009863665005 -5.01205530295470680358 -5.01205530295470680358 -6.67197047581077651301 -8.33188564866684799881 -8.33188564866684799881 -6.67197047581077651301 -6.67197047581077651301 -3.35214013009863665005 -8.33188564866684799881 -1.69222495724256605243 -6.67197047581077651301 -8.33188564866684799881 -8.33188564866684799881 -9.99180082152291682007 -8.33188564866684799881 -5.01205530295470680358 -11.65171599437898741769 -6.67197047581077651301 -9.99180082152291682007 -11.65171599437898741769 -13.31163116723505801531 -9.99180082152291682007 -8.33188564866684799881 -9.99180082152291682007 -9.99180082152291682007 -11.65171599437898741769 -8.33188564866684799881 -11.65171599437898741769 -11.65171599437898741769 -14.97154634009112861293 -8.33188564866684799881 -9.99180082152291682007 -13.31163116723505801531 -9.99180082152291682007 -13.31163116723505801531 -13.31163116723505801531 -11.65171599437898741769 -11.65171599437898741769 -9.99180082152291682007 -9.99180082152291682007 -6.67197047581077651301 -8.33188564866684799881 -8.33188564866684799881 -11.65171599437898741769 -8.33188564866684799881 -14.97154634009112861293 -5.01205530295470680358 -6.67197047581077651301 -8.33188564866684799881 -8.33188564866684799881 -9.99180082152291682007 -6.67197047581077651301 -9.99180082152291682007 -9.99180082152291682007 -9.99180082152291682007 -9.99180082152291682007 -6.67197047581077651301 -3.35214013009863665005 -3.35214013009863665005 -8.33188564866684799881 -9.99180082152291682007 -11.65171599437898741769 -9.99180082152291682007 -3.35214013009863665005 -6.67197047581077651301 -9.99180082152291682007 -5.01205530295470680358 -5.01205530295470680358 -6.67197047581077651301 -6.67197047581077651301 -6.67197047581077651301 -6.67197047581077651301 -3.35214013009863665005 -5.01205530295470680358 -3.35214013009863665005 -3.35214013009863665005 -5.01205530295470680358 -3.35214013009863665005 -5.01205530295470680358 -1.69222495724256605243 -1.69222495724256605243 -5.01205530295470680358 -3.35214013009863665005 -0.03230978438649618339 -1.69222495724256605243 -1.69222495724256605243 -3.35214013009863665005 1.62760538846957403258 1.62760538846957403258 -1.69222495724256605243 1.62760538846957403258 1.62760538846957403258 1.62760538846957403258 1.62760538846957403258 -1.69222495724256605243 1.62760538846957403258 3.28752056132564396407 3.28752056132564396407 -1.69222495724256605243 4.94743573418171411760 -1.69222495724256605243 1.62760538846957403258 -0.03230978438649618339 1.62760538846957403258 1.62760538846957403258 3.28752056132564396407 1.62760538846957403258 3.28752056132564396407 1.62760538846957403258 3.28752056132564396407 3.28752056132564396407 6.60735090703778382704 4.94743573418171411760 6.60735090703778382704 6.60735090703778382704 -0.03230978438649618339 6.60735090703778382704 4.94743573418171411760 3.28752056132564396407 4.94743573418171411760 6.60735090703778382704 6.60735090703778382704 6.60735090703778382704 4.94743573418171411760 6.60735090703778382704 3.28752056132564396407 -0.03230978438649618339 6.60735090703778382704 9.92718125274992502227 4.94743573418171411760 6.60735090703778382704 6.60735090703778382704 4.94743573418171411760 4.94743573418171411760 4.94743573418171411760 9.92718125274992502227 11.58709642560599384353 9.92718125274992502227 8.26726607989385442465 6.60735090703778382704 8.26726607989385442465 8.26726607989385442465 8.26726607989385442465 9.92718125274992502227 11.58709642560599384353 11.58709642560599384353 3.28752056132564396407 8.26726607989385442465 6.60735090703778382704 9.92718125274992502227 8.26726607989385442465 13.24701159846206444115 8.26726607989385442465 8.26726607989385442465 8.26726607989385442465 8.26726607989385442465 9.92718125274992502227 8.26726607989385442465 6.60735090703778382704 9.92718125274992502227 8.26726607989385442465 4.94743573418171411760 8.26726607989385442465 3.28752056132564396407 4.94743573418171411760 9.92718125274992502227 6.60735090703778382704 9.92718125274992502227 6.60735090703778382704 8.26726607989385442465 4.94743573418171411760 3.28752056132564396407 9.92718125274992502227 9.92718125274992502227 9.92718125274992502227 6.60735090703778382704 8.26726607989385442465 4.94743573418171411760 1.62760538846957403258 9.92718125274992502227 8.26726607989385442465 9.92718125274992502227 6.60735090703778382704 4.94743573418171411760 4.94743573418171411760 4.94743573418171411760 8.26726607989385442465 4.94743573418171411760 6.60735090703778382704 6.60735090703778382704 4.94743573418171411760 6.60735090703778382704 4.94743573418171411760 -1.69222495724256605243 6.60735090703778382704 6.60735090703778382704 4.94743573418171411760 3.28752056132564396407 4.94743573418171411760 8.26726607989385442465 4.94743573418171411760 6.60735090703778382704 3.28752056132564396407 4.94743573418171411760 1.62760538846957403258 1.62760538846957403258 4.94743573418171411760 4.94743573418171411760 3.28752056132564396407 4.94743573418171411760 3.28752056132564396407 1.62760538846957403258 3.28752056132564396407 4.94743573418171411760 3.28752056132564396407 3.28752056132564396407 4.94743573418171411760 4.94743573418171411760 -0.03230978438649618339 1.62760538846957403258 4.94743573418171411760 4.94743573418171411760 4.94743573418171411760 4.94743573418171411760 1.62760538846957403258 1.62760538846957403258 3.28752056132564396407 3.28752056132564396407 1.62760538846957403258 -1.69222495724256605243 -0.03230978438649618339 6.60735090703778382704 3.28752056132564396407 4.94743573418171411760 3.28752056132564396407 -0.03230978438649618339 -0.03230978438649618339 1.62760538846957403258 8.26726607989385442465 3.28752056132564396407 3.28752056132564396407 1.62760538846957403258 3.28752056132564396407 1.62760538846957403258 1.62760538846957403258 -0.03230978438649618339 6.60735090703778382704 4.94743573418171411760 4.94743573418171411760 4.94743573418171411760 4.94743573418171411760 3.28752056132564396407 6.60735090703778382704 1.62760538846957403258 3.28752056132564396407 6.60735090703778382704 3.28752056132564396407 3.28752056132564396407 3.28752056132564396407 1.62760538846957403258 -0.03230978438649618339 -0.03230978438649618339 3.28752056132564396407 1.62760538846957403258 3.28752056132564396407 -1.69222495724256605243 1.62760538846957403258 -1.69222495724256605243 3.28752056132564396407 3.28752056132564396407 3.28752056132564396407 3.28752056132564396407 1.62760538846957403258 1.62760538846957403258 -1.69222495724256605243 1.62760538846957403258 4.94743573418171411760 1.62760538846957403258 -0.03230978438649618339 1.62760538846957403258 -3.35214013009863665005 -1.69222495724256605243 -0.03230978438649618339 3.28752056132564396407 1.62760538846957403258 1.62760538846957403258 1.62760538846957403258 3.28752056132564396407 -0.03230978438649618339 4.94743573418171411760 -0.03230978438649618339 4.94743573418171411760 1.62760538846957403258 3.28752056132564396407 1.62760538846957403258 1.62760538846957403258 1.62760538846957403258 3.28752056132564396407 3.28752056132564396407 1.62760538846957403258 4.94743573418171411760 1.62760538846957403258 1.62760538846957403258 3.28752056132564396407 3.28752056132564396407 -0.03230978438649618339 6.60735090703778382704 -1.69222495724256605243 1.62760538846957403258 -0.03230978438649618339 1.62760538846957403258 4.94743573418171411760 6.60735090703778382704 3.28752056132564396407 4.94743573418171411760 -0.03230978438649618339 6.60735090703778382704 6.60735090703778382704 3.28752056132564396407 3.28752056132564396407 3.28752056132564396407 3.28752056132564396407 -0.03230978438649618339 3.28752056132564396407 -0.03230978438649618339 3.28752056132564396407 -1.69222495724256605243 -0.03230978438649618339 -0.03230978438649618339 -0.03230978438649618339 1.62760538846957403258 -0.03230978438649618339 -0.03230978438649618339 1.62760538846957403258 3.28752056132564396407 3.28752056132564396407 -0.03230978438649618339 -0.03230978438649618339 1.62760538846957403258 1.62760538846957403258 -1.69222495724256605243 1.62760538846957403258 3.28752056132564396407 3.28752056132564396407 4.94743573418171411760 1.62760538846957403258 3.28752056132564396407 -1.69222495724256605243 4.94743573418171411760 4.94743573418171411760 6.60735090703778382704 1.62760538846957403258 -1.69222495724256605243 1.62760538846957403258 1.62760538846957403258 -1.69222495724256605243 -1.69222495724256605243 -0.03230978438649618339 -1.69222495724256605243 3.28752056132564396407 1.62760538846957403258 1.62760538846957403258 -1.69222495724256605243 -3.35214013009863665005 -0.03230978438649618339 -1.69222495724256605243 -0.03230978438649618339 -1.69222495724256605243 -0.03230978438649618339 -0.03230978438649618339 -1.69222495724256605243 -3.35214013009863665005 3.28752056132564396407 -0.03230978438649618339 1.62760538846957403258 -1.69222495724256605243 -0.03230978438649618339 -1.69222495724256605243 -3.35214013009863665005 -1.69222495724256605243 4.94743573418171411760 -0.03230978438649618339 3.28752056132564396407 -0.03230978438649618339 -1.69222495724256605243 -0.03230978438649618339 -0.03230978438649618339 -3.35214013009863665005 3.28752056132564396407 -0.03230978438649618339 -0.03230978438649618339 -3.35214013009863665005 -1.69222495724256605243 -3.35214013009863665005 -5.01205530295470680358 -0.03230978438649618339 3.28752056132564396407 -1.69222495724256605243 1.62760538846957403258 -3.35214013009863665005 -0.03230978438649618339 1.62760538846957403258 -3.35214013009863665005 -0.03230978438649618339 -0.03230978438649618339 1.62760538846957403258 -1.69222495724256605243 -0.03230978438649618339 -1.69222495724256605243 -5.01205530295470680358 -3.35214013009863665005 -0.03230978438649618339 1.62760538846957403258 1.62760538846957403258 -3.35214013009863665005 -0.03230978438649618339 -0.03230978438649618339 3.28752056132564396407 -3.35214013009863665005 -5.01205530295470680358 1.62760538846957403258 -1.69222495724256605243 3.28752056132564396407 1.62760538846957403258 3.28752056132564396407 -0.03230978438649618339 -5.01205530295470680358 -0.03230978438649618339 -1.69222495724256605243 1.62760538846957403258 -1.69222495724256605243 -0.03230978438649618339 -1.69222495724256605243 -1.69222495724256605243 -3.35214013009863665005 -1.69222495724256605243 1.62760538846957403258 4.94743573418171411760 -3.35214013009863665005 -0.03230978438649618339 -1.69222495724256605243 -0.03230978438649618339 -3.35214013009863665005 -3.35214013009863665005 1.62760538846957403258 1.62760538846957403258 -0.03230978438649618339 -0.03230978438649618339 -0.03230978438649618339 1.62760538846957403258 -3.35214013009863665005 -0.03230978438649618339 1.62760538846957403258 4.94743573418171411760 -0.03230978438649618339 -0.03230978438649618339 -0.03230978438649618339 -1.69222495724256605243 1.62760538846957403258 3.28752056132564396407 4.94743573418171411760 1.62760538846957403258 1.62760538846957403258 -0.03230978438649618339 1.62760538846957403258 1.62760538846957403258 3.28752056132564396407 8.26726607989385442465 3.28752056132564396407 1.62760538846957403258 3.28752056132564396407 3.28752056132564396407 -0.03230978438649618339 1.62760538846957403258 3.28752056132564396407 1.62760538846957403258 3.28752056132564396407 1.62760538846957403258 1.62760538846957403258 1.62760538846957403258 -0.03230978438649618339 -0.03230978438649618339 3.28752056132564396407 -1.69222495724256605243 3.28752056132564396407 1.62760538846957403258 1.62760538846957403258 -0.03230978438649618339 -1.69222495724256605243 -0.03230978438649618339 1.62760538846957403258 -1.69222495724256605243 -0.03230978438649618339 -0.03230978438649618339 3.28752056132564396407 -3.35214013009863665005 -3.35214013009863665005 -1.69222495724256605243 -0.03230978438649618339 1.62760538846957403258 3.28752056132564396407 -1.69222495724256605243 -0.03230978438649618339 -1.69222495724256605243 -0.03230978438649618339 -1.69222495724256605243 -0.03230978438649618339 -0.03230978438649618339 1.62760538846957403258 4.94743573418171411760 -1.69222495724256605243 -5.01205530295470680358 -0.03230978438649618339 -1.69222495724256605243 3.28752056132564396407 1.62760538846957403258 -0.03230978438649618339 1.62760538846957403258 -1.69222495724256605243 -1.69222495724256605243 -0.03230978438649618339 -0.03230978438649618339 3.28752056132564396407 -0.03230978438649618339 -0.03230978438649618339 -1.69222495724256605243 -0.03230978438649618339 1.62760538846957403258 1.62760538846957403258 1.62760538846957403258 1.62760538846957403258 -0.03230978438649618339 -3.35214013009863665005 -0.03230978438649618339 1.62760538846957403258 1.62760538846957403258 4.94743573418171411760 1.62760538846957403258 3.28752056132564396407 1.62760538846957403258 3.28752056132564396407 1.62760538846957403258 1.62760538846957403258 3.28752056132564396407 1.62760538846957403258 1.62760538846957403258 1.62760538846957403258 3.28752056132564396407 3.28752056132564396407 -0.03230978438649618339 -0.03230978438649618339 6.60735090703778382704 3.28752056132564396407 -0.03230978438649618339 3.28752056132564396407 -0.03230978438649618339 -0.03230978438649618339 -0.03230978438649618339 4.94743573418171411760 3.28752056132564396407 4.94743573418171411760 1.62760538846957403258 3.28752056132564396407 -0.03230978438649618339 -5.01205530295470680358 4.94743573418171411760 -3.35214013009863665005 3.28752056132564396407 -1.69222495724256605243 1.62760538846957403258 1.62760538846957403258 -0.03230978438649618339 -3.35214013009863665005 -3.35214013009863665005 -1.69222495724256605243 -0.03230978438649618339 -0.03230978438649618339 -0.03230978438649618339 -0.03230978438649618339 -3.35214013009863665005 -3.35214013009863665005 -1.69222495724256605243 -1.69222495724256605243 -1.69222495724256605243 -0.03230978438649618339 -1.69222495724256605243 -0.03230978438649618339 -5.01205530295470680358 -5.01205530295470680358 -1.69222495724256605243 4.94743573418171411760 -0.03230978438649618339 4.94743573418171411760 -0.03230978438649618339 -1.69222495724256605243 1.62760538846957403258 -5.01205530295470680358 -1.69222495724256605243 4.94743573418171411760 -1.69222495724256605243 -0.03230978438649618339 -0.03230978438649618339 -1.69222495724256605243 -5.01205530295470680358 -5.01205530295470680358 -3.35214013009863665005 -1.69222495724256605243 1.62760538846957403258 3.28752056132564396407 -0.03230978438649618339 1.62760538846957403258 -0.03230978438649618339 -1.69222495724256605243 -3.35214013009863665005 3.28752056132564396407 -0.03230978438649618339 -3.35214013009863665005 -0.03230978438649618339 -0.03230978438649618339 -1.69222495724256605243 1.62760538846957403258 3.28752056132564396407 4.94743573418171411760 1.62760538846957403258 -0.03230978438649618339 -0.03230978438649618339 -0.03230978438649618339 -1.69222495724256605243 -0.03230978438649618339 -0.03230978438649618339 3.28752056132564396407 4.94743573418171411760 3.28752056132564396407 1.62760538846957403258 -0.03230978438649618339 1.62760538846957403258 1.62760538846957403258 3.28752056132564396407 -0.03230978438649618339 4.94743573418171411760 3.28752056132564396407 4.94743573418171411760 4.94743573418171411760 -1.69222495724256605243 1.62760538846957403258 4.94743573418171411760 1.62760538846957403258 4.94743573418171411760 3.28752056132564396407 3.28752056132564396407 -0.03230978438649618339 4.94743573418171411760 3.28752056132564396407 1.62760538846957403258 8.26726607989385442465 1.62760538846957403258 4.94743573418171411760 3.28752056132564396407 3.28752056132564396407 4.94743573418171411760 8.26726607989385442465 4.94743573418171411760 8.26726607989385442465 3.28752056132564396407 4.94743573418171411760 4.94743573418171411760 1.62760538846957403258 6.60735090703778382704 8.26726607989385442465 6.60735090703778382704 4.94743573418171411760 4.94743573418171411760 9.92718125274992502227 8.26726607989385442465 6.60735090703778382704 4.94743573418171411760 4.94743573418171411760 9.92718125274992502227 6.60735090703778382704 1.62760538846957403258 4.94743573418171411760 6.60735090703778382704 6.60735090703778382704 6.60735090703778382704 9.92718125274992502227 6.60735090703778382704 4.94743573418171411760 6.60735090703778382704 6.60735090703778382704 3.28752056132564396407 6.60735090703778382704 8.26726607989385442465 3.28752056132564396407 4.94743573418171411760 6.60735090703778382704 4.94743573418171411760 1.62760538846957403258 6.60735090703778382704 8.26726607989385442465 4.94743573418171411760 3.28752056132564396407 4.94743573418171411760 4.94743573418171411760 3.28752056132564396407 1.62760538846957403258 4.94743573418171411760 9.92718125274992502227 3.28752056132564396407 4.94743573418171411760 6.60735090703778382704 3.28752056132564396407 3.28752056132564396407 4.94743573418171411760 4.94743573418171411760 4.94743573418171411760 6.60735090703778382704 4.94743573418171411760 4.94743573418171411760 1.62760538846957403258 -0.03230978438649618339 -1.69222495724256605243 4.94743573418171411760 1.62760538846957403258 6.60735090703778382704 1.62760538846957403258 8.26726607989385442465 -0.03230978438649618339 1.62760538846957403258 -1.69222495724256605243 4.94743573418171411760 1.62760538846957403258 3.28752056132564396407 4.94743573418171411760 4.94743573418171411760 3.28752056132564396407 -0.03230978438649618339 4.94743573418171411760 4.94743573418171411760 4.94743573418171411760 1.62760538846957403258 3.28752056132564396407 -0.03230978438649618339 -1.69222495724256605243 -0.03230978438649618339 3.28752056132564396407 1.62760538846957403258 4.94743573418171411760 4.94743573418171411760 3.28752056132564396407 3.28752056132564396407 -1.69222495724256605243 3.28752056132564396407 1.62760538846957403258 3.28752056132564396407 1.62760538846957403258 4.94743573418171411760 1.62760538846957403258 -0.03230978438649618339 1.62760538846957403258 -0.03230978438649618339 3.28752056132564396407 3.28752056132564396407 1.62760538846957403258 6.60735090703778382704 3.28752056132564396407 1.62760538846957403258 -1.69222495724256605243 -1.69222495724256605243 3.28752056132564396407 -0.03230978438649618339 -0.03230978438649618339 1.62760538846957403258 1.62760538846957403258 -0.03230978438649618339 1.62760538846957403258 -3.35214013009863665005 1.62760538846957403258 1.62760538846957403258 3.28752056132564396407 -0.03230978438649618339 1.62760538846957403258 1.62760538846957403258 -3.35214013009863665005 3.28752056132564396407 3.28752056132564396407 1.62760538846957403258 1.62760538846957403258 -0.03230978438649618339 -0.03230978438649618339 -0.03230978438649618339 -0.03230978438649618339 -1.69222495724256605243 1.62760538846957403258 1.62760538846957403258 3.28752056132564396407 1.62760538846957403258 1.62760538846957403258 -0.03230978438649618339 -1.69222495724256605243 1.62760538846957403258 1.62760538846957403258 4.94743573418171411760 3.28752056132564396407 3.28752056132564396407 -1.69222495724256605243 -0.03230978438649618339 -0.03230978438649618339 1.62760538846957403258 1.62760538846957403258 4.94743573418171411760 -0.03230978438649618339 3.28752056132564396407 3.28752056132564396407 -1.69222495724256605243 1.62760538846957403258 4.94743573418171411760 3.28752056132564396407 4.94743573418171411760 1.62760538846957403258 3.28752056132564396407 1.62760538846957403258 -0.03230978438649618339 1.62760538846957403258 3.28752056132564396407 3.28752056132564396407 4.94743573418171411760 4.94743573418171411760 6.60735090703778382704 3.28752056132564396407 1.62760538846957403258 1.62760538846957403258 1.62760538846957403258 4.94743573418171411760 3.28752056132564396407 4.94743573418171411760 -0.03230978438649618339 1.62760538846957403258 1.62760538846957403258 -0.03230978438649618339 3.28752056132564396407 -0.03230978438649618339 3.28752056132564396407 1.62760538846957403258 4.94743573418171411760 1.62760538846957403258 1.62760538846957403258 -1.69222495724256605243 3.28752056132564396407 4.94743573418171411760 3.28752056132564396407 1.62760538846957403258 3.28752056132564396407 1.62760538846957403258 1.62760538846957403258 4.94743573418171411760 6.60735090703778382704 4.94743573418171411760 4.94743573418171411760 4.94743573418171411760 6.60735090703778382704 -1.69222495724256605243 1.62760538846957403258 3.28752056132564396407 4.94743573418171411760 1.62760538846957403258 4.94743573418171411760 4.94743573418171411760 4.94743573418171411760 3.28752056132564396407 1.62760538846957403258 6.60735090703778382704 8.26726607989385442465 4.94743573418171411760 6.60735090703778382704 3.28752056132564396407 1.62760538846957403258 6.60735090703778382704 6.60735090703778382704 6.60735090703778382704 8.26726607989385442465 3.28752056132564396407 9.92718125274992502227 4.94743573418171411760 4.94743573418171411760 4.94743573418171411760 3.28752056132564396407 4.94743573418171411760 3.28752056132564396407 3.28752056132564396407 4.94743573418171411760 6.60735090703778382704 3.28752056132564396407 6.60735090703778382704 3.28752056132564396407 3.28752056132564396407 3.28752056132564396407 6.60735090703778382704 6.60735090703778382704 4.94743573418171411760 6.60735090703778382704 3.28752056132564396407 1.62760538846957403258 3.28752056132564396407 1.62760538846957403258 3.28752056132564396407 6.60735090703778382704 6.60735090703778382704 6.60735090703778382704 4.94743573418171411760 1.62760538846957403258 1.62760538846957403258 -0.03230978438649618339 3.28752056132564396407 1.62760538846957403258 1.62760538846957403258 1.62760538846957403258 6.60735090703778382704 1.62760538846957403258 4.94743573418171411760 3.28752056132564396407 1.62760538846957403258 1.62760538846957403258 4.94743573418171411760 -0.03230978438649618339 1.62760538846957403258 -0.03230978438649618339 -0.03230978438649618339 3.28752056132564396407 4.94743573418171411760 1.62760538846957403258 4.94743573418171411760 3.28752056132564396407 3.28752056132564396407 1.62760538846957403258 -1.69222495724256605243 1.62760538846957403258 4.94743573418171411760 4.94743573418171411760 3.28752056132564396407 3.28752056132564396407 1.62760538846957403258 1.62760538846957403258 -1.69222495724256605243 1.62760538846957403258 6.60735090703778382704 3.28752056132564396407 3.28752056132564396407 3.28752056132564396407 1.62760538846957403258 1.62760538846957403258 -0.03230978438649618339 -0.03230978438649618339 