-4.094797 -4.080526 -4.066327 -4.052200 -4.038146 -4.024164 -4.010255 -3.996417 -3.982651 -3.943158 -5.203524 -5.317154 -4.766410 -3.914631 -3.665807 -5.076573 -5.855531 -4.912351 -4.735628 -4.697071 -3.703341 -3.772529 -4.637645 -4.712227 -4.544327 -3.638344 -2.774096 -2.437413 -2.790883 -3.880308 -4.502659 -3.808865 -3.771889 -3.698134 -3.179256 -2.542405 -2.927680 -4.638846 -4.750426 -4.978826 -4.826398 -3.791637 -3.989416 -4.011005 -4.039729 -4.570181 -5.075704 -5.363742 -4.550275 -4.166052 -2.892247 -2.205257 -2.502303 -3.023440 -2.689050 -2.977095 -2.859332 -2.001531 -1.251298 -2.093037 -2.317194 -2.590523 -3.308529 -3.522268 -2.887841 -2.818418 -2.895669 -2.509781 -2.242379 -1.991598 -2.561051 -2.862533 -3.508973 -3.430562 -2.959562 -3.031602 -3.460818 -3.463540 -3.708016 -3.854653 -4.890669 -5.158956 -4.471898 -4.200746 -3.359993 -2.945182 -3.521828 -4.403363 -5.500552 -5.404730 -4.478310 -3.428520 -3.015896 -3.544488 -4.627555 -5.191403 -4.629571 -3.902414 -3.179858 -3.021547 -3.211193 -2.478529 -3.316181 -2.474954 -2.212257 -1.936113 -1.757237 -2.478616 -1.686131 -1.420206 -1.965308 -1.726065 -2.262640 -2.186460 -1.463168 -1.523399 -1.960764 -1.345606 -0.575115 -0.707917 -2.600463 -1.875451 -1.315730 -1.807378 -0.541086 -0.126618 -1.073286 -1.176821 -0.417291 -0.376743 -1.123854 0.235974 0.768386 0.805847 0.515056 -0.107296 0.196685 0.382079 0.612777 1.071052 1.195541 0.433854 0.745236 1.039831 0.617304 0.825130 1.921970 1.401835 0.713505 1.136052 3.136795 3.348148 2.490022 2.487401 1.892186 0.799731 1.016237 2.146804 2.557926 1.417121 0.543883 0.174733 -0.201816 -0.156414 0.363854 0.721380 0.276576 0.515013 0.358197 0.756403 1.338371 2.060989 1.761580 1.535020 1.463715 1.786459 2.065845 1.455816 0.988957 0.532761 0.076890 0.137626 0.957540 1.028726 -0.053757 -1.661096 -1.659255 -1.823008 -1.950697 -2.104391 -1.846598 -1.721615 -2.463650 -3.171175 -3.726692 -4.460342 -3.593507 -2.779563 -2.107282 -1.687554 -2.038515 -2.716977 -2.376205 -1.609810 -1.289194 -0.951833 -0.673184 -1.309810 -1.181137 -2.016781 -2.409943 -2.288520 -2.070082 -1.728561 -2.324714 -2.282399 -3.125523 -4.671565 -4.392443 -4.558601 -4.036653 -3.876639 -4.317301 -4.666320 -4.997552 -5.297094 -5.100282 -4.088791 -3.827346 -4.138870 -3.085025 -5.625421 -5.829294 -5.440228 -4.506517 -4.044837 -4.725031 -5.788925 -5.651996 -5.840371 -5.488539 -5.543956 -5.814611 -5.292297 -6.082811 -5.587359 -5.810985 -5.667814 -5.328204 -5.783057 -5.387641 -5.216114 -5.063320 -5.919998 -5.670288 -5.539888 -5.891134 -6.270865 -6.076106 -6.687808 -7.228966 -7.217556 -6.436504 -6.915414 -7.753805 -7.408705 -7.912295 -7.204149 -6.880822 -6.791385 -7.485001 -7.752798 -7.513976 -8.015274 -7.438389 -7.033711 -7.361065 -8.122469 -8.566933 -8.974096 -10.022726 -9.893778 -8.909647 -9.044133 -9.503211 -10.363722 -10.539941 -11.486566 -11.407554 -10.946923 -10.787364 -10.630781 -11.675659 -12.154205 -12.274682 -12.165021 -12.336666 -11.864578 -12.188836 -11.986162 -11.396952 -11.303132 -11.848711 -12.282984 -12.837013 -12.731308 -11.649889 -10.585200 -10.984369 -12.535713 -13.508363 -12.887423 -12.823900 -12.341560 -12.335927 -12.915137 -12.547708 -12.192401 -12.268241 -12.755699 -12.882822 -12.346717 -11.179815 -10.892857 -11.611351 -11.640385 -11.536937 -11.617760 -11.488763 -12.065450 -11.614726 -10.854776 -11.167853 -10.185721 -10.701425 -11.930385 -12.565969 -12.854725 -10.977135 -9.746497 -10.438376 -11.158772 -12.041271 -12.264720 -11.639843 -10.451556 -9.424492 -9.789579 -9.439183 -10.169961 -10.729323 -10.499182 -10.091590 -9.765053 -9.641769 -9.524296 -9.794165 -10.890699 -11.167470 -10.214806 -8.996142 -9.422100 -8.528204 -8.422391 -8.596555 -9.343150 -8.779601 -7.609465 -7.196430 -6.250520 -6.723585 -7.933250 -7.435273 -7.648666 -7.010089 -6.331082 -6.641670 -6.750298 -6.407410 -7.203382 -7.084427 -6.752229 -6.240206 -5.825967 -5.661071 -5.384565 -5.713024 -5.826963 -5.192950 -4.305367 -4.292969 -5.347382 -5.221539 -5.159156 -4.841196 -4.358006 -4.653672 -5.058760 -5.437174 -5.120934 -5.318366 -5.868329 -5.419609 -4.850424 -4.924801 -4.967340 -4.839208 -4.476388 -3.914106 -3.315187 -3.424099 -3.054225 -2.814416 -2.759482 -3.501166 -3.264437 -3.482053 -3.584597 -2.637235 -2.281334 -2.141971 -2.632245 -2.968555 -2.766506 -3.530777 -3.110135 -2.315693 -2.920019 -2.176812 -3.560448 -4.490387 -5.108660 -5.761253 -5.175227 -4.741865 -5.830682 -6.159279 -6.575644 -7.019232 -7.301421 -6.700681 -7.397979 -7.028722 -6.929576 -7.301953 -8.251604 -8.376394 -8.357828 -8.185092 -8.640059 -8.213592 -9.163891 -10.366635 -10.695809 -10.603937 -10.648290 -9.544556 -9.095680 -10.120561 -11.087698 -10.899812 -11.085065 -10.664933 -11.018405 -10.428804 -10.695870 -11.196864 -10.991642 -11.128256 -11.447618 -11.005917 -10.533619 -10.136961 -10.433525 -10.150033 -10.631855 -10.303405 -10.607721 -10.644319 -9.942957 -10.544825 -10.279067 -9.690844 -9.779262 -9.559098 -10.051069 -10.234818 -10.074194 -9.874955 -9.057678 -8.571227 -9.375781 -9.885000 -10.403323 -10.863998 -10.719134 -9.359710 -7.651056 -8.025116 -8.280105 -8.991684 -9.556943 -9.933407 -8.607629 -7.450154 -8.434278 -7.726058 -7.910744 -8.347396 -8.928332 -8.161796 -7.664790 -7.961119 -7.996056 -8.916686 -8.914584 -8.809056 -8.416093 -7.441495 -7.844451 -7.420914 -7.814308 -8.217995 -7.763582 -6.528419 -4.734309 -4.559037 -5.425641 -6.711597 -6.430780 -5.656497 -5.044893 -4.512712 -4.909354 -5.499085 -5.040782 -5.655232 -4.864961 -4.516322 -4.279665 -4.241425 -3.984723 -3.183561 -3.576014 -3.935359 -5.023760 -4.773177 -4.141036 -3.056950 -3.452243 -5.325521 -5.838791 -5.428526 -4.567655 -4.560935 -4.793519 -4.744844 -4.009078 -3.822565 -5.199536 -6.058187 -5.976843 -5.566323 -4.221118 -4.233591 -4.391960 -5.713135 -6.919275 -6.292443 -6.094469 -5.136512 -4.626817 -4.857985 -4.962682 -5.019456 -4.452240 -4.228403 -4.440481 -4.400158 -4.123072 -3.291896 -3.870021 -4.700753 -4.456705 -4.489584 -4.917476 -4.187203 -4.354858 -3.936862 -3.633191 -4.381058 -4.289661 -3.985811 -3.996197 -4.659523 -4.782236 -3.701543 -3.145773 -2.157550 -1.773173 -3.143651 -2.578104 -2.776192 -2.111280 -0.625958 -0.571719 -1.274637 -1.861429 -2.815854 -3.193525 -2.904767 -2.831292 -2.496432 -1.565939 -2.335461 -2.676983 -2.912794 -2.495031 -2.348197 -1.418300 0.032823 -0.234810 -0.570902 -1.441790 -2.336830 -1.438171 -0.426470 -0.504528 -0.750233 -1.133253 -0.645070 0.039055 -0.363074 -1.121395 -1.115893 -1.208572 -0.465032 0.355956 0.368626 0.530236 -0.737439 -1.065141 -0.039897 0.022753 0.688761 0.633246 0.799345 1.427251 0.588373 0.644615 0.661858 0.229116 0.944651 1.875235 2.113081 1.775724 1.601327 0.982978 0.349935 2.963014 4.172868 4.264862 4.100729 2.352904 2.681273 3.283611 3.421684 3.258299 3.451131 3.222167 4.453577 4.715464 3.046201 1.823938 1.675896 3.192979 3.986915 4.628979 4.302735 3.294963 3.293533 3.431639 4.551222 5.667211 5.278787 4.884365 4.623328 4.451203 4.619198 3.376117 5.360616 4.657877 5.398075 4.387385 2.823450 2.590156 2.102331 4.540174 5.941317 5.001615 3.749148 1.333353 1.684506 2.313026 3.208818 3.780172 2.885614 2.420323 1.451140 0.481061 1.649793 1.918304 2.375777 2.423118 1.870380 1.449647 0.766815 0.751898 0.543953 0.262326 1.035579 0.479174 -0.241122 -0.013061 -0.993372 -0.808018 -0.431124 -1.053231 -0.742788 -0.257207 -0.622052 -0.702725 -1.805144 -1.136593 -0.117276 0.640055 0.229212 -0.706116 -1.970340 -2.156435 -1.173033 -0.141442 -0.694000 -0.830677 -2.346877 -3.392950 -3.026053 -2.678545 -2.317988 -1.913185 -1.872081 -2.073440 -2.062606 -2.129832 -2.945595 -2.158216 -1.635598 -1.891506 -2.513940 -2.669120 -2.273131 -2.175785 -3.609933 -4.337395 -3.960884 -4.586959 -3.926057 -3.372374 -4.147383 -5.161197 -5.887911 -5.572462 -4.445614 -4.424156 -3.940087 -4.189151 -4.724926 -4.398784 -5.836910 -5.736600 -4.051372 -2.826136 -3.397582 -3.885839 -5.092609 -5.273208 -4.410810 -3.590514 -3.541824 -3.167155 -3.765323 -4.296757 -4.431050 -3.384684 -3.173069 -3.487626 -3.837227 -3.757881 -2.892630 -1.322790 -1.638218 -3.304250 -4.167344 -3.729228 -2.211744 -1.430804 -1.921319 -2.478920 -3.443791 -3.397324 -3.538356 -3.553517 -3.245057 -2.946558 -2.664591 -2.225516 -2.565985 -1.423771 -1.632882 -0.966239 -0.824942 -0.411934 0.436804 0.000045 -0.784896 -1.718648 -1.004821 -0.304787 -0.942979 -0.601399 0.368600 -0.172342 -0.912620 -0.672692 -1.059054 -0.809133 -0.254468 -0.553739 -0.624989 -1.736084 -1.235531 -1.488797 -1.254208 -0.983182 -0.055239 -0.110921 0.694984 0.570213 0.033520 0.215520 0.866838 0.564795 0.984892 0.167021 -0.069014 -0.590355 -1.205492 -1.160494 -1.783709 -0.136819 -0.051914 0.217229 0.879159 -0.829499 -1.352798 -2.077929 -0.843181 0.010698 0.250675 0.456954 -0.677804 -1.028346 -1.838569 -2.541643 -1.725766 -0.609294 0.465266 0.695602 -0.331543 -1.395762 -2.123255 -2.136946 -1.899372 -0.658011 -0.409689 -0.982993 -1.630837 -1.482263 -1.511642 -2.852274 -2.932189 -2.233149 -1.920858 -1.081111 -1.175531 -2.282391 -3.133968 -3.727770 -2.602172 -1.632554 -2.043651 -1.488293 -1.132016 -1.495412 -2.034113 -2.568719 -2.032296 -1.801036 -1.508543 -1.392968 -1.293790 -1.763636 -2.235043 -2.344335 -2.705918 -3.055113 -2.237036 -0.917853 -0.517419 -1.896922 -2.813651 -2.516502 -1.802320 -1.026139 -0.842364 -1.354060 -1.223113 -1.639912 -0.988396 -1.858129 -2.566296 -2.342283 -2.567345 -1.591677 -0.845546 -2.306191 -3.246999 -3.989444 -3.699912 -2.189785 -1.170521 -1.211140 -1.485211 -1.599241 -1.613098 -2.163506 -2.236798 -1.416599 -1.129992 -0.585457 -1.381817 -2.064150 -2.429788 -2.583197 -1.605243 -0.997152 -0.903631 -0.782905 -1.020427 -1.511227 -2.887964 -1.923711 -1.917068 -1.958966 -2.259007 -1.973144 -1.791118 -2.817403 -2.472375 -3.125660 -3.556594 -2.290813 -0.900037 -1.408514 -1.844097 -1.542436 -1.624010 -3.165015 -2.556820 -1.308659 -2.055012 -1.340537 -1.877516 -2.006072 -3.347307 -3.048355 -2.207067 -1.863306 -1.156493 -1.279993 -1.525194 -1.843656 -1.938892 -0.870641 -0.244554 -0.531796 -0.780696 -1.552857 -1.723628 -0.484977 -0.535951 -0.444596 -0.590799 -1.325327 -1.682531 -2.036858 -1.807168 -2.270360 -2.491541 -3.471973 -3.964062 -3.466187 -3.535118 -2.997993 -3.718638 -4.192633 -4.554107 -4.392885 -4.453648 -4.107023 -3.400126 -3.639545 -3.993520 -4.455803 -4.990483 -5.259344 -4.882052 -4.172357 -4.037274 -4.830245 -6.005943 -6.249539 -5.558988 -5.139511 -5.606455 -5.364611 -5.161883 -4.788446 -4.463435 -5.303652 -6.317522 -6.995998 -6.474581 -5.544271 -5.960601 -6.471240 -6.859763 -7.163457 -7.403301 -7.667694 -7.849968 -7.412322 -7.657853 -6.540603 -6.880106 -7.932429 -7.764582 -8.711381 -8.269491 -8.277822 -8.738508 -7.982414 -7.558860 -8.024037 -7.738852 -7.670344 -7.252932 -7.938059 -8.415791 -7.701408 -8.184501 -7.253576 -7.411824 -8.942524 -9.699495 -9.352493 -10.661526 -11.532886 -12.098892 -11.997316 -11.787268 -11.811840 -12.098413 -12.153837 -13.311619 -13.659745 -13.586363 -13.386559 -13.179556 -13.628748 -13.444876 -12.848699 -13.525783 -14.202256 -14.845371 -14.853479 -14.330874 -13.927589 -13.259558 -13.960111 -14.937858 -14.563914 -14.856910 -15.189456 -15.420795 -14.273965 -13.755179 -13.295906 -13.476604 -13.459545 -14.324993 -14.526785 -13.820819 -13.978473 -12.341924 -12.484498 -12.424207 -13.071949 -13.637951 -13.034791 -13.330681 -12.666538 -12.824956 -11.890158 -11.365763 -11.916352 -11.778031 -11.628243 -12.574435 -12.445405 -12.151059 -10.772019 -9.408917 -9.866758 -10.690328 -11.317620 -10.798587 -9.875393 -9.654509 -8.766224 -8.616864 -8.372871 -7.717458 -7.198501 -7.230651 -7.144349 -8.238315 -6.688899 -5.498341 -5.243182 -5.016256 -5.704017 -6.901500 -6.329551 -6.063262 -5.384598 -5.209247 -4.475157 -4.281255 -4.479411 -4.283762 -4.683985 -4.086744 -2.873805 -2.076218 -2.248958 -2.490611 -2.313466 -1.975765 -0.917910 -0.367817 0.118958 0.117607 0.441012 1.302374 1.278033 1.256177 0.907889 1.489423 2.548690 2.604883 2.191916 2.121226 2.341147 2.795658 3.903327 3.730888 3.163305 2.667606 3.731710 5.124367 5.513792 5.179836 3.689466 2.805145 4.337528 4.959954 5.918061 6.024133 3.388125 3.207123 3.872533 5.414324 5.156244 4.669974 4.990232 4.951047 5.465196 6.196986 5.621852 5.679079 5.435296 5.529342 7.126326 6.731595 5.662922 5.453371 5.617902 6.521930 7.014420 6.760131 5.441651 4.575789 4.118623 4.933736 5.079193 4.547240 6.031934 5.640987 5.722145 4.833181 5.394555 4.828134 4.469892 5.570091 6.107010 6.113897 5.462659 4.424891 4.397909 4.201842 5.368150 5.886514 5.620678 6.003573 5.175456 4.189359 3.818881 4.642706 5.468198 5.582979 5.746288 4.365325 3.249672 4.099410 4.867751 4.873709 5.540599 6.806884 6.272560 6.730634 6.236568 5.275134 5.515102 6.655775 7.499487 7.182937 5.892661 4.868346 4.941437 5.759644 6.634499 5.920060 4.795612 4.892148 4.349062 3.504673 3.781247 3.893270 3.451280 2.997811 3.010510 2.471909 1.963742 2.727683 2.503613 2.372156 2.512958 2.260359 2.261810 1.559502 2.357902 1.827484 1.675376 1.136709 0.184130 0.643966 0.464287 -0.073399 -0.458121 -0.878001 -0.747489 -0.070731 -0.306877 -0.917671 -1.690938 -0.889543 0.378103 0.073953 -0.317495 0.121067 -0.799720 0.169300 0.504896 -0.041069 0.225023 0.511079 0.693803 0.022945 -0.590160 -0.442043 -0.632500 0.119902 0.981038 1.381921 0.968226 0.188526 -0.710235 -0.187994 0.667207 1.416955 0.373101 0.132811 -0.905204 -1.201406 -0.033008 -0.250899 -1.097029 -0.981568 -1.513893 -1.659177 -1.812343 -1.827537 -1.722300 -1.596653 -1.152380 -2.519117 -2.461182 -2.327893 -2.225853 -1.018671 -0.285614 -0.941078 -1.050851 -1.571039 -0.832171 -0.443112 -0.476440 0.324031 0.546146 -0.806040 -0.464633 -0.454343 0.203377 -0.159979 -0.801856 -1.405494 -1.265576 -1.704202 -0.556873 -0.381565 -0.853131 -1.813955 -1.596728 -0.902883 0.224485 -0.517779 -0.900560 -0.711885 -0.755288 0.198874 1.044060 -0.100366 -0.610542 -0.925169 -0.890851 -0.678611 -0.324148 0.763415 -0.295406 -1.802814 -2.310342 -2.071417 -1.305116 -0.882700 -0.281556 -1.502703 -2.556389 -2.412971 -2.460137 -2.675272 -3.031290 -2.368168 -3.050975 -3.389506 -3.743000 -4.279768 -4.132510 -3.744538 -2.803272 -3.065230 -2.117525 -2.680765 -2.848570 -3.754840 -4.199550 -4.140881 -4.459189 -2.926052 -3.311419 -3.913031 -4.732012 -5.752066 -5.098982 -3.899900 -3.047521 -2.654566 -3.043192 -3.123973 -3.999687 -4.372360 -4.558916 -4.268090 -3.207822 -3.498953 -3.496766 -3.244571 -3.594995 -4.423306 -5.022818 -4.422990 -3.209425 -2.010715 -2.271725 -3.824765 -4.848999 -4.369079 -3.462803 -2.343489 -2.201373 -1.573112 -1.209716 -1.830401 -2.359520 -1.780223 -0.986098 -0.007187 -0.302418 -1.609024 -1.413139 -1.177055 -0.166405 -0.382656 -0.962237 -1.110459 -1.891745 -0.680355 0.617273 0.868526 1.275899 0.917591 0.718151 0.678024 1.603465 2.585413 3.381571 4.231738 2.772823 1.597030 1.919388 1.993707 3.518243 4.318602 4.459334 3.714466 3.380500 3.296371 3.398200 3.645606 4.637642 5.395841 4.310588 3.259854 3.804930 3.567202 3.931512 3.842469 3.517481 3.355761 3.019573 3.917883 3.908603 3.756096 3.129402 3.190232 4.028209 3.339595 3.341527 3.144573 3.609630 3.518796 3.773299 3.002948 2.258385 1.926513 1.472952 1.638368 1.172162 0.485963 0.346512 -0.073874 0.449548 -0.491544 -1.123338 -1.762175 -2.021510 -1.258024 -1.072764 -1.160145 -1.848121 -3.083751 -4.230629 -3.907317 -4.152412 -2.680066 -2.477729 -2.546394 -2.983220 -3.569682 -3.532642 -3.502569 -3.088720 -2.619547 -2.120288 -0.886842 -2.246485 -3.788359 -3.938278 -4.089958 -2.880608 -1.720655 -1.360581 -1.906585 -3.034926 -3.440678 -3.215043 -2.909702 -2.395206 -1.647578 -0.927383 -1.054417 -2.929840 -4.312324 -3.286800 -3.040721 -2.100874 -1.472814 -2.511543 -3.181255 -3.085579 -3.213102 -3.924996 -3.121339 -2.053046 -2.168436 -1.753970 -2.076806 -3.261244 -3.694025 -1.932670 -1.701915 -1.937616 -1.311204 -1.547698 -2.743719 -2.355042 -1.490905 -1.122940 0.280372 -0.363014 -1.458759 -2.553333 -2.000800 -0.426477 0.018727 -0.444345 -0.690235 -1.655711 -2.089007 -1.146467 0.010186 1.085744 0.699338 -0.201010 -1.128088 -0.944657 0.120985 1.035203 1.700753 0.914524 -0.788874 -1.454034 -0.849514 -0.269607 0.352655 0.860947 -0.116498 -0.297444 -0.388571 -0.655303 -0.610099 -0.224390 0.507808 0.631173 1.153330 1.093045 0.477817 1.026561 0.803829 0.922764 1.233463 2.266752 2.270133 1.390241 0.051799 -0.462478 -0.535387 -0.123323 1.283318 0.616405 -0.141669 -0.024894 -0.306751 -0.831064 -1.133623 -0.299398 -0.612752 -1.229922 -0.803350 -0.645065 -1.098295 -1.678298 -2.816221 -2.563799 0.229647 0.938043 0.073109 -0.952519 -1.468832 -1.137523 -0.977649 0.790118 1.253476 0.871885 0.417239 -0.149228 -0.461003 -0.174281 1.417836 2.083909 1.807757 1.504843 1.547079 1.513484 0.484762 1.165326 2.090312 1.577636 2.572581 2.591377 1.160130 1.315308 1.059264 2.030073 2.666115 2.616201 2.364777 2.886484 3.095393 1.708729 2.123550 2.826377 3.695319 4.222962 4.852347 4.298593 3.391198 3.141080 3.620650 3.168223 3.116341 4.087803 4.311436 3.598512 3.190352 3.161222 2.964510 3.987859 5.412219 6.096260 5.972247 4.926066 4.501626 4.395995 4.494515 5.991392 6.842588 5.911335 5.172672 4.452359 3.697973 4.132889 5.874011 6.375882 5.453775 4.306038 4.158690 4.115322 5.870251 6.021032 5.222959 5.747879 5.898514 5.585435 5.595235 5.761668 7.802732 7.455830 6.558001 5.260349 5.395431 6.425502 6.950417 6.524005 5.116405 4.794680 5.020408 4.940857 5.613929 5.935665 4.940349 3.939930 4.056924 4.010553 3.569477 4.375176 4.852830 4.335621 3.092573 1.897992 2.437337 3.708639 3.993719 3.777162 3.712021 2.766571 1.897844 2.518328 2.265888 1.394125 1.304532 1.325186 0.718561 0.750390 0.847628 0.588401 0.311945 -0.307592 -0.431343 0.485693 0.861345 1.209543 0.293164 -0.886602 -1.304835 -0.916778 0.290079 0.178494 -0.237552 -0.206149 -0.520441 -0.132410 -0.149825 0.055033 1.810315 2.033161 2.090993 0.748765 0.739518 0.788257 0.854006 1.379431 0.835867 0.922590 0.739022 0.719646 1.524021 0.516888 -0.259844 0.001253 0.532839 1.031964 1.001729 1.047635 0.321207 -0.974404 -0.530636 0.000146 0.480083 0.321455 1.269697 0.803593 -0.099797 -0.231666 1.132637 1.920085 2.054199 1.891548 0.661192 -0.187630 0.346803 0.150596 0.477785 0.257250 0.496414 -0.874926 -1.557320 -0.915458 -0.493615 -0.761365 -0.722850 -0.918757 -1.937870 -1.796173 -2.070124 -2.711600 -2.059638 -2.146972 -1.653494 -1.556369 -1.946779 -1.377654 -0.372038 0.091514 1.437537 1.535242 1.097701 1.335897 2.339954 2.399473 2.029468 0.770972 1.120046 1.622179 1.902619 1.897697 0.871067 1.231354 0.851097 1.732467 2.024168 2.291787 2.179550 1.924837 2.219701 1.989575 2.536478 2.969941 2.312412 2.935814 2.465933 0.893789 1.715755 1.309737 1.672483 2.250275 1.568139 1.159797 0.784568 0.205691 0.109828 0.491168 0.863339 0.882512 0.840191 0.375707 -0.094705 -0.003862 -0.532886 -1.116653 -1.877161 -1.649720 -0.765493 -1.291320 -2.271560 -3.283762 -3.939485 -2.576482 -1.239339 -0.991285 -2.739253 -3.442112 -3.069018 -3.135928 -1.729123 -1.691586 -1.313750 -2.097385 -2.060930 -2.115017 -2.469572 -2.824368 -3.061785 -2.529852 -2.048951 -2.745881 -3.130513 -3.970100 -3.812372 -3.532750 -3.055529 -2.669137 -2.710717 -2.739337 -2.786413 -2.599911 -2.851604 -3.168950 -3.158396 -4.176176 -3.614906 -3.036036 -3.402364 -3.148446 -4.031381 -4.237571 -4.400330 -3.631231 -3.124884 -3.027880 -3.524777 -3.607581 -2.343833 -1.423017 -2.168221 -2.033912 -2.098473 -1.786240 -1.520127 -0.268189 -0.119584 -1.419677 -1.309885 -2.356081 -2.006738 -0.186487 -0.548971 -0.166846 -0.659072 -1.546317 -1.389656 -1.222406 -0.900637 0.315411 0.359293 -0.182501 -1.055144 -1.892623 -2.190233 -2.284642 -1.236859 -1.030313 -1.318694 -1.282683 -1.670945 -2.265108 -3.456274 -2.665768 -2.382417 -1.433123 -0.102964 -1.263485 -2.671406 -2.851034 -2.525719 -1.417925 -0.898390 -0.573905 -1.362355 -1.374508 -1.566707 -2.050468 -2.015863 -1.061977 -1.142303 -1.197211 -1.394757 -1.089009 -1.258778 -1.641555 -2.336525 -1.944119 -1.679034 -0.398583 -0.222860 -1.243280 -2.007269 -2.499883 -1.855300 -0.746211 -0.055373 -0.314903 0.046186 -1.196880 -0.432721 0.159222 0.412658 0.490400 0.854542 0.457532 0.952169 0.914234 0.419173 -0.041426 -0.696320 -0.420891 0.373765 1.240621 1.828701 0.676457 -0.021297 0.078556 -0.634973 0.615061 1.580039 2.205090 2.379957 0.708899 0.439701 0.035813 0.670440 2.577584 2.888660 3.108050 2.902579 2.460517 2.352921 3.549044 5.416908 5.069136 4.442950 4.634385 4.623614 4.743547 4.754231 4.635067 4.850895 5.498218 5.370908 4.348232 3.641712 4.112877 5.426415 5.426630 5.519030 5.429261 4.172610 4.420880 5.410365 5.915107 4.977445 4.382020 4.106616 4.136550 5.222784 5.799330 6.064110 5.934341 5.008175 4.661132 5.281198 4.775205 4.227630 4.571208 4.265533 4.153043 3.346564 2.784678 2.584786 1.448781 2.554329 3.489612 2.937421 2.669955 1.562249 1.610706 1.906445 2.788036 4.316781 3.799820 2.133536 2.319695 2.468552 2.716977 2.452078 1.550475 1.463177 1.005387 2.626454 2.210517 1.017965 0.170018 -0.420570 0.865268 1.741526 1.644730 0.865740 -0.359794 -0.688276 -0.658678 -0.952178 -0.741112 -0.284574 -0.112707 -0.189269 -0.153214 -0.917026 -2.025629 -1.168170 -0.549020 -0.533774 -0.070948 0.160280 -0.635391 -1.114531 -1.450812 -1.275693 -0.552052 -0.035116 -0.183252 -0.983748 -1.755897 -1.690381 -1.820723 -2.059444 -1.785236 -1.588331 -0.750147 -0.300180 -0.731360 -1.406591 -0.927119 -0.369526 -0.257449 0.491102 0.059881 -0.184859 -0.096888 -0.083366 -0.730421 -1.357422 -0.688343 -0.301755 -0.061603 -0.042882 -1.476012 -2.159498 -1.205255 -1.197690 -0.024915 1.075183 0.276925 -0.501410 -1.727822 -1.018612 -0.870925 -0.092240 0.942008 -0.018219 -1.055436 -1.736839 -2.353226 -2.336452 -2.917151 -2.039997 -1.010580 -0.559434 -2.330515 -3.366301 -3.564622 -2.383818 -2.115233 -1.764209 -1.807069 -2.948274 -2.509721 -2.220396 -2.316749 -2.381832 -2.239585 -1.076867 -0.418541 0.244227 0.091640 -1.152038 0.141825 -0.098888 -0.765931 -0.885963 -0.455581 -0.001799 0.933837 0.286664 -0.685448 -1.119921 -1.232263 -0.362553 0.596353 1.374381 0.650274 -0.448318 -0.338671 -0.774771 -1.315481 0.178333 0.669882 1.387896 0.492033 0.236945 -0.557873 -0.538287 0.896349 2.398813 1.795735 2.323738 1.947825 1.744049 2.129367 2.362386 3.002807 3.008304 2.838198 3.872283 3.309023 2.183262 2.309910 2.994932 3.582024 3.816735 3.107724 2.171405 2.184321 3.873761 4.557621 3.417117 2.363515 2.938821 3.102138 3.424145 3.683753 3.414493 3.212998 2.318691 2.974573 3.030526 3.213979 2.104229 2.292525 2.425839 0.820387 1.003848 1.428671 2.401242 2.262485 1.443916 1.121315 0.614414 0.731194 0.908210 1.202961 1.929171 1.963339 1.111605 -0.000656 -0.115028 -0.061100 0.621764 0.994527 1.257481 0.329906 -0.753835 -0.540487 -0.124335 0.610647 1.068459 1.264579 0.852215 0.481627 0.838127 0.956618 1.481916 1.508324 2.664488 2.607126 2.368887 1.823268 1.127682 1.768122 3.227872 4.385762 3.837448 2.420669 1.193801 1.592852 2.315194 2.904282 2.395004 1.221516 0.458492 0.210762 -0.378921 -0.342886 -0.396636 0.153782 -0.037687 0.191681 -0.751268 -1.075057 -0.219708 -0.121002 -0.735010 -0.484769 0.281690 0.205441 0.031727 -0.830188 -2.327478 -1.628135 -0.459361 0.184684 -0.003977 -0.669985 -2.012093 -2.251156 -1.633878 0.125035 0.046308 -1.126306 -1.195388 -1.786611 -1.260129 -0.253929 0.109551 -0.527191 -0.265913 -0.712781 -1.599979 -0.605889 -0.315086 -0.559890 -0.483721 -0.572382 -0.722062 -0.684062 0.349675 0.689532 1.245950 1.369106 0.782558 0.477850 1.526771 0.360702 0.426084 1.847806 1.986242 1.090738 0.405840 0.243246 0.089380 0.631235 0.644288 0.130858 -0.469519 -0.912872 -1.070853 -1.051672 -1.072432 -1.467285 -1.316339 -0.912361 -0.355675 -0.950408 -0.367331 -0.453583 -0.427807 -0.425173 0.045055 -0.699752 -0.374415 -0.569985 -0.130675 -0.159447 0.038717 -0.757072 -0.596835 -0.487862 0.678461 0.905411 -0.089959 -0.826553 -1.347078 -0.557473 0.705834 0.161478 0.091647 -1.336173 -0.600040 -0.469204 -0.310290 0.115646 -0.836817 -0.150027 0.130151 0.284559 0.510524 -0.236074 -0.584902 -0.300535 0.261937 0.999004 0.697224 0.609154 0.829296 -0.401837 0.168062 0.963584 1.537982 1.936906 1.746210 1.350172 1.512535 1.756376 2.289802 3.493585 3.378981 2.578398 2.566831 2.722057 3.452898 3.198232 2.200668 3.322589 3.647059 3.768190 3.422888 2.810308 2.812961 3.527002 4.411437 4.338733 4.397821 4.249044 3.807997 3.501183 4.461594 5.211998 4.951978 5.366555 4.796518 4.363619 4.746898 5.603914 6.229576 5.766708 6.110598 5.627638 5.169510 5.040870 6.003637 4.960560 4.925812 4.844688 5.048565 4.869679 4.121635 3.386112 4.069568 4.736771 4.952467 3.933391 4.290680 4.381056 3.900431 4.196233 3.872882 3.685798 3.365688 3.391516 2.988449 2.944455 2.151191 2.319117 2.654742 3.083370 3.042723 3.548648 3.911162 4.105810 3.000534 2.699059 3.268827 3.763594 4.218376 3.897916 3.213434 2.636999 2.488367 3.045144 2.490395 3.033345 4.801697 4.936375 5.685445 4.797003 3.676054 3.737192 4.691932 5.789043 5.132631 4.168761 4.235340 3.378236 3.069146 3.263123 2.061691 1.923603 3.175626 3.462338 3.195731 2.776677 2.472149 2.398868 2.885184 3.958740 3.127054 3.139682 2.489144 2.311688 1.648277 1.328449 1.444128 2.035290 2.209469 2.919523 2.537672 1.668881 1.569074 2.066042 3.541630 3.811908 3.450460 2.582534 1.087421 1.331348 1.794507 2.887413 3.014911 2.310955 2.157841 1.877365 2.334435 1.776762 1.364595 1.867677 1.806096 2.596168 2.787709 1.960486 1.673492 0.939195 0.610592 1.075946 1.048284 1.604944 1.866644 0.838109 0.724585 0.774315 1.143722 0.685204 1.145198 2.196184 2.526931 1.956651 1.739696 0.799907 1.041868 2.004472 2.783924 3.077614 2.142570 1.386181 1.625810 2.665589 3.385121 3.027001 3.129300 3.562560 3.262161 2.392677 1.944575 1.997535 2.074822 3.159253 4.331553 4.220964 3.626451 3.029704 2.790886 2.921684 3.232153 4.376051 5.024922 5.032012 4.526461 3.165010 3.321084 3.416617 4.246199 4.776844 4.986037 4.328501 4.292728 4.835353 4.612734 4.269703 3.822495 3.277865 4.051400 4.691871 4.933490 4.928236 4.645968 3.880254 3.318429 3.500899 4.226844 5.551794 5.275066 4.733704 3.888841 3.549333 3.149761 3.602458 4.534524 3.908427 3.720097 3.772121 3.281956 2.965861 1.467008 1.354403 1.777728 2.529838 3.376682 3.315493 1.633921 1.098275 1.435339 2.146232 2.044712 1.476246 1.510002 2.198875 2.912191 1.995248 0.775258 0.953214 1.146086 2.060981 2.277007 1.906793 1.234114 0.992350 1.711445 2.310085 2.305179 2.757975 2.163496 1.867468 1.873475 2.992985 2.991508 3.024221 3.763214 3.090585 2.761430 3.077277 2.106742 1.613694 2.272327 2.637666 2.164551 1.954650 2.158262 2.404060 1.843899 1.646931 1.625767 1.344699 1.961925 1.695585 1.804621 1.702680 0.930550 0.950198 0.863552 0.849890 2.049885 2.426407 1.869208 1.883038 2.322588 2.994022 3.504702 3.308637 2.901136 3.496834 4.425800 4.489628 3.521251 3.752193 4.150758 4.089926 5.128551 5.192820 4.263909 4.671050 4.215928 3.703682 4.034262 3.660980 4.618298 4.890134 5.323352 5.787386 5.148251 5.322086 5.351413 6.534051 7.069739 6.262755 6.691684 6.015774 5.691015 6.048816 6.351480 6.721234 7.059604 7.714531 7.165868 6.874979 6.441262 6.276378 6.230990 6.485428 7.250129 7.125362 6.935186 6.021373 5.794570 5.729659 7.089472 8.057839 8.789163 9.026118 7.714795 7.150057 7.793144 8.176399 8.867028 8.788562 8.305321 6.977588 6.990421 6.850457 5.893169 5.786840 6.752704 6.689430 6.807108 6.288075 5.775189 6.193735 6.106785 5.840497 6.884300 7.455199 6.810587 7.597021 7.089841 5.530968 6.034357 6.996932 7.479562 7.673713 7.908828 7.786425 7.150210 7.221455 7.296778 6.540586 6.605712 7.199589 6.768085 5.551990 5.687749 5.248090 5.627808 6.730809 7.114234 7.172699 6.737928 6.135072 5.627055 5.214234 6.269218 6.240333 6.521994 6.502984 5.537700 5.352924 4.023721 4.146672 5.388154 5.812608 5.549187 4.363300 4.386466 4.816039 4.257910 4.960990 4.814375 5.472250 5.722893 5.151640 4.463489 4.637505 4.318878 5.378630 6.013027 5.829090 5.079497 4.975765 5.331943 5.672571 4.937434 5.309682 5.842606 5.328337 4.574077 4.321040 4.047003 4.226910 5.055965 4.680051 4.597739 4.815803 5.328231 5.065588 4.976219 5.722868 5.762128 6.285757 6.352917 5.602611 5.029287 5.185906 4.446394 5.135774 5.318388 5.926322 5.917681 5.022445 5.173422 5.169988 4.185227 3.847931 3.252826 4.154499 4.998828 4.353068 3.812070 2.493546 2.415185 3.260502 3.806292 4.380310 3.406586 3.704851 3.509429 3.542363 3.312933 4.327882 4.262009 4.184188 3.728748 3.659558 3.838343 3.654340 3.113615 3.279141 3.067672 3.311224 2.935964 2.588730 2.460359 2.663131 2.850521 2.998094 2.914213 3.097222 3.774313 2.985739 3.242376 1.899624 1.437687 2.742487 3.414550 4.650265 3.638713 2.095698 1.724990 2.591262 3.744934 3.656851 4.230697 3.574139 3.225542 3.980767 3.373502 3.044220 3.376538 4.545572 4.466574 3.761601 3.757761 2.896653 3.694524 4.008602 3.813514 3.648743 3.008966 3.357242 3.904060 3.356529 3.204913 2.231226 2.853706 3.866225 3.483464 2.790298 2.579328 2.454025 2.095927 2.306989 3.441033 3.466276 2.301169 2.218922 3.023154 1.958617 1.424123 2.466397 3.765354 3.577941 3.343142 3.255882 2.667774 2.267583 2.413579 3.056866 2.366738 2.612643 3.078479 2.405964 2.052111 2.308900 1.405345 0.752253 1.021483 1.856850 1.951961 1.526684 1.922656 2.022804 2.048072 2.069451 1.924611 2.587713 3.112116 3.171721 3.810826 3.340050 3.479356 2.640502 3.289306 4.397897 4.494613 4.033531 3.623087 2.997757 2.606311 2.823084 3.322288 3.583516 4.193903 3.234319 2.331101 1.945542 2.413385 3.800477 4.089775 4.167281 3.615458 3.688543 4.560887 5.598825 5.324322 5.233733 4.699574 5.493831 6.518471 6.288698 5.706955 4.446533 4.686925 5.303332 6.017897 6.181676 5.545024 6.572564 5.893506 5.682913 5.987828 6.009348 6.138901 5.780971 6.034257 5.250897 5.467529 5.593489 5.696994 5.359074 4.187861 3.604640 5.071130 6.705520 7.408156 7.515415 6.632093 5.537824 5.543964 7.161833 9.036773 8.938333 7.721756 6.885480 5.120776 5.032601 6.134341 6.970191 7.557730 6.090198 5.926207 5.481528 5.427260 6.721865 7.047018 7.519293 7.608465 7.475882 7.911392 6.565919 7.371336 8.223245 8.770029 9.173215 8.238993 7.161019 7.286397 8.027993 8.704299 9.054229 8.682716 6.489715 5.893238 6.295473 6.807613 6.764776 6.367119 5.552969 5.471766 6.422131 5.600444 4.536345 4.113766 4.462383 5.089928 5.212166 5.278714 4.413383 3.187637 3.431038 3.851177 4.774758 4.776933 3.583066 3.069506 2.565240 1.628153 2.380081 2.369962 2.096577 1.520376 1.166050 1.033123 -0.198930 -0.470623 0.288070 1.372409 2.022863 1.054603 0.084097 -1.471522 -0.847013 -1.033126 -0.595974 -0.209894 -0.653206 -2.114033 -2.523631 -2.221083 -2.765946 -3.203467 -2.682340 -1.990848 -2.606458 -3.187297 -4.004477 -4.975642 -5.453125 -5.683331 -5.687236 -5.618379 -5.845614 -5.504250 -6.727809 -6.329835 -6.757479 -7.355705 -7.051160 -7.176466 -6.770221 -6.011130 -7.406776 -7.629584 -8.633205 -9.426961 -9.788400 -9.353098 -8.617624 -9.152390 -9.871734 -10.611255 -10.503960 -10.484515 -10.379382 -10.871979 -10.182117 -9.921507 -10.841490 -10.769904 -11.510692 -11.994645 -11.391094 -11.026493 -10.603339 -10.923252 -10.400133 -10.287567 -10.342569 -10.480082 -9.659051 -10.090226 -8.352679 -7.441330 -8.156452 -8.766137 -9.525412 -8.735086 -8.397178 -8.251154 -7.991590 -8.595177 -8.028416 -7.029175 -6.692067 -7.795125 -8.822314 -8.882687 -7.906341 -5.534269 -5.296742 -7.076657 -7.613232 -7.574231 -7.248534 -6.651481 -6.238846 -6.179248 -5.567651 -5.163096 -4.782438 -4.829393 -5.148470 -4.604109 -4.349363 -3.400680 -2.764695 -3.439297 -3.424935 -2.658874 -2.345329 -2.132975 -2.408448 -1.525731 -0.856312 -1.116654 -0.392573 -0.036992 0.171076 0.691673 0.386999 0.950398 1.632573 2.101005 1.334582 1.829652 1.105976 1.260134 1.625936 1.919472 1.981048 1.952161 1.720597 1.857052 1.582673 2.139264 2.585714 3.572747 3.793653 4.032700 4.325840 3.276665 4.319516 5.223464 5.126838 5.358218 5.387236 5.397127 5.249801 5.026156 5.504039 5.032389 4.343498 5.591017 6.943875 6.178353 5.566587 5.169446 4.818112 5.157077 5.909982 7.369884 7.983860 7.580780 7.073365 6.473680 7.108043 8.228936 9.004900 9.486590 9.456940 9.223394 7.471909 7.703914 8.222337 9.105262 9.410606 9.829418 8.741794 7.650297 7.812712 8.480160 9.303318 9.389787 8.653412 8.760688 8.380995 7.690620 7.982283 7.164030 6.818495 7.795496 7.496005 7.578344 6.653531 6.439734 6.234322 5.827197 7.619187 8.423624 8.255857 7.267206 6.683625 6.331387 5.758854 7.796155 8.549065 8.254012 7.099240 5.711805 5.522653 5.860103 7.349668 7.297633 6.588073 6.131810 5.352047 5.682657 5.728991 4.316487 5.143029 5.820685 5.533526 4.655744 4.119573 4.764756 4.629471 5.161212 4.991336 4.640713 4.273780 4.163787 4.979265 4.985963 4.181229 3.879146 3.271523 2.775463 3.109618 3.996399 3.989944 3.562156 3.611761 3.673246 2.686448 2.644237 3.626756 4.040950 4.062486 3.851830 2.818049 2.303412 2.983187 3.809367 3.611372 2.299589 1.689883 2.839952 2.883676 2.924622 2.373640 1.114217 1.012491 2.016954 4.307941 4.077341 2.882795 1.984993 1.842873 2.313125 2.875911 2.796110 3.530179 3.388252 3.134478 3.023695 2.962385 2.966157 4.109690 4.091365 4.137256 4.741986 4.341688 3.954856 3.693844 3.177858 2.670110 2.389858 3.129029 2.820403 2.449404 1.191781 0.857763 0.458940 1.336032 2.206160 2.053004 1.704540 1.088036 1.061963 0.961022 1.686026 3.071429 2.556261 1.516396 1.115824 0.049877 0.085837 0.879261 1.818122 1.399444 0.472767 0.107325 0.419563 0.420868 1.862826 1.793469 2.309262 2.159189 2.177650 2.197530 1.992184 2.140703 2.583895 2.716359 2.397813 2.592912 2.256706 1.943256 2.507854 2.839405 2.319896 3.183276 2.121924 1.809584 1.681439 1.856580 2.841757 3.287624 2.647953 2.373312 1.391892 2.953361 4.447912 4.405058 4.089883 3.540242 3.442882 3.102106 3.574627 3.234410 2.930101 1.887671 1.347360 1.223818 0.904529 1.176608 0.810166 0.233945 0.367998 0.788965 1.350052 0.796813 0.472061 0.898693 1.375536 1.129345 1.412690 1.731235 1.616124 1.943037 1.513749 1.553777 0.926375 2.250086 3.632852 4.063909 3.074661 1.344597 1.519683 2.310178 2.238618 1.969592 1.325846 0.313544 0.646351 0.795516 0.473383 -0.549002 -1.332723 -0.363970 0.098332 0.482622 0.042927 -0.622379 -0.858919 -1.312101 -1.557831 -0.258982 -0.153527 -0.014118 -0.586182 -0.746055 -0.777628 -0.992525 -0.429731 1.043842 0.365777 0.257222 -0.412259 -1.088253 -0.454627 0.419692 0.359315 1.167291 0.604588 -0.022834 -1.062003 -1.189832 -1.122929 -1.553909 -0.661282 0.271433 -1.010951 -1.256391 -2.190418 -1.764810 -0.403242 -0.522119 -0.044185 -0.182844 -0.127202 -0.460699 -0.603621 -0.633847 -1.613714 -1.522224 -0.503758 0.034562 -0.106336 -1.677793 -1.884168 -1.475699 -0.039699 -0.178600 -1.252203 -0.474711 -0.610796 0.372807 0.677133 0.319906 -0.445115 -1.803740 -0.477969 0.344458 1.079095 0.680203 -0.239642 -1.041852 -1.580557 -1.530457 -1.042404 -0.253142 0.686972 -0.889401 -1.334230 -1.447468 -0.819829 -0.521410 -0.617306 0.101251 0.011217 -0.610476 -0.778574 -1.052848 -0.485493 -0.820288 -0.120075 0.690685 1.332009 0.690275 -0.016947 -0.138364 -0.325990 0.745125 1.968818 2.360171 1.394758 0.561415 0.432803 1.081409 1.989747 2.740379 3.766280 2.862513 1.691986 1.946373 2.570745 2.721586 3.069126 3.488559 2.849635 2.487218 2.164556 1.825773 1.706196 1.457833 1.522709 2.104019 1.282654 1.572115 1.457959 1.130588 0.795172 0.217384 0.565442 1.156770 0.676837 0.565791 0.146476 0.554638 -0.425012 -1.120622 -0.796591 -0.365601 0.331500 0.835718 -0.446417 -1.147915 -1.356417 -0.419072 0.110891 0.351163 0.239725 0.064952 0.707627 -0.161756 -1.531557 -0.756504 -0.222046 1.195593 1.370287 0.231239 -0.351667 -1.139529 -0.715382 0.312155 0.647532 1.312382 0.504952 -0.186629 -0.699964 -0.490235 0.586908 1.072717 1.027147 0.675143 0.044889 -0.602021 0.037365 1.099004 1.359683 1.792074 1.007929 0.687680 0.672381 1.472060 2.171886 2.289833 2.724144 2.441850 2.094195 2.058667 2.275995 2.510254 1.779898 1.388308 2.642286 2.786138 1.972595 2.152477 1.604274 1.347464 1.621929 2.814315 2.832500 2.378061 1.686590 1.608900 1.358998 0.595939 2.558340 1.978943 2.010529 1.099771 0.348347 0.491994 -0.030464 -0.451656 -0.735922 -0.629177 0.149852 0.105161 -0.221665 -0.960022 -2.023963 -2.211359 -1.375336 -0.843759 -0.834694 -0.890078 -1.514886 -1.654205 -2.468580 -2.741818 -1.855811 -0.032359 -0.179579 -0.025590 -0.969683 -1.859019 -0.602724 -0.438085 0.331624 1.925430 0.731511 -0.043653 -0.670497 -1.111337 -1.629398 -1.777526 -1.100390 -0.948832 -0.696934 -0.376037 -1.502176 -1.830348 -1.611849 -1.135121 -0.664159 1.012526 1.182489 -0.233862 -0.477207 -0.508535 -0.846365 -0.118942 0.699888 1.187311 0.474157 0.004342 0.269934 0.721515 1.071905 1.534898 1.301569 1.307774 1.494737 1.192407 0.697378 0.313800 0.999800 1.983610 2.840811 2.360970 2.446283 2.212610 2.361603 2.853333 1.702961 1.836780 3.115038 3.203938 3.777432 3.250062 2.627252 1.749046 2.607756 3.443930 3.002233 4.054854 3.270959 3.076048 3.201477 3.242425 4.059755 4.932034 4.851864 5.098667 4.219884 4.354660 4.929121 4.731396 5.684675 6.329689 5.834235 5.074025 4.507398 5.789444 6.488755 6.571645 6.298282 5.793375 6.907117 7.250189 6.142352 5.892558 5.975029 6.244365 6.440749 6.929738 6.188455 5.182129 5.749712 6.564821 6.255270 6.621943 7.137878 5.977678 5.382816 5.742379 5.604977 4.788266 5.387183 6.242700 5.535485 4.689767 4.740016 4.834994 4.718453 4.514772 4.945643 5.826005 4.769247 4.331429 4.652269 4.140711 4.290772 5.078189 5.433030 5.135029 5.065952 4.879169 4.508995 3.811033 3.357765 2.981651 4.090757 3.979286 4.080341 2.742002 2.824458 1.803144 1.690798 1.933330 3.275532 3.468721 3.252800 3.144918 2.729725 2.128078 1.710057 2.783289 3.824923 4.015139 3.497817 3.066958 2.294598 1.669135 2.146189 3.014143 2.545160 2.404822 2.160756 1.566954 1.524544 1.104766 2.293509 2.945674 3.241378 2.958216 2.749828 2.055325 1.261207 1.639886 1.786695 2.353596 2.727408 2.101459 2.622838 2.189797 1.794165 1.305715 1.163235 2.569536 2.486698 1.910153 1.482747 0.707361 0.242192 0.587450 0.042315 0.542599 0.996138 1.495579 0.966341 0.535775 0.622201 -0.179801 1.053361 2.151742 1.718177 1.329473 0.595385 0.499144 0.711253 1.109194 0.975180 0.934697 0.894826 1.026997 0.757153 0.537553 0.328592 0.106252 1.073465 1.764218 2.375674 2.109062 1.486752 0.370234 0.359318 1.199478 2.097678 2.339198 2.515273 1.138709 0.857200 1.309262 0.833448 1.423957 2.636048 2.763924 2.875634 2.052466 2.015495 1.937381 1.898026 2.646998 3.045207 2.934780 2.979654 2.799002 3.091565 2.738222 2.517990 2.895269 3.262875 4.233278 4.227863 3.924927 2.460463 1.790663 2.159418 2.178496 2.933681 2.351429 2.139676 1.774744 2.054562 1.978779 1.623549 1.105749 1.910660 3.032977 3.107935 2.364430 2.063630 1.701220 1.971778 3.184823 4.185284 3.818184 3.391741 3.403765 4.095089 3.121321 3.418935 4.272960 4.633070 3.945877 3.690760 3.415906 3.083700 2.997674 3.039158 4.064795 5.118436 4.877805 4.965803 4.146206 3.500915 4.797495 5.902156 6.148220 5.965020 4.557902 5.340788 5.350549 5.515139 5.945121 5.390304 5.556482 5.210858 4.785866 4.834006 4.762084 4.199310 4.362376 3.964464 3.717549 3.911378 4.814815 5.336541 4.806747 4.707541 4.099470 3.467455 4.079499 4.213430 4.398693 4.801227 4.649578 4.243022 3.580946 2.912471 3.046993 3.264864 4.270181 4.193993 3.294720 2.429281 2.713734 2.106107 2.408270 2.590889 2.240288 2.321989 3.316258 2.941391 2.628658 2.045497 1.662604 2.132448 2.742007 2.157935 2.102957 1.841696 2.036510 2.205844 1.808242 2.357451 3.288703 3.595476 3.062766 2.220127 1.588356 1.662992 1.682138 2.519435 3.784852 3.215458 2.418119 1.927025 1.449259 1.762486 2.050904 