0.000000 0.000000 0.000000 0.000000 0.000000 0.000000 0.000000 0.000000 0.000000 1.389217 1.651294 1.233383 1.202792 1.676054 2.204242 3.381952 2.199471 2.263098 2.776984 1.644530 1.441614 2.461926 2.931714 2.003316 1.118001 0.016358 -0.183817 -0.528806 0.480606 -0.213341 -0.982592 -1.110809 -1.965194 -3.839865 -1.940435 -2.656748 -2.450511 -4.008497 -2.912092 -3.433977 -3.197611 -2.855868 -3.142773 -3.806674 -3.678925 -2.578330 -0.961572 -1.866087 -2.237304 -2.354508 -4.688489 -3.656279 -2.675017 -1.624761 -1.804014 -1.746188 -2.596500 -1.785334 -2.598160 -2.684039 -1.788646 -1.422565 -0.465953 -1.497887 -1.569586 -1.334416 -1.894600 -2.863202 -1.719014 -1.257445 -1.610367 -1.679200 -0.889495 -2.662836 -3.478971 -2.672114 -1.864751 -0.871515 -1.092853 0.097823 -0.589869 -1.185229 -1.266734 -1.561675 -0.457639 -0.185559 -0.255881 0.635364 -0.084523 -0.894923 -1.455787 -2.082247 0.322079 -0.661028 -0.364364 0.386797 0.412913 0.948897 1.772568 1.757183 1.584636 2.383747 2.949510 3.525076 3.075367 2.204557 2.643649 2.830046 4.537765 4.548797 4.914841 4.048172 4.213921 4.559543 4.201147 3.804757 4.724153 3.640931 4.497050 4.345525 4.892833 3.596905 1.476075 2.132329 3.334985 4.316899 4.677134 4.222713 3.736801 3.592850 3.757749 3.065023 2.494205 3.949224 4.505262 3.593081 3.901398 2.759287 3.758641 3.104942 3.782687 4.186597 4.637511 4.053633 4.295389 2.199021 4.717667 4.569923 4.181140 2.107062 2.398534 2.676522 2.969642 1.645329 2.098613 0.708966 0.174228 0.923662 1.459482 1.082096 1.123480 1.142272 0.051944 0.530070 0.858128 0.157805 -0.190407 0.421980 1.660771 1.134636 -0.570051 -0.929745 -1.328465 -1.018357 -0.114594 1.246860 0.943913 -0.689591 -1.177172 0.448699 0.170976 -0.339308 -1.187815 -0.637566 0.517647 0.813923 1.720547 0.858264 0.102182 -0.422338 -0.641730 -0.172757 0.316594 0.581342 0.667889 0.028791 -0.721387 -2.261507 -2.261851 -0.394769 0.381156 -0.665062 -0.545448 -0.868618 -1.468744 0.199804 0.873149 0.948465 -0.296640 -0.255230 0.158897 0.045299 0.369753 -0.988248 -2.436481 -1.780206 -2.493680 -2.316483 -2.387327 -2.238441 -2.945867 -3.508422 -3.752784 -2.688838 -2.383674 -1.519839 -1.813188 -1.467365 -1.807420 -1.579931 -2.584210 -1.591019 -1.157582 -0.195415 -0.315558 -0.609438 -2.179913 -2.140804 -3.635986 -1.529612 -0.913305 -0.400044 -1.003079 -3.027403 -3.316037 -1.868552 -0.756073 0.646617 -1.737293 -1.738952 -1.181466 0.525043 0.494667 1.615538 1.344274 0.241414 0.446091 0.731009 1.055232 0.886501 0.604649 0.904250 0.622632 0.016750 -0.724902 -2.417622 -1.559086 -0.390540 -0.699553 -1.984143 -1.810034 -2.550836 -3.139240 -2.257700 -1.461850 -1.130899 -2.406916 -2.639654 -2.765195 -2.888953 -2.429373 -4.091007 -3.321436 -2.922176 -2.920047 -3.128155 -3.054341 -3.425125 -3.242765 -2.740034 -2.976508 -3.548239 -3.248654 -2.710303 -2.950545 -3.990076 -3.631523 -3.192346 -3.016196 -3.599930 -3.607313 -3.835548 -3.920943 -4.119779 -3.646670 -3.716907 -5.253985 -5.390011 -5.029414 -4.780524 -3.707568 -3.500369 -3.956144 -5.664531 -6.552090 -5.723396 -5.679889 -4.135142 -3.374886 -4.676887 -5.079672 -5.371889 -3.977804 -2.971944 -2.586027 -2.270170 -2.019262 -1.815592 -1.230977 -1.333098 -1.380532 -1.887194 -0.457650 -0.135135 -0.874546 -0.761885 -0.723818 -1.454521 -1.670636 -0.800634 0.518593 0.208110 1.130803 1.481997 0.896794 0.810240 1.887907 2.202505 3.139267 3.434137 4.050444 3.875002 3.075680 2.620106 2.998331 3.983183 4.718314 4.951462 4.681379 3.515694 3.681460 3.372713 3.496378 2.453376 3.497270 4.731307 4.861832 6.209036 5.919998 3.633774 2.654195 4.268939 6.334031 7.393074 6.560009 6.202077 4.686655 3.649307 4.181016 4.870768 6.128793 5.973662 4.823262 4.033961 3.919540 4.942471 5.437985 6.473277 6.402840 4.581671 4.611964 4.153908 4.037623 3.554781 3.662080 3.183678 2.223747 3.064409 3.085675 2.748890 2.334959 2.301180 5.162218 4.001740 3.001178 4.176235 5.342894 4.423809 4.525376 3.808479 2.970658 3.042375 4.435793 3.922838 2.116140 2.745599 3.019453 3.409070 3.708283 4.343578 4.010778 3.022919 3.225816 2.813688 2.088146 3.095932 2.999381 3.699767 3.284807 2.841857 1.864012 1.036985 2.773961 3.923323 3.809109 4.971860 4.096271 2.543271 2.186279 2.641513 2.974604 2.392720 4.372056 3.934336 2.185106 0.672895 -0.212171 0.422804 0.815783 -0.228155 0.814253 0.646045 0.347000 -0.128835 -0.732354 -1.017524 -1.811366 -1.894013 -0.839304 -0.842492 -0.744967 -2.423142 -2.014676 -1.973377 -1.994586 -2.756661 -2.437595 -1.388489 -1.907962 -2.133463 -1.740173 -3.057695 -3.135606 -2.373743 -0.699757 -1.666943 -2.198656 -1.982602 -1.352486 -0.929970 -1.653752 -2.081063 -3.121623 -1.942315 -1.413060 -0.866649 -0.211300 -1.407252 -2.767253 -3.748590 -3.402605 -1.103803 0.164365 0.907742 -0.220886 -1.741015 -3.747264 -3.270138 -1.896478 0.466919 1.145155 0.417505 -0.368904 -0.283986 -0.739075 0.103888 1.251323 1.900853 1.420734 1.802225 1.344671 0.366773 -0.460537 -0.640163 0.102424 1.513769 1.979282 0.720978 0.413267 -0.060547 0.424119 0.627814 0.657971 0.633880 1.458032 2.279410 2.760013 1.480819 1.474033 0.655434 1.736194 3.288730 2.595836 2.124138 2.268326 1.722667 1.637198 1.065889 1.529258 2.381689 2.496780 1.775927 0.765998 1.818806 0.390026 1.213794 2.071023 2.547879 1.009469 0.966859 1.183480 1.413137 0.184940 0.598903 1.597473 2.683709 1.906200 1.645600 1.245604 2.532738 0.897805 -0.550780 1.949928 1.602757 2.058439 1.464693 1.279990 0.563557 -0.483911 0.623134 2.417556 1.847521 1.816017 0.764650 0.977858 0.506222 1.414195 1.989723 0.959363 1.106126 1.033436 1.020125 1.359781 0.574501 0.826007 0.742235 0.524653 1.473219 1.862450 0.854591 0.244280 -0.662555 0.110830 0.328760 1.049070 0.268198 0.137431 -0.002325 -1.608347 -2.661550 -2.178551 -1.109419 -0.583577 -1.618591 -1.417520 -1.014754 -0.870170 -1.571341 -1.116054 -0.780703 0.436320 -0.114083 0.117173 -1.014660 -2.209301 -2.081135 -0.195100 0.034668 0.290322 -0.818284 -1.227148 -1.470191 -0.939247 -1.255198 -1.414181 -1.290060 -1.234856 -0.759477 -0.250965 -1.375574 -2.085767 -2.083997 -2.251180 -0.935068 0.838974 0.050486 1.346280 0.244750 -0.187613 -1.539003 -0.146040 0.333239 0.798805 1.047523 0.820341 0.402850 -0.480805 0.043034 0.516916 1.413648 0.432003 0.955990 1.380777 1.351252 0.973734 1.124313 0.720588 1.393530 1.230754 0.592171 -0.513772 -0.786467 -0.473239 0.787588 -0.146877 0.463787 1.556970 1.162570 -0.391769 -1.055800 -0.645652 0.617667 2.229398 3.335596 2.342487 0.388949 -0.930982 -0.742271 -0.530681 -0.235319 -0.408597 -0.322127 -0.879772 -1.574829 -2.996055 -2.999933 -2.698336 -3.111935 -2.171653 -1.156622 -1.320794 -2.281320 -3.303273 -3.348300 -2.317379 -1.640893 -2.046294 -2.673261 -3.132060 -1.934001 -1.695264 -1.583105 -1.622953 -2.381863 -2.105108 -2.708916 -1.266779 -0.445790 -0.767595 -0.659775 -1.195876 -2.015188 -1.569152 -1.112458 -0.280064 0.179737 1.286211 0.179160 -1.071848 -0.176176 1.315481 1.411154 1.453043 2.472810 2.212460 2.176375 2.895534 3.716917 3.991645 3.795097 4.633754 4.331500 3.996947 4.072982 4.880870 4.958754 4.130782 3.486824 2.392525 3.316280 4.332750 3.870221 3.022093 2.399335 2.580923 2.263679 1.510916 1.728036 2.025845 1.247489 0.863146 0.369684 -1.160317 -0.394062 0.525813 0.063098 0.720403 0.015097 -0.677513 -1.229219 -1.557703 -1.083601 -0.149020 0.404538 0.783617 -0.115997 0.121347 -0.081953 -0.903264 0.101905 0.809085 1.080320 1.758501 -0.085248 -0.584964 -0.680356 -1.567855 -0.563590 0.355125 -0.495909 -1.291453 -2.223875 -2.818916 -2.994558 -2.955017 -2.536799 -3.256111 -2.801949 -3.233112 -3.671240 -3.790693 -3.570859 -4.231059 -4.642541 -3.964831 -4.230127 -4.568949 -4.108312 -4.887422 -5.777634 -6.743530 -5.176864 -4.261280 -3.018812 -4.746324 -4.792056 -5.970202 -6.471075 -6.124478 -4.596293 -3.328908 -3.592817 -4.078435 -5.829412 -6.066517 -5.459700 -4.671706 -3.890894 -3.342428 -4.737832 -5.096455 -5.162370 -4.339096 -2.661459 -2.654097 -2.765049 -2.390871 -2.958658 -2.258776 -0.688371 0.227377 -0.575045 -0.964049 -0.607502 -0.790270 -1.302199 1.432567 1.590846 1.310234 0.608873 0.336370 1.241182 1.754429 1.511788 2.628109 2.523671 2.948425 2.762846 2.284923 1.175838 1.991395 2.891905 3.165904 0.500439 1.275307 2.091569 2.197909 1.464751 0.758184 -0.793844 -1.037345 -0.196387 0.089591 0.304084 -0.487364 -0.703694 -1.263332 -1.702016 -1.627985 -2.029563 -0.897610 0.327794 -0.253625 -1.307066 -1.429472 -0.536126 -1.053202 -1.883229 -1.222829 -1.169127 -0.694422 -0.289341 -1.064292 -2.768938 -3.814846 -4.417736 -3.922564 -1.960035 -0.558542 -2.284033 -2.870089 -3.915855 -4.181238 -3.053386 -3.186234 -1.961001 -2.925848 -3.232759 -2.197764 -1.931377 -2.134805 -2.670289 -2.320990 -0.387123 -0.125743 0.805011 1.615712 0.278648 -0.275542 0.201587 1.089217 2.318084 1.978640 2.474438 2.161642 0.308425 -0.472350 0.775268 1.890272 1.825060 1.731556 2.981615 0.890701 -0.464032 1.673024 1.838030 1.906297 2.198813 3.699442 3.587724 1.679196 1.692962 2.122438 3.352139 4.218962 4.029749 2.921867 2.826003 2.191808 2.696466 4.003940 3.551066 3.289136 3.714725 4.315618 4.267814 3.583855 2.469775 1.969408 2.931503 3.258004 3.208499 2.991332 3.100083 1.905168 2.556666 2.756131 2.599169 1.611938 2.107068 2.089842 1.680192 2.921322 4.819236 3.932599 3.255460 3.195320 2.773825 4.257040 5.723372 7.080183 5.536632 4.353130 3.879368 3.477372 3.990516 4.048283 4.558096 4.102670 3.020448 2.555437 1.963101 2.192985 2.492808 2.970732 3.070713 2.584707 3.519058 3.102284 1.826946 1.079321 1.795730 1.928911 2.060504 3.474630 3.794903 3.375288 3.032383 3.393437 4.789111 3.888029 4.471406 5.256120 4.218509 4.547345 4.380940 4.989628 4.356352 2.988969 4.473878 4.626112 4.740360 5.702018 4.615610 3.817029 2.982144 3.847605 3.998398 5.234865 4.567884 4.688417 3.763948 3.473152 2.279927 2.399894 2.895606 2.313065 2.699083 3.158863 2.246745 2.200461 1.508938 2.693496 2.987586 3.184083 4.090502 4.073088 5.331406 3.613960 2.641058 2.923130 2.296671 3.155298 3.549193 3.015485 1.934441 0.483875 -0.146573 -0.404427 0.171871 -0.076502 0.338245 0.487984 0.339819 0.023063 -0.594675 -1.122685 -2.121198 -1.069890 -2.041805 -0.863840 -0.193675 -1.521404 -3.333056 -4.303716 -3.647931 -2.556682 -0.804165 -0.934635 -1.812698 -3.042422 -3.192282 -3.332512 -2.015536 -1.957333 -2.734754 -2.893906 -2.578498 -2.775202 -2.811806 -3.163489 -3.522692 -3.290028 -1.811579 -1.467103 -1.945800 -0.933406 -2.331417 -3.041435 -2.200570 -1.554426 0.005141 -0.074139 -0.774897 -1.405883 -1.550988 -2.191488 -1.383075 -1.302919 -0.329748 -1.569103 -0.924127 -1.491888 -1.480079 -2.877745 -2.335084 -1.522103 -1.369426 -1.347778 -1.296668 -1.548289 -2.104745 -2.510615 -2.468189 -2.808372 -2.425417 -1.011933 -1.131295 -0.753194 -1.437385 -3.125138 -3.726522 -3.148541 0.053158 0.357606 -2.314106 -2.475183 -3.566898 -3.398689 -3.603165 -2.102803 -1.702304 -3.364223 -3.270574 -2.998297 -3.273444 -3.834961 -3.771286 -3.995867 -2.588647 -1.998058 -2.168824 -2.782473 -3.629217 -4.982149 -5.355595 -3.807067 -2.344431 -2.977836 -2.803881 -3.540845 -4.519944 -5.386665 -4.257393 -3.361152 -3.288883 -3.770708 -3.773237 -2.552113 -2.621159 -2.693151 -2.426813 -2.386742 -3.287861 -2.130405 -1.194645 -0.582528 -1.601825 -1.369992 -2.533862 -2.790822 -2.789645 -2.091648 -0.458532 -0.104838 -2.374810 -2.987493 -3.232869 -3.600568 -2.979322 -2.847507 -0.868431 -0.763833 -1.575641 -1.872098 -2.184485 -2.580513 -2.588190 0.068960 1.308938 0.757590 0.192538 0.320355 -0.273018 0.484822 1.269973 1.980237 1.884288 1.747088 1.238239 0.661627 0.758701 0.653189 0.520396 0.381239 1.466537 1.947250 2.073980 1.083470 1.098868 0.208834 0.532693 1.305068 1.725026 1.114295 0.937703 0.718589 0.440292 -0.075579 0.903093 2.501557 1.742585 2.113288 2.365989 1.341637 0.731096 1.448816 2.566353 2.707496 2.669872 2.984388 2.294197 1.683474 3.190507 3.033536 4.303231 5.334785 5.171858 4.461100 4.730149 4.775721 4.725791 4.366927 5.557657 5.758628 5.022814 5.886858 4.671888 3.923611 2.773484 2.172658 3.503154 4.178559 3.544711 3.392548 2.245807 2.035622 1.522834 1.503259 3.220067 4.493037 2.783935 2.094960 1.846552 2.145055 1.938492 2.318098 3.186431 3.369323 2.266455 1.688683 0.831630 1.519755 1.095675 2.356262 2.411897 1.942110 1.199176 1.177424 1.466908 1.580811 1.957382 1.217379 1.221541 1.400240 2.231289 1.699171 1.126388 0.234790 0.628585 0.053889 1.018619 2.285962 3.282379 1.557994 1.096251 0.259179 1.228403 0.453550 0.993514 2.356771 1.950209 1.224236 0.245494 0.124516 0.230299 -0.502132 -0.074088 1.229130 1.591211 1.283941 0.387425 -0.912817 -1.211941 -1.191943 0.492009 1.024469 1.743952 1.173389 -1.089623 -0.342676 0.554402 0.804072 1.332050 0.826556 0.813277 0.935112 0.785033 1.457630 0.953286 2.022526 2.321946 1.849527 1.310524 1.503829 0.950800 1.585968 1.260405 0.894737 0.054976 0.279966 1.013498 1.143871 0.583841 0.232173 0.979687 1.309788 2.310120 3.096195 1.674689 1.355564 0.886749 2.056476 1.693795 1.825778 3.404954 2.873643 1.755899 0.751305 1.038410 1.180024 1.455059 1.071249 1.974477 1.251151 0.965597 0.692652 0.718756 0.910679 0.944578 0.427474 1.401847 0.991616 0.119993 1.285472 0.141807 -0.717375 -1.610574 -1.415273 0.097287 0.487880 0.245199 -0.671368 -2.728216 -2.402518 -1.122046 -0.484491 -0.386338 -1.015294 -1.612180 -1.258366 -2.729256 -2.808054 -1.822473 -2.277952 -2.338253 -1.357178 -0.515720 -1.468148 -3.164761 -2.788235 -2.075284 -1.743341 -0.324445 -0.531384 -2.181406 -3.157054 -3.209456 -2.882949 -3.514119 -1.863634 -2.248555 -2.695218 -3.155793 -2.537242 -3.379059 -2.881819 -3.416545 -2.649075 -3.076385 -1.626252 -2.683873 -3.681469 -3.039702 -2.206841 -3.392272 -2.063286 -1.338010 0.681867 -1.623756 -2.765496 -2.849109 -3.015238 -2.202673 -1.706782 -1.590897 -1.920033 -2.471885 -2.862596 -3.399525 -3.723147 -4.464519 -3.457278 -2.185463 -2.716937 -2.768079 -3.331996 -3.519560 -3.574055 -2.984846 -3.411283 -3.530932 -3.640889 -3.103217 -3.640139 -4.132945 -4.191339 -4.317969 -2.995184 -1.875929 -2.475308 -3.621468 -3.797835 -3.511421 -3.050893 -3.097304 -3.348158 -3.121652 -2.110300 -1.702564 -3.065697 -4.372572 -4.551295 -3.698947 -2.005452 -1.147163 -1.704947 -2.837815 -4.335046 -3.820344 -3.559943 -1.265349 0.282783 -0.179928 -1.448641 -2.311520 -3.232831 -1.443420 -0.084446 -0.227302 -0.184047 -0.020770 -0.324692 -1.442208 -1.388088 -0.869133 -1.080518 -0.404572 1.371902 1.746641 0.069547 0.540864 -0.521797 -1.511256 -1.594099 0.401504 0.866301 1.354738 0.949572 0.003096 -3.000341 -2.703323 -1.394892 -0.980137 -0.999613 -0.956658 -1.679497 -2.265796 -2.187262 -1.890135 -1.894758 -1.889890 -2.129617 -1.194021 -0.810936 -1.121348 -2.927193 -2.765605 -2.984863 -1.514259 -1.065893 -0.390223 -0.975779 -0.456980 -1.653912 -1.094513 -1.027101 -0.220073 -0.217051 0.129271 0.777566 0.831929 -0.860391 -0.445918 -0.498677 -0.757632 -1.570280 -0.191685 0.122829 -0.510907 -0.768551 -1.588542 -2.312816 -2.348162 -1.655667 -0.570660 -0.593624 -1.555666 -1.464516 -1.146100 -1.736310 -0.696909 0.205283 0.490662 0.425906 -0.222608 -0.877183 -1.904317 -0.959988 0.622555 1.781724 3.379541 1.770928 0.625892 0.837018 0.873348 2.134156 5.000059 5.020049 3.954442 2.466931 3.553870 3.157759 3.111914 3.161129 3.529293 4.080873 3.721468 3.405439 1.688858 1.464228 2.209878 4.226563 4.321006 4.285108 3.504257 3.974032 3.697285 4.269718 4.189314 4.558740 5.707646 5.699412 4.525649 3.747710 4.104010 2.490287 2.172762 2.966315 2.376142 2.256943 2.567557 2.818606 2.573668 1.289978 1.498453 3.062599 3.241997 4.137228 3.384042 2.867650 3.194179 3.409309 3.409730 2.793217 2.929935 2.942750 2.389457 3.159191 3.984993 4.394138 4.135296 4.402704 4.298849 3.938504 3.608784 4.796924 4.846695 4.243152 3.180737 4.292633 4.143692 3.451294 3.426135 3.306371 2.639514 2.602107 2.477468 2.936018 3.525623 2.809513 2.671078 1.203164 1.622680 1.205680 2.507385 1.877481 1.995308 1.394649 0.405983 -0.152172 0.058215 -0.248822 -0.119032 0.333980 0.305972 -0.433460 -0.493332 -0.937621 -0.915871 -1.199630 -1.174237 -0.180724 -0.899963 -1.261463 -1.088415 -1.404106 -2.087113 -2.471599 -2.987550 -3.060922 -1.809714 -2.121602 -2.198970 -3.857068 -4.093277 -4.597724 -4.766246 -3.840815 -3.282154 -4.050696 -4.044438 -5.091132 -4.454776 -2.552036 -1.665400 -2.031743 -2.945408 -2.699618 -2.377504 -1.555942 -0.274986 -0.369965 -1.700222 -1.606685 -1.885481 -1.250995 -0.781141 -1.027752 -0.808457 -1.388610 -2.392069 -1.486745 -2.309221 -0.904365 -0.985540 -1.529996 -2.106109 -2.550829 -1.125436 0.426613 0.227573 0.030289 -2.231894 -1.677491 -0.960756 -0.142422 1.006049 0.382168 0.411419 0.108566 -0.539479 0.524663 0.398977 -0.260269 0.710044 0.372410 0.131464 0.235459 0.304803 0.790556 0.902577 0.716756 2.505864 1.773826 0.940496 0.382917 1.415674 1.305340 1.404671 1.390567 1.216713 0.817886 -0.326300 0.367141 -0.120829 -1.596904 -1.817399 0.267080 0.644455 -0.003889 -1.552606 -2.451498 -2.552084 -1.650962 -0.751744 0.106035 0.300202 -0.089859 -0.700749 -1.266418 -0.856166 0.338453 0.579124 -0.284585 -0.424279 -0.472614 -1.309740 -2.651139 -1.328886 -1.543554 -0.798891 -0.374542 -0.455689 0.636776 -0.455128 -0.824918 -0.683656 -0.253210 0.839391 0.986807 0.467391 0.248532 -0.014737 -0.229586 -0.451288 -0.551765 -0.722700 0.161638 -0.464356 -0.864972 -1.682654 -1.874387 -1.627322 -0.802825 0.329446 0.517028 0.030161 0.882310 0.180132 1.049331 0.985751 1.385252 0.859475 1.629929 2.299804 1.737959 -0.912891 -0.511866 0.144491 1.040784 2.177694 2.442740 2.278410 0.451060 0.113942 0.717042 0.246517 0.565233 1.948355 1.461033 0.621282 -0.879941 -0.835814 -1.846967 -1.669950 -0.991154 0.468122 0.068418 -1.293333 -1.594026 -0.594472 -0.087074 -0.699657 -0.524279 -0.581870 0.088299 -0.024532 -0.564472 0.008764 -2.032842 -2.956572 -0.926049 0.321946 0.910691 0.165437 -1.072971 -0.956982 -1.174045 0.345869 1.618943 1.129215 0.333845 0.096669 -0.290798 -0.182279 -0.918646 0.832648 1.242054 0.436433 0.891943 1.860429 0.602050 1.089013 1.166663 3.061709 1.722389 1.185130 2.123757 2.381398 1.252091 0.544136 -0.187427 0.117364 0.140495 0.676089 1.169093 -0.403602 -0.414823 0.253816 0.576703 0.741810 0.936855 -0.144162 0.003686 -0.832457 -0.200942 0.050126 -1.011331 -1.027098 -1.198825 -1.338705 -0.923662 -0.637589 -0.561551 0.094684 1.671315 0.815471 0.465281 0.544541 -0.022452 0.294718 1.666766 2.873038 2.710931 2.646116 -0.029979 -0.067457 1.051906 2.209878 3.120914 3.128115 1.851986 1.540392 0.608744 2.818858 2.855487 3.591755 3.871710 2.732580 0.770837 0.877649 2.590658 4.112812 3.691169 3.215648 1.439916 1.450324 3.005276 4.823929 4.405707 3.896227 4.237099 5.013438 4.383559 4.205821 3.236952 3.224283 3.548666 4.045936 3.526063 2.600167 2.556171 3.275468 3.862705 3.528170 2.983709 2.535203 2.233312 3.351380 3.489034 2.741419 1.726141 0.558009 1.039336 1.522281 2.268151 2.489103 1.669564 1.286545 1.334655 -0.432246 -0.580463 0.285105 0.677219 1.332106 0.903357 1.083896 1.371762 -0.435830 0.455236 0.709467 1.026517 2.313517 1.094807 1.061248 2.044952 2.317934 1.394814 1.099776 2.144463 2.186219 1.802194 2.538383 3.814031 3.055753 2.327267 2.226840 1.469369 2.384420 3.564285 4.691638 3.987827 1.886212 1.988743 1.385124 1.258255 2.379717 2.011859 2.312087 1.839466 1.228532 0.014543 -0.677561 -0.510154 -0.364382 1.565874 1.489399 1.381460 0.644724 -0.913292 -1.153489 -0.936326 0.286960 0.790358 0.195310 0.546558 0.689372 -0.611877 -1.358434 -0.510955 0.422341 1.131928 1.079817 1.087310 -0.145125 -1.673162 -0.147550 1.114096 1.610775 1.246201 0.936842 -0.236668 -1.004704 -0.784257 -0.126294 -0.442258 -0.171085 -0.466995 -1.275251 -0.206269 0.448632 0.516278 -0.101253 0.149228 1.220704 1.676951 0.611572 2.860475 1.701426 0.228168 0.766511 0.785269 0.082238 -0.121335 1.608502 1.576921 0.418659 0.382121 1.536276 1.670160 1.546147 2.634306 1.859631 1.882032 1.861410 2.033635 2.040056 2.150782 1.848036 3.633371 2.237699 2.137795 1.639313 1.172281 0.239390 0.755474 2.094940 1.832270 1.575130 2.637628 0.501293 1.008969 1.977115 3.455836 3.070563 3.016504 2.832892 2.002958 1.616348 2.156568 3.948394 3.571895 3.545874 2.473603 1.653030 2.176947 2.440054 2.233624 2.118199 2.561820 2.913428 1.885384 1.329774 0.846310 0.769903 0.446983 0.744974 2.424020 2.546866 1.831114 1.078734 0.366271 0.395377 0.757537 2.328163 0.849680 -0.075823 -0.570096 -0.505273 -0.464758 1.125542 1.467278 0.672483 -0.360743 -0.568650 -0.668651 -0.528309 -1.087298 -1.538025 -1.332442 -2.119936 -3.148515 -3.063626 -2.643253 -3.282664 -2.824034 -3.257386 -2.610880 -1.696330 -3.269866 -3.316850 -2.599085 -2.865056 -2.782122 -2.542813 -1.345569 -1.251801 -2.067090 -1.608576 -2.159349 -3.658171 -3.094947 -0.959668 0.806457 0.586871 0.398321 -1.607346 -2.525989 -2.147108 -1.105627 -0.889589 -0.056680 -2.058689 -2.830778 -3.099707 -2.043976 -2.121769 -2.448264 -1.139025 -0.704074 -1.681561 -0.932929 -0.056758 -1.456029 -1.533062 -0.757189 -0.305961 -0.471125 -0.878340 -0.380749 -0.786858 -1.703377 -2.169616 -0.978411 -0.013504 0.176982 -0.146390 -0.207541 -1.191299 -1.878222 -2.559236 -0.495679 -0.192932 -0.757012 -1.902356 -2.630302 -3.119742 -3.514990 -2.968221 -1.754900 -1.632415 -2.238974 -2.753145 -3.541846 -3.250941 -2.158921 -2.134936 -1.679460 -1.538981 -1.597586 -2.602168 -3.104425 -3.102521 -3.022555 -2.558876 -1.930279 -1.879156 -3.537283 -3.605714 -3.463345 -4.419062 -3.854511 -3.084210 -2.712990 -3.202875 -3.244144 -3.562837 -3.803016 -3.396173 -3.111348 -2.504716 -2.117465 -2.431141 -2.196095 -2.545488 -3.253048 -3.492746 -3.051206 -1.196359 -1.172013 -2.225630 -3.101601 -3.668599 -4.196286 -3.064992 -1.726075 -1.316887 -2.023893 -2.664167 -2.645182 -2.658221 -1.386131 -0.683516 -1.335441 -1.155822 -1.902770 -1.800822 -1.888064 -1.130316 -1.475833 -0.803471 -0.455692 -1.050224 -1.089501 0.292656 -0.107973 0.119271 1.053496 0.823875 0.551490 -0.063322 -0.074442 0.394487 -0.526398 -0.788725 -1.277110 -1.086140 -0.579276 -0.817313 -2.569996 -3.047237 -3.134160 -3.006443 -2.742694 -1.997633 -1.031130 -1.743328 -1.677430 -1.413189 -1.728174 -2.719883 -2.364088 -3.156495 -2.826902 -3.316931 -2.845465 -3.003831 -3.058857 -4.422873 -5.804625 -6.153333 -3.790999 -2.514154 -2.469249 -3.518595 -3.911096 -4.707094 -5.626244 -5.043148 -3.144431 -3.905951 -4.661167 -4.904793 -4.499735 -5.373673 -4.981348 -4.312140 -3.568068 -3.151924 -2.640945 -1.882164 -2.869711 -3.210555 -3.426993 -2.857343 -2.041899 -0.399463 -1.271531 -1.489501 -2.274910 -2.645209 -3.264434 -2.335982 -1.738413 -0.840484 -0.228020 0.583990 -0.606521 -1.437406 -0.438394 -0.162232 2.074995 3.000766 3.615272 2.804679 1.466594 0.139744 0.334968 2.067194 2.932971 3.468357 2.071319 0.166435 2.010182 2.647357 2.634597 3.220164 2.924445 3.384744 1.831271 2.866184 3.206983 2.184029 2.453850 2.952418 2.534858 2.955422 2.319432 3.365473 2.818713 2.550078 3.310588 3.083758 2.931246 3.392862 2.099871 1.561275 1.930138 2.775358 3.511234 3.035840 3.060708 2.335130 1.717405 0.792446 0.486091 1.802196 2.873889 2.522185 1.903282 0.287315 -0.411848 -0.144041 1.078059 1.464118 2.345250 0.232322 -0.303179 0.149603 -0.822229 -1.347072 -1.698919 -0.245870 0.118513 -1.470842 -1.113929 -1.495391 -1.368015 -0.926847 -0.277884 1.049056 0.820152 0.050416 -0.410489 0.021973 0.877702 1.400127 1.123789 1.653810 0.786143 -0.013438 -0.665852 0.879668 0.486681 -0.414133 -2.272705 -1.098078 -1.347736 -0.938156 -1.035364 -0.138759 -1.381021 -1.926171 -1.922619 -0.802088 -0.477818 0.329173 -0.461860 -0.881038 -1.092044 -0.948436 -1.077280 -0.030231 1.238466 1.628242 -0.668866 -0.905617 -1.322973 -0.432548 -0.192211 0.204881 1.313027 -0.431172 -1.294759 -0.375890 -0.725804 -0.930473 -1.152571 -1.723758 -1.207164 -1.110435 0.292805 0.921143 -0.093433 -1.086711 -1.145078 -0.551816 0.028596 0.172261 1.487553 0.565117 -0.400787 -1.915476 -2.139163 -1.928807 -1.674793 -0.129236 -0.375524 -0.780939 -0.242082 -0.065555 0.233596 0.359260 0.178033 2.334362 2.167362 2.432923 1.766191 1.365127 0.832698 0.159999 -0.526384 0.388944 0.221957 0.781149 1.256271 0.667111 -0.394929 -0.067468 2.126569 2.294239 3.095724 2.884778 1.852308 1.770083 1.334956 2.632780 3.447625 2.914732 3.091703 2.092006 2.541475 2.328088 1.763185 2.401465 3.085352 3.894760 3.685724 3.944304 3.242633 2.247807 2.359330 2.526198 2.271925 3.848371 3.632159 2.936460 2.117112 1.603171 1.729244 1.665675 3.172103 3.704258 2.437612 1.162445 1.624200 1.383312 1.801154 2.419333 2.571370 1.138921 -0.148744 -0.560787 -0.694740 -0.146389 0.098853 0.467737 -0.664287 -1.699737 -2.392005 -1.961513 -0.619332 -1.102185 -1.644046 -1.203388 -1.855161 -2.468939 -2.543335 -1.811736 -2.142620 -2.003934 -2.750157 -3.279604 -3.553532 -3.137527 -2.787739 -1.881029 -2.085553 -2.315647 -2.495144 -2.572023 -1.973094 -2.013403 -0.878245 -0.689304 -1.517038 -2.521704 -1.908643 -2.368788 -2.519368 -3.294458 -2.359455 -1.672986 -2.196786 -1.844041 -1.877327 -2.290726 -1.658796 -2.493828 -3.031132 -2.770137 -1.643197 -0.413250 -1.386148 -1.746976 -2.539802 -3.109611 -2.032074 -1.362648 0.059922 -0.415412 -0.814418 -0.505618 -2.128733 -1.328719 -0.214812 0.456876 0.275330 -1.098490 -1.217890 -1.380155 -1.821289 -0.423565 -0.065121 0.195815 -0.809722 -1.616283 -1.069970 -0.571848 -0.684032 -0.211796 0.470586 -0.467868 -1.575493 -1.594361 -1.710533 -1.836254 -2.083194 -1.639831 -1.736629 -2.974497 -3.645643 -3.261530 -3.202366 -3.337833 -2.989621 -2.987854 -2.689872 -3.414621 -2.500724 -1.022403 -2.410448 -2.993447 -2.140738 -1.229278 -2.855997 -4.269722 -3.755633 -3.350060 -2.865508 -1.454577 -2.344960 -2.632728 -3.896453 -2.425239 -2.269521 -1.686687 -0.998745 -2.558860 -3.540273 -2.415030 -1.742305 -1.638376 -2.108778 -1.658668 -2.029584 -0.726568 0.139405 -1.085266 -1.510889 -0.644562 -1.075353 0.030236 0.235026 -1.210839 -2.603895 -2.440193 -1.467748 -0.881631 -0.344843 0.433978 -0.238016 -1.120354 -1.178840 -0.850856 -0.806588 -0.090187 0.078910 0.209608 0.013041 -0.348763 -0.951198 -0.865660 0.227840 0.491473 0.314770 0.567756 1.579343 1.470935 1.978905 2.017305 3.238440 2.998006 3.276617 3.190179 3.878696 3.982253 3.334693 2.483802 3.083977 4.475374 4.596254 4.566927 4.712397 4.266216 4.177153 4.446641 5.094861 4.600741 6.107073 6.072478 4.751295 4.999430 5.605545 3.488353 4.707317 6.124474 5.673990 4.974454 5.445832 4.896065 4.761751 5.047131 7.202396 7.793142 6.324699 5.213667 5.379803 5.588065 6.354976 6.507225 6.769269 6.437921 5.629737 4.483226 4.760960 4.078778 3.303115 3.245239 3.978467 4.441113 4.978418 3.118989 2.368080 1.182475 1.496395 1.429228 2.247505 2.399316 1.524571 0.286134 0.442904 0.335317 1.456363 -0.054680 -0.534275 0.078747 1.089033 1.511894 1.406407 -0.590980 -1.702380 -1.423089 -0.845184 -1.173566 -1.591006 -2.116771 -2.118281 -1.128930 -1.513141 -2.676288 -2.480575 -1.960339 -1.121055 -0.572207 -0.463584 -0.779254 -2.023851 -1.405354 -1.268557 -0.568630 1.696175 1.002268 -0.559824 -1.673030 -1.939043 -2.209327 -1.213232 0.723955 -0.198641 -2.187007 -2.905388 -2.744984 -2.366826 -2.424248 -2.897742 -2.082921 -2.219914 -0.939091 -1.108276 -2.503478 -1.981562 -2.151774 -0.719786 -0.095248 -0.037023 -0.690523 -1.547224 -0.845739 0.044689 -0.081366 -0.466567 -0.487274 -0.223744 -1.294226 -0.121156 -0.473378 -1.501499 -2.527480 -1.482551 0.630554 0.390058 -1.377315 -1.861186 -2.430607 -1.097117 -0.912480 0.080324 -0.045874 -0.766882 0.018064 -0.928062 -0.661513 -0.756126 -1.614802 -1.610745 -0.878441 -1.310113 -0.486509 -0.922544 -1.584836 -0.699158 -1.758285 -1.635303 -0.567169 0.169486 -0.093080 -1.306530 -1.276966 -2.187682 -3.333906 -1.441247 0.074520 0.825875 0.497141 -0.836150 -1.748328 -1.511326 -0.853369 -0.115920 0.098560 -1.488940 -0.138270 0.821710 0.008858 -1.018858 -1.477333 -1.219281 -0.659808 -0.394904 0.125119 -0.434072 -1.536125 -2.560377 -2.093026 -1.420687 -2.285950 -2.908447 -1.520254 -1.152921 -1.298764 -1.312736 -1.426952 -1.133519 -0.322269 0.054789 0.900645 0.753297 -1.304820 -1.925963 -1.378660 -0.814760 -0.257408 0.115319 0.350404 0.086755 -1.503079 -1.536885 -1.799586 -0.553256 0.644991 0.884835 2.641295 2.059253 -0.131222 -0.913483 -0.099537 0.951822 2.464127 3.051539 2.770527 0.549712 -0.059067 -0.232396 0.248241 -0.062222 0.455013 0.626798 0.449593 0.189803 0.082372 0.612443 0.725564 0.074390 1.653119 1.526259 1.156345 0.802579 0.565491 -0.187211 -0.952669 -0.412213 -0.523969 -1.499428 -1.385369 -0.038860 -0.754920 -0.556902 -1.144312 -1.145042 -2.461533 -2.814813 -1.897818 -2.124337 -2.037543 -1.439248 -2.146630 -2.103523 -3.387299 -4.141394 -3.729115 -3.344973 -2.414605 -2.339992 -2.687609 -3.137680 -4.001950 -4.397320 -3.649659 -3.145423 -2.572567 -1.288939 -2.679231 -2.197800 -2.676106 -2.841813 -2.864866 -1.718741 -1.231870 -0.548798 -0.462959 -0.769580 -2.447707 -3.566691 -3.781594 -2.971047 -2.247215 -1.020550 -0.425799 -1.931540 -3.078802 -3.573143 -2.500478 -0.683446 0.239926 0.084698 0.506179 -0.042633 -0.196948 -0.518915 -1.399479 -1.557457 -1.161131 -0.582507 -0.499741 -1.758672 -2.595641 -3.347278 -2.875250 -1.855797 -0.612706 -0.234670 -1.042248 -1.564326 -2.252433 -1.862604 -0.446886 0.183220 -0.192572 -0.597627 -0.071197 -0.156832 -1.174907 -0.664191 0.313998 0.803587 1.578746 0.855677 0.046279 0.050824 1.265044 0.514334 0.884802 1.105716 0.744546 -0.056392 0.583664 0.686200 1.046797 1.556459 1.637149 1.892958 0.963528 0.268118 0.974404 1.716486 1.634168 2.388779 1.150974 1.220873 0.968998 1.443444 2.994174 2.633484 2.488055 3.443163 2.059258 2.583465 1.581670 0.363329 1.200064 0.792005 -0.534926 -1.307992 -1.242164 -0.992654 -2.362150 -2.234989 -2.164545 -1.739753 -1.873448 -0.858567 -0.728025 -1.751293 -3.996420 -2.503011 -1.741585 -1.823083 -2.029705 -2.651474 -3.298651 -4.100667 -4.232407 -3.114563 -2.365655 -1.835700 -1.938026 -3.279629 -3.494045 -3.823275 -3.049815 -1.897248 -1.436253 -1.874715 -1.828085 -1.754373 -2.561226 -2.450678 -2.902242 -1.507454 -0.568832 -1.233577 -1.670511 -2.333260 -2.889252 -3.738917 -3.217718 -1.384891 -1.661186 -1.635776 -1.990754 -2.659552 -3.780203 -3.395045 -1.412286 -1.788455 -2.628705 -1.570284 -2.019547 -2.240548 -1.866629 -1.063588 -1.181852 -1.916704 0.362813 0.370729 -1.370346 -1.388317 -1.292558 -1.606677 -1.611413 -1.321877 -0.672489 -1.339023 -0.136051 -0.704831 -2.035893 -2.288894 -1.802217 -1.616131 0.350692 0.712325 0.035784 -1.940974 -2.987088 -2.381394 -0.633848 0.827051 1.816463 0.734418 -0.415039 -0.189392 0.585543 1.677071 2.546016 3.564926 4.265443 3.195471 2.990179 2.507605 3.123468 3.383086 3.919520 3.552964 3.577321 3.019007 3.979507 2.961260 1.764360 2.373161 2.013110 3.201707 4.201297 3.800819 2.893698 2.372901 3.546958 5.063469 4.894075 6.447897 5.322473 4.593018 6.170061 5.610215 5.456081 6.353711 6.494120 6.062640 5.406205 5.343775 4.598656 3.554242 3.106160 3.151444 3.661265 2.794601 3.396273 3.483451 3.795840 4.104176 2.817332 2.758190 3.454362 4.199718 5.748719 5.535670 5.781555 5.332926 2.878357 2.482789 3.377169 4.388819 4.410162 4.712258 3.975089 2.382278 1.824811 2.176302 3.256291 3.769170 3.312142 2.866493 2.456950 3.027065 3.191299 2.062815 2.833254 4.447255 5.334854 5.124744 4.353205 3.291960 3.236385 2.459573 3.404164 4.209264 4.543716 3.718479 2.409719 1.427953 1.026657 0.739626 2.006233 3.351628 3.869210 2.992866 1.647062 -0.813254 -0.722332 0.989282 1.820484 2.726256 2.990058 1.798911 -0.525194 -0.061149 0.793529 1.351807 1.347813 1.692153 0.935247 0.911229 1.532085 2.609474 1.664832 1.028349 0.143353 1.297058 2.832749 3.232277 3.016097 1.921007 1.157074 0.341416 0.574568 2.340762 3.401398 2.598678 2.562584 1.789059 1.709112 2.978905 3.433374 4.072950 4.543279 3.729345 1.636320 1.815598 2.118676 2.166285 1.949978 3.204907 2.646972 1.880083 1.488993 1.115830 0.207601 0.735758 1.506859 2.029644 2.410835 2.342071 0.560058 0.152447 -0.307276 0.064531 0.288076 0.876197 1.255455 0.914508 0.541090 0.205787 -0.355812 -0.123422 -0.546042 0.679734 0.315621 -1.343717 -0.032355 0.099166 -1.541485 -2.243733 -1.766355 0.999298 0.593052 -0.210373 -0.247478 -1.501041 -1.477549 0.152278 0.421609 0.167523 -0.902416 -1.188491 -1.541155 -1.517797 -2.020404 -2.643277 -4.076107 -3.204147 -1.513780 -1.792278 -1.922898 -3.157584 -2.647350 -2.324851 -1.261039 -0.455732 -1.323440 -0.940237 -1.130189 -3.050841 -2.485088 -2.689886 -2.682412 -2.242311 -0.388349 -1.531660 -3.927130 -3.968910 -1.022799 -0.535781 -1.156190 -0.719831 -0.079126 0.019948 -0.148836 -0.326188 -0.122154 -1.211096 -1.798005 -1.615617 -2.074125 -2.227705 -2.146822 -2.574820 -3.266744 -3.545178 -3.581857 -3.462493 -3.286922 -2.905073 -3.194256 -2.976553 -3.318703 -3.591049 -3.304190 -3.259141 -3.116898 -3.293963 -3.728724 -3.417978 -2.394202 -2.616414 -2.701219 -2.271392 -0.803399 -1.623478 -1.874402 -1.681689 -2.068758 -2.391220 -1.426501 -2.137115 -3.454145 -4.762597 -3.534737 -2.111739 -2.760025 -2.131264 -1.852572 -3.384026 -3.391910 -3.279271 -1.217521 -1.063675 -2.073644 -1.470878 -2.340367 -3.565926 -2.141502 -0.780868 0.042015 -1.208415 -2.507410 -2.085744 -2.001240 -2.648250 -0.908141 0.442979 1.530333 1.239415 -0.043790 -0.870757 -0.213256 1.472432 2.658233 2.588537 2.175893 1.893976 1.601095 0.999417 2.384125 3.092524 2.965447 2.977995 2.876064 1.999932 2.827641 3.554435 3.702416 3.327176 4.012222 3.549989 3.059973 3.874497 3.812862 3.007794 2.052097 2.601318 2.729731 2.960357 2.454248 2.490177 2.196587 1.696129 1.573995 1.711200 0.751810 2.379847 2.730654 2.189742 0.850792 1.237863 0.877261 1.291680 1.552633 1.819132 2.295772 1.535196 1.290706 2.709842 3.547606 3.756068 2.858536 3.439131 2.197291 2.038444 3.583343 5.597767 4.778952 3.508065 2.792023 4.130126 2.906459 3.728627 3.516078 2.762801 3.998917 3.094633 2.091233 0.861175 -0.122655 1.128719 0.676052 0.675009 1.077679 0.191085 -0.723016 -1.089505 -2.141557 -2.240619 -2.249030 -1.442358 -0.864992 -2.683011 -3.124302 -3.009506 -2.454351 -2.379985 -1.312265 0.101282 -0.329998 -2.715507 -4.000242 -4.093013 -3.716836 -3.880094 -3.151749 -4.976642 -6.664575 -7.076225 -8.348765 -8.315672 -6.578569 -5.580790 -6.300267 -7.389819 -8.016042 -8.405833 -8.036464 -6.576699 -6.209511 -7.031580 -7.754103 -8.628225 -8.422170 -7.160101 -6.789555 -6.908313 -7.264020 -7.617369 -8.289675 -6.924340 -5.670217 -6.501199 -7.228363 -7.980093 -7.986972 -5.583834 -4.499316 -4.797928 -5.617240 -6.214978 -6.518845 -6.771717 -5.736576 -4.458162 -3.738400 -3.872685 -4.176447 -4.452993 -5.644981 -5.678161 -3.905914 -2.041575 -2.433322 -2.872005 -4.412983 -5.063919 -4.360192 -1.817683 -1.142945 -1.962529 -2.251988 -2.550676 -2.778277 -1.363489 -0.681300 -0.783313 -0.467246 -1.059534 -2.903710 -2.108455 -0.636736 -0.729476 -0.445496 -0.168199 0.340326 -1.570424 -1.540186 0.866509 -0.013455 -1.008154 0.221257 -0.628748 -0.879726 -1.208438 0.217767 0.068934 -0.855891 -0.692723 -0.632749 -1.212152 -0.650410 -0.668735 -0.739661 -2.124665 -2.085601 -1.675942 -0.976230 -0.138818 0.928815 -0.212288 -0.652037 -1.175439 -0.289133 0.724135 1.760813 2.020795 1.579779 0.265049 0.927538 0.525986 1.083607 2.856174 1.215711 1.089211 1.689766 1.396142 1.982040 1.408405 2.039660 1.394262 0.543722 0.576895 -0.434943 0.984338 0.801494 1.180997 0.784005 -1.292083 -1.384523 -1.269337 0.084821 1.482942 -0.368017 -2.092525 -1.601122 -1.311935 -0.929898 -1.206682 -0.375090 0.168342 -1.505157 -1.666227 -2.228054 -0.967226 -0.080593 0.737094 0.641373 -0.441135 -1.356260 -1.053692 -0.240293 0.879357 0.692872 -0.215309 -1.461107 -2.012550 -1.334250 -0.511395 -0.361000 -0.701596 -0.670662 -1.687403 -1.405263 0.485841 0.987345 1.532280 1.165665 0.449465 0.234064 1.176168 2.903760 2.994569 2.392446 1.770321 0.888801 0.630888 0.442786 2.131535 1.974669 1.570233 2.345079 1.832209 1.124111 0.459993 0.603252 0.973485 2.023209 2.114486 1.339388 0.777855 0.404949 -0.091390 0.278713 0.182555 0.784837 -0.184835 1.208802 0.086070 0.054929 0.505392 1.498562 1.069979 0.675345 0.478595 1.958713 0.975398 2.584514 2.844619 2.714430 2.811706 2.820075 2.441415 0.769303 1.291821 2.739924 2.432817 1.469984 1.155997 0.247725 -0.234001 -0.598665 0.619531 0.005863 0.006952 0.563674 0.875384 -0.067406 -0.239664 -0.729876 -0.784971 0.038708 0.097393 -0.245418 -0.939099 -0.916546 -0.480024 -0.174270 -0.437570 -0.876390 -0.662877 -0.949873 -1.208444 -0.432348 0.386131 0.044738 -0.078826 -1.067681 0.129403 1.286032 1.862345 1.495466 0.075577 -0.161232 0.406001 2.074984 3.375895 2.799874 2.042385 1.509590 2.009088 2.102260 1.558187 1.356832 2.127844 1.990398 2.185456 1.176544 0.105766 0.712253 1.107796 1.291946 2.167386 -0.436902 -0.071582 0.660646 0.476400 1.059591 0.840646 -0.190054 0.541431 -0.713525 -0.108409 0.310129 -0.429661 0.047409 0.564873 2.040681 2.560207 1.204377 0.577999 -0.068825 -1.568666 -1.171553 0.466405 1.458276 0.982039 -0.000533 0.117410 -0.857996 -0.563849 0.692272 1.224026 1.561242 1.632918 0.701858 0.891832 0.978541 1.318257 1.627889 2.641923 2.174890 1.785999 0.780055 1.518070 1.367661 0.739941 1.181634 1.708906 1.798630 1.370953 0.495728 -0.020066 -0.961285 -0.344939 0.057536 1.267927 1.614067 1.405743 -0.043833 0.313276 0.993261 0.917299 1.926146 2.601570 1.926442 1.917103 1.198417 0.769338 1.148666 1.035734 2.229651 2.410917 1.893944 2.428662 2.631281 2.645736 4.331293 5.267252 6.384693 7.099022 6.683508 5.516645 3.552707 4.494186 5.434914 6.349994 6.231898 6.488019 5.051100 3.822343 3.276115 4.289626 4.362796 4.402793 5.376603 5.687249 4.391757 4.257716 3.388538 2.301089 3.435576 4.120315 4.653819 4.004905 2.524704 1.911962 2.165935 2.614251 2.013661 2.931440 3.360981 2.726521 1.614945 0.712505 0.519257 1.799833 2.491751 3.079676 1.859810 1.673163 1.470732 1.643269 2.181315 1.653295 1.533611 1.692884 1.872265 2.355032 2.093911 0.296294 -0.623587 -0.359572 1.910069 3.318018 2.900296 2.235392 0.187206 -0.424173 0.380865 1.660770 2.677819 2.327871 2.894802 2.268875 1.743241 1.844538 1.508208 2.048607 2.973271 4.123179 3.716299 2.494984 3.054017 2.391035 1.184659 2.537089 3.607562 3.641232 4.012575 2.771083 2.540487 2.747328 3.207260 4.181746 4.343617 4.220662 3.736405 3.183974 3.098378 2.393228 1.748359 1.433163 2.830044 3.932337 4.399723 4.100941 3.349365 2.033715 2.407476 2.514402 4.919829 6.142275 5.464381 3.909457 3.940901 3.307506 1.642229 2.482000 3.287876 3.585209 2.707450 3.040901 3.047272 1.569265 0.355087 1.553363 1.609302 2.324084 1.822684 1.073385 0.808893 0.810159 0.790518 1.058100 0.331899 1.061811 1.994381 0.535392 1.541878 2.348185 2.211977 2.108152 2.409893 2.467362 1.639837 2.350037 2.227225 1.540713 1.853012 2.116588 2.571512 1.929502 1.512759 1.594252 0.361670 1.023468 1.989601 1.820791 0.960730 1.344883 1.345886 1.430936 0.659923 0.532443 1.170148 2.453517 2.610110 3.426694 3.474941 2.726708 1.049694 2.174750 3.122915 4.090409 4.435965 4.279418 3.432131 1.161076 1.435350 2.735240 3.144740 3.226133 3.327243 4.225931 4.160130 1.808785 1.089362 1.133307 2.038386 3.825318 4.934024 4.190565 2.707110 1.774587 1.810670 2.088875 2.045827 1.150136 1.445373 1.586801 1.678142 1.700448 -0.036405 -0.104596 -0.858447 -0.857640 0.570294 1.296807 1.426340 -0.156442 0.479171 1.171807 -0.481553 0.132947 1.141923 1.872956 1.859837 1.874903 2.403571 1.720834 0.581161 1.218130 1.320152 1.432493 1.678093 0.854717 0.668733 0.509445 0.248119 1.713778 2.424693 3.440084 3.595389 1.820062 1.623649 1.976028 1.071192 1.775772 2.145884 1.947365 0.455277 -0.640216 -1.806047 -2.157746 -3.555714 -3.459697 -2.721280 -2.532361 -3.270024 -4.717464 -4.814589 -3.637911 -4.180852 -4.125310 -4.229652 -3.803729 -4.433800 -4.928563 -6.018042 -5.733447 -6.690093 -5.968138 -5.116336 -5.738771 -6.983911 -7.457134 -7.438028 -6.519405 -6.712855 -7.850014 -7.270670 -7.148651 -7.010452 -7.356363 -7.739041 -8.620866 -8.002476 -8.381847 -8.262153 -8.377649 -7.380010 -6.292115 -6.767207 -7.660098 -7.638197 -8.671560 -9.668365 -9.589215 -8.906378 -8.882284 -8.625260 -8.822630 -9.717561 -10.763575 -10.770535 -8.970263 -7.449169 -7.482052 -7.930718 -8.623212 -8.213702 -7.440355 -7.049120 -5.805260 -6.099804 -5.702441 -4.549310 -5.195560 -4.748455 -4.283675 -3.460394 -4.829073 -4.421639 -3.985293 -3.557061 -3.040396 -2.600951 -3.388297 -4.856405 -3.786905 -2.822520 -3.558277 -2.536586 -1.779310 -2.627253 -3.113618 -2.662862 -2.011040 -3.315204 -3.458402 -2.508346 -1.707488 -1.954751 -2.000671 -2.696612 -3.313917 -3.486087 -2.678483 -2.237779 -2.499556 -2.212530 -2.367793 -3.018586 -2.980742 -3.385163 -2.447545 -0.909522 -0.246311 -0.003265 -1.449622 -2.147607 -2.251223 -1.739706 -1.003283 -0.495376 0.151041 0.462709 -1.018480 -1.925194 -0.860993 -0.888784 0.021807 1.668963 2.526617 2.175793 2.229911 2.653511 2.225205 1.697764 3.613808 3.989018 2.945671 1.969187 2.390343 2.099169 1.949396 2.400248 2.772290 2.514463 3.469944 3.049006 3.014137 2.450370 2.370525 3.353335 3.847664 4.255447 3.315773 3.543138 3.366587 3.123903 3.310663 3.673851 5.021595 4.712344 3.753456 3.316726 3.722190 3.365098 3.323837 3.478252 4.950542 5.531386 5.959622 5.828171 6.198585 6.736402 6.145881 6.649904 7.690223 7.697476 7.066333 5.982708 5.077402 5.103094 4.109228 5.561732 4.156049 3.419191 2.716943 1.505917 2.545303 2.676988 4.299763 5.471000 3.884163 3.565466 3.039171 3.717332 4.673211 5.020732 6.026145 4.871239 4.510802 4.403561 3.969403 2.928431 1.963398 3.365478 4.134665 3.295236 4.042406 3.303607 3.310291 1.667116 2.217871 3.640629 2.775860 3.116366 3.286667 2.339667 3.062924 2.197206 3.236150 3.532054 3.347036 3.435419 2.524173 1.785865 1.612946 0.963821 2.388109 1.505909 1.128253 1.277892 1.027064 0.073222 -0.315777 -0.002625 0.593832 0.111073 0.697319 0.576878 0.339828 -0.020216 -0.091252 -1.408023 -0.413174 -0.033714 0.537898 1.707101 1.379540 -0.085774 0.064974 0.390846 0.695578 1.016163 1.560902 1.221757 0.320908 -0.298818 -1.060631 -1.646104 -1.374067 -0.158178 0.330359 -0.104790 -1.392605 -2.373763 -2.402878 -2.029357 -1.433055 0.022610 0.477524 -0.331651 -0.634891 -1.366335 -1.764669 -1.185397 -0.437308 -0.144907 -0.203718 -1.665173 -1.312404 -1.731133 -2.195635 -1.867109 -0.482827 -0.629801 -1.398496 -1.938854 -2.429957 -2.210440 -1.679621 -0.363234 0.114623 -0.176836 -0.949741 -1.064977 -1.409520 -1.425458 -1.757820 -1.606171 -0.227364 0.147001 -1.252080 -2.744688 -3.339490 -3.668647 -4.175383 -2.443561 -0.667230 -0.938513 -2.212651 -3.087369 -5.026845 -3.595689 -3.208420 -2.287258 -2.225128 -2.801906 -3.276905 -3.466970 -4.110754 -2.421320 -2.960431 -3.259992 -2.015569 -0.716077 -0.835177 -2.110563 -3.396252 -1.843575 -1.574019 -0.646942 0.927160 -0.182459 -1.677500 -1.496916 -0.672975 -0.727821 -1.682342 -1.021166 -0.081123 -0.383004 -0.039582 -1.252533 -2.228513 -1.250878 -1.507698 -2.370339 -1.752974 -1.772772 -2.433767 -1.764756 -1.399380 -1.727218 -2.331811 -1.823409 -0.746329 -1.501311 -0.559891 1.167447 0.081127 -1.386872 