-0.774463 1.057406 -0.688468 1.142820 -0.007391 0.034595 1.268778 -0.478535 1.351322 0.517300 -0.257352 -0.067253 0.729658 0.620124 1.967332 -0.593661 -0.148030 1.355823 -1.725218 -1.297362 0.296669 -0.000493 -0.833260 -0.482749 -1.594144 -0.463028 -0.353174 0.528160 -1.208909 -0.937477 0.083206 -1.281589 -3.133102 1.153822 -1.609060 0.120399 -1.359380 1.376092 0.327196 1.267477 1.221818 -1.018235 -0.885409 -1.350888 0.089717 1.210660 -0.728807 0.329150 1.211854 -2.328938 0.646905 0.343326 0.056012 -0.254564 0.564637 -0.868536 1.622396 -0.060992 -1.209210 1.028522 0.042833 1.405407 -1.052011 0.047099 0.103674 -0.666249 -1.899439 -0.097122 0.282022 -0.564273 1.034288 1.814073 -1.318703 -0.702090 0.324293 -0.637831 0.575824 -0.448390 1.830377 0.740503 0.996786 0.496868 -0.899216 0.678039 -1.111371 -1.172541 0.328718 -0.662384 -0.397663 -0.103423 -0.616299 3.242451 -0.425357 0.651229 1.305313 0.357814 1.101589 0.950791 -0.021913 -0.717473 1.545872 0.580691 1.145161 0.254271 -1.024503 0.742736 -0.103524 2.041677 0.047458 1.524642 -0.026553 1.014396 0.985038 -1.289729 -1.144501 -0.260485 -1.996996 0.571800 0.312099 1.843047 0.229902 -1.501450 0.683729 0.489655 0.843194 -0.188220 -0.284535 -0.110592 0.802999 0.873746 -1.343819 -1.092101 1.302711 0.842226 -0.776592 1.003853 -1.262951 2.052026 -0.445554 0.520903 0.316062 0.931487 0.071714 0.285340 -2.697780 2.400563 0.121064 -0.541208 -2.582080 -0.416784 0.233418 0.157996 -1.382667 -0.196059 -1.061076 -0.583400 1.071115 0.105886 -0.057866 0.813047 0.813093 -1.373280 0.465675 -0.411962 -1.971795 -0.995178 -0.135468 1.866337 0.733930 -0.542705 0.036333 -0.564955 -0.421405 -0.514106 0.658354 -0.516773 -1.137743 0.149026 2.519164 0.521346 -0.107976 -1.392306 -0.367108 0.923314 -0.183895 1.191937 -0.565450 0.465034 -0.005375 -0.553221 -0.470016 -0.616478 -0.036524 -0.114723 -0.133398 -0.642691 -1.848450 -0.590792 1.619629 1.006628 -0.709536 1.116972 0.354127 -0.261161 2.150174 0.136006 -0.078832 -1.562277 -0.401604 -0.405192 -0.533796 0.248798 -2.053553 -1.589863 0.374671 -1.304839 -0.321564 -0.371138 0.397256 -0.378022 -0.131612 -0.668979 0.892880 0.545883 1.187941 0.172296 1.014784 0.172400 0.295014 -1.979373 -0.163398 -0.487840 0.844883 0.530704 0.578535 -0.786444 0.481877 -2.465909 0.983541 -0.451083 0.084108 -0.081747 -2.080519 0.074724 1.648733 1.904598 2.272604 -1.870029 0.405749 0.411680 1.702080 -1.073097 1.151068 0.044155 -0.595869 1.251470 -0.283811 0.362477 -0.476529 -0.414497 -0.314370 -0.409056 -1.045100 -1.572242 -2.789127 -0.006802 1.184741 0.062680 -0.563464 1.346835 -0.177386 -0.658446 0.282673 -0.742911 -0.265984 -1.844265 -0.671225 -0.585685 0.201496 0.988298 -2.109686 1.408223 0.419325 0.292964 -0.438431 -0.360362 -1.115502 -0.244894 0.439927 -1.197978 -0.372421 0.566103 1.211865 0.300110 -1.088309 0.007528 -0.105410 -0.245302 -1.772133 -0.830680 -0.821020 0.000984 0.037009 0.849658 0.696917 -1.485368 -0.224804 -0.909591 -1.023839 0.372659 0.018807 -0.044769 -1.359501 -0.780241 0.259081 -0.750110 1.449894 0.936688 -0.787571 0.390855 -0.206545 1.370540 0.906382 0.572743 0.447228 1.083109 1.003069 0.938237 0.007543 -0.691956 -1.409449 0.976908 -0.236333 -1.078209 0.649512 0.615811 -0.129957 0.120095 0.935399 1.386094 0.209239 1.795825 0.752141 -0.099402 0.102943 0.876618 -0.219494 1.157795 0.848687 1.494285 1.293170 -0.119336 -0.582899 -0.423300 0.194835 -0.130201 0.368234 0.296494 -0.345585 1.534092 0.005031 0.116020 -2.138885 0.439835 0.835054 0.425707 3.348707 1.421878 -0.693844 -0.656200 1.160744 0.623199 0.674330 -1.155212 -0.127711 -0.740277 -0.962928 0.133842 -0.038693 1.956407 0.798186 0.116728 -0.229384 0.042966 0.828002 -0.251531 1.067964 -0.016026 -1.468503 0.632934 -0.854436 -0.695005 -1.392802 -0.483834 -1.257684 -1.091515 1.461026 0.438835 1.176742 0.552037 0.694649 4.414337 -0.994774 -1.341287 0.480778 0.827842 -1.788291 0.007270 -1.508922 -1.264782 1.245961 1.966140 0.012503 -1.297197 1.542301 -0.153327 0.497484 -0.374159 0.267737 0.054817 -0.572662 0.503882 -1.045259 -0.904255 0.824429 -0.255221 1.262323 0.286101 0.428388 -0.904062 -1.313685 1.195159 0.610208 0.223740 2.493904 0.617052 -0.570454 -0.042027 -0.662022 -1.557087 -2.411419 1.508135 -0.646941 -0.495600 -0.643647 -0.872179 0.920737 -0.035790 -2.399513 0.192526 -0.157273 -0.096167 0.009529 -0.570090 -0.360478 -1.004422 -0.729410 0.049223 -0.303017 0.449349 -1.812964 0.999694 0.122946 0.116917 -1.358798 -0.345359 1.048042 -0.790804 0.142996 0.231089 -1.383356 -0.176399 0.609814 1.857864 -0.936902 0.153918 0.350355 1.039781 0.841710 -1.523023 -1.259552 -2.588937 0.767331 -0.360654 0.970466 2.295876 0.600746 0.280663 -1.476525 -1.123074 0.271928 0.256567 0.591755 -0.388126 0.015300 -1.689508 0.507045 0.363712 2.158292 1.371752 0.411163 0.676866 0.962579 -0.545526 -0.373714 0.103565 -0.271325 -0.476958 1.198603 0.335353 -0.242252 -0.642678 -1.094373 -0.271578 0.983414 0.515583 -1.124837 0.809471 0.178042 1.097367 0.194703 -0.613065 -0.614913 0.895598 1.369338 1.096323 -0.556593 0.631249 -0.858274 0.919770 1.301780 -1.469702 -0.484433 0.424950 -0.372099 -0.186753 -0.906284 0.034530 1.370260 1.078149 -0.458516 -0.963345 1.622975 -2.478185 0.250189 -0.032645 0.421571 -1.240074 0.780291 0.793476 0.718717 -0.857544 -0.439206 0.916903 1.325266 -0.541685 -0.275419 -0.185120 2.200538 -1.982209 -2.920692 2.073122 -1.026342 1.345438 -0.306073 0.650314 -0.031604 -0.531892 0.580373 0.957291 -0.399822 -0.199655 -0.933276 0.181753 -0.634811 1.031833 0.728211 -0.962275 0.896023 0.102391 0.133622 0.144568 -1.465594 -0.440384 -0.519782 -0.485000 1.095475 1.528007 -0.099459 0.250895 -1.035394 0.030165 -0.979124 -0.298445 -2.039626 -0.268941 0.529533 -1.669549 -1.117928 -0.005781 1.331224 0.967446 -0.712190 0.391728 1.072881 0.934201 -1.369157 -0.380917 -0.539052 1.594754 -0.326094 0.607771 -0.974981 -1.342799 -0.190289 1.260764 -0.138494 0.527517 -0.314427 0.059006 0.193712 0.272059 -1.413666 -1.310165 -0.509544 -0.555614 0.922209 1.507343 -0.168913 0.213383 0.454652 -1.048002 0.509308 1.559784 -1.296108 2.724622 0.032441 0.410191 -1.688781 1.023459 -0.948744 -0.359553 0.234973 -0.596572 0.985529 -0.367572 1.439343 0.515211 1.859244 -1.443697 0.398121 0.224772 -0.665068 -0.649259 -0.513937 -0.559351 1.085007 0.861423 -0.577247 -1.103472 -0.719039 -0.619597 0.779906 -1.895872 0.680588 2.728823 1.610395 -0.500171 -0.714191 -0.482154 0.132960 1.206957 0.659796 -0.465623 -0.873781 -0.954144 -0.500756 -1.314866 -1.386157 -1.486204 0.074023 0.043582 0.232674 -1.032686 0.201059 0.199167 -1.407939 0.230047 0.654836 0.303081 -0.395810 -0.822738 -0.478915 1.031258 0.673719 -1.062668 -0.929429 -0.720186 1.682255 0.518205 0.432207 0.389869 -0.350432 0.655751 -1.691986 0.762200 0.267363 -0.014791 0.844270 0.056394 -0.511232 0.519625 0.367794 0.212616 0.680131 2.025546 -0.602186 -0.971850 0.959776 1.407358 0.150501 0.121626 1.612732 0.517644 1.361717 1.378810 1.138148 0.862362 0.022745 0.846412 -0.937534 -0.828516 -0.708291 0.773388 0.502753 -0.269582 0.019410 -1.257759 1.377488 1.066716 -0.779274 -1.367645 -1.072230 -0.101730 -0.911546 -1.550675 -0.535874 0.896993 0.047493 0.316945 -0.299885 -2.380897 0.396167 0.135340 -1.680601 0.730285 -0.245866 -0.005954 0.229098 -0.335971 -0.226955 1.109633 0.784101 0.589633 -0.296233 0.754759 -0.083813 -1.522730 0.250185 -0.102271 0.396972 1.795111 -1.448148 -0.078719 0.080915 -2.149188 -0.356686 0.038270 -1.788608 -0.760161 -0.500903 -0.945012 -0.004482 0.042569 0.016029 -0.890200 0.843358 -0.825821 -0.690626 -0.553986 -0.526037 -1.363308 -1.150329 0.477716 -0.515729 0.312999 1.167039 -0.501814 -0.996977 -2.204197 0.365692 -0.180099 1.747065 -1.687689 1.143321 -0.350845 -0.707686 -0.545382 0.077937 1.048466 -0.143606 0.689668 -2.155030 -0.061894 0.012221 -0.202171 0.272896 0.750158 -0.944422 0.277723 0.395145 0.412702 2.380144 0.299185 0.292697 1.078540 -0.555269 0.387227 1.647927 1.108852 -0.708533 0.316331 0.449085 -0.424456 -1.112560 2.820567 0.383350 1.082478 0.429838 -0.078601 1.521506 0.464099 -1.210632 0.380588 0.003779 0.797029 0.657658 -0.024178 -1.357970 1.284413 1.012431 -0.039427 -3.880149 0.043569 0.538079 0.267241 -0.512024 -1.004130 -1.505515 -0.213095 0.631114 -1.151946 0.263410 -0.553504 0.479214 -0.190147 -0.742012 -0.582692 -1.351601 1.051964 1.425386 0.261170 -0.284053 0.838498 1.641623 -0.916111 -2.237744 -1.192298 -1.411891 0.083628 0.680787 -0.204878 -0.685894 -0.095152 -1.237247 -1.024296 1.069092 1.153748 -1.582270 0.519683 -0.782746 -0.421319 1.178404 -1.466762 0.839842 -1.085725 -0.002054 1.608703 1.253330 0.407495 -0.277801 0.657124 2.040658 0.621349 1.280791 1.710409 -0.827570 -0.373309 -0.187217 -0.354547 0.841623 -0.335465 1.281145 1.107232 -1.045224 -1.165310 0.601610 0.171362 -0.964176 -0.193660 2.089819 -1.345183 -0.632049 2.834082 -0.151799 0.541789 0.517454 1.920007 0.654278 -1.562760 -0.909078 -0.913707 1.194472 0.774333 0.478573 -0.207197 1.675966 0.207332 0.425879 1.006378 -1.693986 -0.785485 0.057838 0.666012 0.462460 0.481137 -0.786607 -0.402718 1.275046 -0.556324 -0.665938 -0.646998 0.181983 -1.357451 1.310598 0.337356 0.271005 -0.425605 0.666816 -0.253459 -0.998420 1.399932 2.480811 0.326751 0.631338 0.864041 -0.620448 1.782190 1.273389 1.523088 -1.203559 -0.675613 -1.024948 -1.618043 -0.729944 -1.662973 0.573829 0.394926 0.547014 0.913660 0.314601 0.512829 -0.325319 -0.433714 -1.356743 -1.396784 1.024411 -0.055584 -0.671907 -0.240035 1.518139 0.513236 0.462049 1.919508 0.675135 0.560493 -0.053897 0.059647 1.439928 -1.305486 0.508795 1.059543 -0.721042 1.141410 0.271996 1.081388 -0.637252 -1.929380 0.801585 -0.463143 0.238173 1.707101 -0.131663 0.241760 -0.237818 0.804075 -1.001330 1.211127 -1.475876 0.263104 -0.531337 -0.212400 -1.620130 -0.454128 0.261021 -1.416614 1.048605 0.917602 0.006926 1.076599 -0.414691 1.333382 0.173704 0.074296 0.762816 0.452905 2.723617 -1.479519 -0.888582 -0.553166 -2.157520 -0.433409 -0.728005 -0.863362 -0.680056 -0.309458 -0.566396 -0.351128 0.489596 -1.217950 0.372571 0.227359 0.172683 0.219884 -0.429381 -0.975730 -2.306822 0.293211 -3.090515 1.010112 1.354491 -0.391180 -0.695540 -0.833226 0.249397 0.017977 1.902236 -0.971823 -0.177453 -0.636188 -0.218580 -0.926962 0.625707 -0.586602 -1.366284 0.406887 0.457675 0.345481 0.409759 -0.335835 -0.972417 -0.096710 1.330548 0.065593 -0.054602 2.374431 -0.996261 -0.516210 0.482698 -0.562598 1.480642 0.188918 -0.539182 -0.297581 0.674520 -1.539258 0.190870 -0.840657 0.641459 -1.200901 1.489395 -0.240117 0.710832 -1.556475 -0.319925 0.249358 -0.783213 -0.080116 -0.086404 0.651955 -0.015238 0.177179 -0.437353 -1.206570 -0.333274 1.044854 -0.194856 1.355563 0.471137 -1.557637 -0.978180 -0.772122 2.801469 0.190088 -2.934270 0.245070 -1.210381 -0.084272 -1.654142 0.675592 0.155751 -0.741300 1.334686 0.542260 0.442787 -0.979606 -0.792787 -2.331972 0.758093 0.266391 0.055083 0.860682 0.307739 -0.920623 -1.219805 0.409808 -0.132758 -1.401165 0.317364 -0.508009 -0.264810 -0.693878 1.105169 0.706148 0.387026 -0.404344 -0.249050 2.009000 0.066294 0.079584 0.093983 -0.007974 -1.542784 1.023626 0.615398 1.039205 0.063113 1.160235 -1.196010 -0.804769 -1.480855 -1.489876 1.282584 0.712362 -1.684178 0.599757 0.802595 -0.631961 0.242551 -1.490350 1.480264 0.792010 -0.006936 0.265866 0.361271 -0.293453 -0.919512 2.857449 1.180734 0.748102 0.932713 1.122400 -0.438432 0.517739 -0.503517 -0.777429 -0.268856 -0.238409 -0.193289 -0.019529 0.934666 0.144398 0.181065 -0.529238 1.034533 0.662601 0.499411 -1.054460 0.048070 -1.465983 -0.396913 0.254568 -0.004893 -0.142253 0.833076 0.902544 0.230275 -0.421133 0.523883 1.711531 -1.101063 0.686942 0.570675 -1.019639 -0.654280 0.326004 0.848086 0.475359 1.196779 1.222002 0.369464 -0.136495 1.600072 -1.175946 1.160174 1.491868 0.392591 0.461210 1.475208 0.638085 -0.122547 -0.850418 0.041559 -0.357778 -1.173268 1.362769 -1.196447 -0.010045 -1.256328 -1.607737 0.879847 0.429721 -0.551834 0.431449 -0.265973 0.136063 -0.542295 -1.116718 1.164895 2.090323 -1.371983 -0.023656 0.215461 0.301996 -0.557059 -0.486544 0.137937 0.592801 -0.228910 -0.608422 -1.169321 0.632982 -1.120195 1.287157 0.091923 0.066729 0.222133 0.471334 0.472277 -0.389742 0.320130 -2.083203 -0.323460 -0.331284 1.113220 0.065109 0.242852 -0.321403 0.736774 -0.915067 0.034271 1.210014 1.526056 -1.087661 0.259408 -1.096352 0.702744 -1.901927 -0.879574 1.202615 -0.023657 0.872749 -0.389678 0.704007 -0.009606 -1.554260 -1.301530 0.062493 0.371158 0.248542 0.356170 -0.843697 0.361000 -0.288906 1.217475 -0.114775 1.215172 0.215090 -2.607158 1.195329 0.185673 -0.120240 0.551650 -0.382394 0.548914 1.310871 0.516233 0.569924 -0.414489 1.270375 0.149169 -0.707353 -1.299307 -0.358879 -1.180072 0.518701 -0.455614 -0.345361 -0.221901 0.818683 1.492944 0.481904 -0.322590 -0.890358 0.735482 -0.283086 1.107522 1.511417 -1.032391 0.960012 -0.449276 1.215366 -1.462597 -0.590431 1.622453 -0.440255 -0.265479 -1.400017 0.448990 -0.412898 0.286554 -1.325862 1.066035 -0.006558 0.236436 0.329379 -0.337022 0.405030 -0.420779 -1.192210 0.494886 -0.599355 -1.216702 2.106014 -1.320189 -0.927419 -1.388356 -1.080697 1.120588 0.600417 0.467003 -0.204280 -1.399495 0.067119 0.713347 -0.481683 -0.698982 -0.729911 -0.510339 1.210400 -1.931915 -0.666204 0.875236 -0.971269 -0.055577 1.479636 1.901524 0.104137 -1.075864 -0.488471 -0.614245 -0.856235 0.543478 -0.696935 -1.378164 -0.052413 0.285646 0.305908 -1.315465 1.924405 -0.908357 -0.020034 -0.622034 0.291786 -1.433599 0.365852 -1.318854 0.373554 0.105996 2.516968 -0.254853 -0.651964 1.198467 0.214974 -2.348423 0.323065 -0.142280 3.385249 -1.103841 -0.316843 0.068883 -0.667039 0.139205 -1.662787 -1.083743 -1.130672 0.487777 -0.084642 0.043361 0.222171 -1.184371 1.334418 0.981679 -0.971898 -0.037188 -0.778944 -0.587940 -0.525912 0.246749 -1.469455 0.187984 0.228523 1.022406 0.081024 -0.489759 -0.319200 -1.054271 1.259912 0.806265 -0.333535 -0.881004 0.272862 0.336508 0.241004 -0.670924 -1.407986 0.194938 1.632594 1.288157 -1.116383 -1.398613 -0.944410 -0.123468 1.097878 0.519207 0.227980 0.423629 -0.692470 0.580450 -1.102180 1.831094 1.800288 0.516366 -0.076569 -0.392707 -1.604004 0.980025 0.365985 -1.610476 0.704112 1.444537 1.387852 -0.019735 0.362695 -0.413485 -1.349741 -0.526189 0.746433 0.885095 -0.758848 2.830066 -0.358247 -0.755624 -1.178189 0.350253 -1.100069 0.239525 0.060884 -0.565851 -2.517182 0.013615 0.653719 -0.563482 0.035536 0.028826 0.000447 0.234819 0.422144 -0.372941 -0.489153 -0.502001 -1.272382 1.058129 0.721900 0.576221 -1.592847 0.520606 -1.056287 1.266262 -0.006167 0.579915 0.334575 2.028773 -0.422047 0.729363 -0.228563 -0.263986 -0.553098 -0.565998 0.811484 0.577706 -0.959964 1.118586 0.211942 -0.534195 -1.963653 0.569035 -0.668224 -0.785188 0.178154 -1.250339 -0.222402 0.018594 0.777839 1.287286 0.907178 -0.601098 0.478059 0.440576 -1.939401 0.522383 0.159665 0.599361 1.251644 0.514534 -0.021646 -1.310888 0.549849 0.221818 1.185823 3.050646 -0.523443 0.784159 1.177099 -0.408626 0.334169 2.924074 -0.331661 -0.338467 -0.727304 1.298156 -0.587521 -0.449808 -1.188292 -0.447695 1.695647 -0.004268 0.878180 -2.035719 0.071064 0.151384 2.167082 -0.037715 0.689600 0.705405 1.733873 0.819244 0.162060 -0.787886 -0.756422 1.389614 -0.515676 -1.265728 -0.857534 0.928136 -2.218334 -0.901262 -0.031010 -1.815388 0.663761 0.708749 1.362303 1.279459 -0.147210 0.299186 1.745923 -0.305683 0.393276 -1.427954 -1.164665 0.530977 0.420993 0.349533 -0.405119 1.323561 0.521598 -0.238046 0.711572 0.447621 0.921545 0.023807 0.871599 0.022112 0.058233 -0.575001 1.053813 -0.114013 -0.889542 -1.439875 1.200036 0.057077 -0.650132 0.345077 -0.405090 -0.365123 -0.136310 -0.882833 -0.083122 1.273399 -0.447774 0.556346 -1.671132 0.350435 -1.311351 1.105326 -1.619174 0.113669 0.072253 -1.237263 -0.138235 -0.704143 -0.777149 -0.670902 0.799683 -0.114450 -0.104704 0.908770 -0.585832 0.325159 -1.196473 -1.098185 0.408367 -1.448333 -0.442054 0.440515 0.381670 -0.265634 -0.029235 -1.409944 -1.230980 1.066669 -1.635570 -0.012402 -2.256337 -0.168923 -0.843380 -0.668490 0.904612 0.586588 0.394967 0.661008 -0.854751 0.264371 2.317007 0.904718 -0.157505 -0.787762 0.285214 0.200906 0.847328 1.321515 0.122407 -0.602170 0.613718 -0.933190 -0.080675 -0.300295 -1.220505 0.378014 -0.456419 -1.015104 1.602011 -0.984779 2.326802 0.325165 -0.406640 -0.978999 -1.540239 0.884506 1.147779 0.609636 0.675990 -1.533517 1.520811 0.568379 0.318294 0.791806 -1.124578 0.606035 -0.164749 -0.820614 0.918287 -0.209198 -0.924922 1.573778 -0.277376 -0.162104 0.677708 -0.116775 0.616151 0.447988 -0.348721 2.744797 -0.145002 -0.650107 -1.120266 0.587583 -1.283899 -0.487778 -0.521432 -0.516245 1.059127 -1.074984 1.592276 -0.917543 -2.262364 -1.752758 1.352324 -0.122570 -0.251653 -0.783777 -1.005435 0.818085 0.853650 0.544345 0.992070 1.453742 0.631168 0.010335 -1.290925 -1.095180 0.276969 -0.890090 -1.729019 0.082263 0.887738 0.148052 -1.077048 1.656835 -1.070643 1.274657 0.260583 -0.642882 2.411283 -0.992769 0.139036 -0.491252 0.215278 0.821780 0.443601 -0.365296 -0.188375 0.640944 -0.782752 -0.710910 -1.392779 -1.360351 0.963561 -0.855126 0.113803 -0.506508 0.528190 0.591952 1.259616 1.728755 0.582293 0.515862 1.437101 -1.123704 0.626277 -1.183485 -0.408019 -1.300378 1.141417 1.630183 0.645371 -2.178472 0.239564 0.101582 -0.124001 1.076340 -0.068132 1.349807 -0.856379 0.526237 -0.111758 -1.827132 -0.910219 0.489963 -0.738892 -0.570400 -1.035418 0.236257 -1.286711 -0.183579 -0.243141 1.788896 0.534017 -0.836998 0.387563 1.247536 0.905048 -1.532991 -0.565980 -1.380120 0.906497 -0.077734 -0.792597 1.659464 -2.311656 -0.853429 1.730556 1.033533 1.360762 0.403678 -0.850137 0.332087 -0.463080 0.367713 0.600447 -0.594011 -0.425653 0.603991 -0.071058 0.061511 -1.488383 1.787010 0.426779 -0.470836 1.314419 1.909650 -0.688867 1.250476 -0.428426 1.805640 -1.866569 -1.408845 0.281991 -0.043790 -0.890345 -1.260572 -1.020546 -0.017358 0.629260 0.617804 1.185392 -1.253329 0.794425 0.794838 -0.194386 -0.309098 -0.369520 -1.951090 -0.071896 -1.636577 0.157908 0.692429 -0.907409 0.964258 0.211540 0.267521 0.312419 0.166708 -0.689329 0.791405 2.826571 -0.736226 1.064494 0.427869 -1.110763 -0.163623 0.479746 0.760834 0.344132 1.906413 -3.352561 0.581632 0.592834 0.207176 1.315838 0.248137 -0.509284 0.681604 -0.719579 1.860862 -0.406080 1.088867 0.835848 -0.767510 -2.637763 -1.208877 1.017396 1.184431 0.663791 0.811194 -0.529034 1.591080 2.345060 1.816302 -1.061557 -0.911740 0.023076 0.666874 -1.097716 -0.872969 -1.556266 0.293771 1.062801 0.962734 0.050005 -0.513143 0.572075 0.600776 0.367521 -1.328669 -1.199152 -0.997217 -0.827749 1.556378 0.432922 0.401927 -0.079754 -1.224269 -0.050733 -0.954468 -0.348813 -0.588249 -0.647471 0.405915 1.309415 -1.709388 -0.330999 0.491028 -0.544941 0.845960 -0.872624 0.799921 1.506900 -1.593293 1.305345 -0.494058 0.187480 1.601449 -1.843937 0.097289 1.631491 1.306630 -1.039092 0.045264 0.913420 -0.189824 -0.193682 -0.051653 1.969623 0.029420 0.297961 -0.199018 -1.666858 0.862619 0.553107 1.660992 -0.231931 -1.495772 0.737078 -1.559791 -1.351349 -0.552772 -1.692653 0.696562 0.592789 0.754067 -0.545579 -0.129861 -0.647601 -1.460784 1.504007 -1.422028 0.864889 0.147154 -1.107896 0.180016 -0.491099 0.941832 -0.231007 -0.402652 0.556487 1.191370 -1.115786 -1.419637 0.346263 0.059050 1.249213 0.256887 1.032569 -0.471583 -1.549579 1.238918 -0.031396 0.294818 -0.621475 0.262329 -1.129941 -0.720620 -0.450322 -0.518625 -0.736859 0.131518 0.046163 -0.597339 2.698062 1.586317 1.369808 -0.150835 0.068613 0.743013 -0.368982 -2.774308 2.111751 -1.661059 -1.256301 1.512843 -0.169203 -0.168843 0.078635 2.410191 -0.431872 -0.415475 -0.765713 0.755630 0.364604 -0.429361 1.871729 -0.753307 1.768297 0.259128 0.266995 -0.543570 -0.546433 -1.337629 1.772318 -1.850013 0.129564 0.160430 -0.424827 -1.021401 0.046025 1.368165 -0.599162 0.988946 1.823554 -2.304419 1.429196 0.498111 1.665431 -0.349717 0.529549 -0.208314 -0.901666 -0.621005 -1.244071 2.328705 -0.544644 1.838539 -0.410449 -0.044518 0.987525 -0.696245 -1.538253 -2.219316 0.077070 -0.073658 -0.192478 0.161623 0.354225 1.274344 -0.200141 -0.086201 1.318376 -0.003862 -0.793091 -1.295212 -1.783918 -0.784254 -0.038210 2.096907 -1.440858 0.573276 0.144059 0.318807 -0.449273 1.045031 -0.244759 -1.107401 -0.829706 -1.221849 -0.393653 -0.353930 -1.147691 -0.950973 0.710632 -0.856930 -1.333812 -0.226377 -0.251063 -1.141943 0.582168 -1.073179 1.329991 2.612593 -1.452544 0.588561 0.605018 -1.142264 -1.051578 -1.081134 0.337054 0.676390 0.641493 1.668065 0.757041 -1.310373 -0.051161 1.253328 1.269683 -0.089351 0.731467 -2.210082 -0.778777 -0.469072 -0.602806 -0.962977 1.211856 -2.079746 0.103640 0.365015 1.205977 0.091884 -0.634234 1.730114 0.530520 -0.369425 0.716672 1.212826 -2.091015 -0.107523 -0.078844 -0.341682 0.258464 -0.432624 1.213124 0.295828 -0.311580 -1.495217 0.922965 0.520944 0.196565 0.137467 0.254449 -0.469795 -0.878163 -2.139699 1.107419 -0.344076 -0.440737 -0.992548 -0.593063 -0.336464 -0.913953 -0.019140 0.552914 0.896719 0.109349 0.324183 -0.997940 0.031577 0.690915 -1.182387 0.320417 0.169902 0.879670 -0.600595 -0.251851 -0.828392 -0.825726 -0.097578 -0.254256 0.284523 -1.990043 0.836711 0.106986 -1.447735 0.382567 0.186549 0.671446 -0.211948 0.703323 -0.792780 0.062655 0.138043 -0.761493 0.637726 0.420962 0.278765 1.128929 0.285086 -1.111490 -0.880471 -0.810202 1.283639 -0.117405 -0.891457 -0.543710 -0.257073 -0.829315 0.842893 1.193619 0.720174 0.565393 0.040327 0.245243 -0.528958 0.966964 -0.237315 -1.246445 0.469167 -1.113430 0.634733 -0.168050 1.353978 -0.426584 1.937766 0.939885 -0.699852 0.243664 0.996764 -0.996077 -0.119602 1.294287 -0.543709 1.027364 -0.396910 -0.198592 0.545283 -1.884170 -1.579991 -2.253695 -0.594308 0.080633 0.647479 -1.537618 0.555391 0.707907 -0.024746 -0.078858 -0.179187 1.058390 -0.784290 0.952644 0.169707 0.070582 -1.331998 -0.249742 -2.632736 -0.866628 -1.737364 -0.073432 0.510771 1.310974 -0.178224 -1.219119 -0.750269 1.620127 0.808197 -0.383389 -1.152843 -0.044153 -0.663248 -1.895550 -0.830179 1.224628 -0.929230 0.083235 0.342015 1.177758 -0.464272 0.588124 -0.297499 0.226425 0.724570 0.583514 1.913336 -0.600205 0.491409 -0.893879 -0.066470 -0.260014 1.717444 -1.098535 0.705091 0.029334 -0.452238 -1.076273 -0.111100 -0.428054 0.872082 2.069727 2.612665 0.830833 0.486784 1.524596 -1.075990 1.840185 -0.433077 0.754279 -0.209979 -0.685983 -1.733888 -0.528302 1.659170 0.311173 2.268451 -0.926814 -1.203946 3.203773 0.311691 -0.663495 0.087183 -0.871591 0.727622 -1.692085 1.087177 -0.026457 -0.151233 0.942760 0.841817 -0.090012 0.795713 -0.861144 0.850551 -1.020635 -0.842996 0.742887 -0.278814 0.540897 1.334922 -1.086345 -0.652993 0.273584 0.138705 0.592056 -0.418695 0.486938 -0.280106 -0.039264 -2.087212 -1.777851 0.572721 0.867290 0.495226 0.610132 -0.684664 -0.137067 0.097408 0.001577 -1.170450 0.944928 -3.111664 -0.141501 0.788609 -1.619052 -0.539752 -1.113031 2.005126 0.756416 -0.869940 0.420952 -0.452623 0.425950 -0.369105 0.228653 1.505454 1.050649 0.377668 -0.110542 0.795481 0.646613 0.353116 -1.326975 0.266426 -1.416266 -1.121073 -1.599870 1.621915 -0.408147 -0.275896 -2.221039 1.412876 -0.491869 0.340740 -0.552596 0.977715 -0.833357 -0.412760 -0.231197 0.512673 0.874278 1.507784 -0.273598 -0.009930 0.126488 -0.558218 -1.364106 0.171638 1.304390 1.613103 -1.524559 0.749894 -0.675856 0.956372 -0.853766 -0.943755 1.159766 -2.221360 -0.136594 0.899400 -0.170348 -0.058091 0.004872 -1.424797 0.262707 0.080252 1.540232 1.805212 0.086624 -0.321353 0.012914 0.028447 -0.927337 -1.129117 1.065575 -0.884460 0.175926 -1.741988 -0.480404 -0.406666 -0.480637 1.674233 -0.349950 1.227661 2.112242 1.927269 1.117896 0.266619 -1.274207 1.779932 -1.201614 -0.397395 -1.237365 -0.262872 -0.127266 -0.695298 -1.215538 0.514273 0.200989 1.005284 1.561980 -0.098728 -0.647901 0.460881 2.592650 -0.402248 1.783617 0.011094 -0.668342 0.429515 -1.792088 0.598881 0.152439 -0.129691 0.795798 -0.018183 1.814506 0.157987 -0.523881 -0.337746 0.185547 0.693163 -0.338073 1.220567 -0.371019 -0.140447 0.189595 -0.604446 -1.416695 1.648863 -0.390412 -0.325786 -0.097915 -0.574988 0.338328 -0.460124 1.794281 0.526482 -0.409571 -1.480318 0.440107 -1.218463 -0.396496 0.201779 -0.014985 -0.819983 -1.085508 -0.652770 -1.264821 0.269581 -0.668944 0.737508 -0.886783 -0.505571 -0.904357 0.074890 1.419169 -1.282306 -0.373631 0.554441 -0.344863 -0.872475 -0.666217 0.103378 -0.894588 0.709556 -1.580996 -0.582026 -0.403904 0.434478 0.290970 1.663990 0.606634 0.674480 0.750909 -0.684247 0.086943 -1.612976 0.639765 -0.495691 -0.562330 -1.030363 1.550580 -0.155187 -0.001566 -1.447408 0.306656 0.731674 -0.999814 0.668014 -0.203760 0.549539 1.431940 -1.030510 -1.499765 -0.576475 0.822421 1.178438 -0.742463 0.327421 -0.305509 -0.044777 0.886523 -0.236689 1.766582 -0.221988 0.675852 0.800595 -2.302137 0.478079 0.194348 0.550410 -0.437038 -1.134632 0.067575 0.095766 -0.608686 1.022889 0.534596 1.146844 -0.448007 -0.865501 0.143230 -0.055101 -0.983597 -0.211029 1.109248 -0.628086 -0.320753 0.043969 -0.707625 -0.679556 -1.394460 -0.575444 -0.737269 -1.461787 -1.051271 0.659710 0.518815 0.488863 1.272085 0.397267 1.133683 -1.215702 0.514533 0.941642 -2.555104 -1.344436 0.338172 1.532989 -1.768743 -1.223427 -0.003902 0.560843 1.162858 1.738378 -0.987462 0.802495 -1.344902 1.318836 -1.426060 0.008943 0.552610 -1.925628 -0.652595 1.170556 1.531198 0.552556 0.514153 0.671611 -0.230683 2.134182 0.195522 -2.341067 -1.178967 0.459069 -1.329751 1.804260 0.681400 -0.881557 -0.389094 0.085773 0.031321 -0.297832 0.251151 0.817071 0.554445 0.038812 0.341368 0.363988 -0.490748 0.243264 -0.742777 -0.050972 -0.091878 -0.021497 -0.640522 0.313534 1.778941 0.666087 0.580700 0.644478 2.052231 0.223606 1.009248 -0.648148 1.577470 -0.322283 0.508574 -0.326730 1.197055 0.967599 -0.553366 -1.074718 -0.036286 1.999370 0.041317 0.749516 0.763554 0.718002 0.873312 0.162422 0.074651 -1.629969 2.262740 -0.477976 -1.207401 0.732619 1.395433 -2.528802 1.913554 1.502858 -0.464729 0.434866 0.674205 -0.973438 -0.040398 0.006824 2.145836 2.161270 -0.272155 -0.517274 0.605726 -0.193978 -0.263046 -1.266258 -0.571759 0.085669 0.199823 -1.012890 0.866297 -0.714386 -1.225235 -0.959776 -0.193152 0.305371 1.640542 -1.516609 -0.138229 -1.368941 -0.218869 -1.810654 -0.294543 -0.567843 -0.614840 -0.313674 0.855214 0.806724 2.336372 -1.758281 -1.240648 -0.328643 0.213215 -0.123221 -0.260535 -2.450839 -1.023505 0.847044 0.015036 -0.918332 -0.800354 -0.652161 0.276621 1.771468 -0.788250 -1.394673 0.493484 0.434290 1.008273 0.731365 0.552729 0.523117 -0.847767 0.322472 -1.363947 0.081550 2.821126 -0.164217 -0.664590 -0.871488 -0.488525 -1.875698 -0.293698 0.860130 -1.271936 -0.953706 -0.275640 0.715242 0.667063 -0.197046 -1.655433 0.735015 -0.276232 1.998851 0.089431 -1.330239 1.368911 -0.284607 2.001540 0.040681 0.576328 -0.921472 -0.695830 0.340550 0.108781 -0.186737 -0.880792 0.738894 0.751327 -0.815217 1.777337 -0.838025 -1.454507 -2.584474 -0.005748 1.872755 0.423906 -0.969742 0.374753 0.545139 2.225140 -0.437882 0.247972 -0.819464 -0.768998 0.963109 -2.254731 0.293705 -0.528103 -0.487699 -0.189584 1.298244 -0.420564 1.954156 0.204958 -1.119363 1.332737 -2.656842 -0.811136 -0.103632 1.025382 0.045751 0.143021 1.299733 -0.919393 -1.343511 0.529951 0.640568 0.878018 0.633465 -0.725617 -0.268293 0.785728 -0.024596 -0.237987 -0.478297 -2.759664 2.216331 1.769750 -0.024754 -0.483284 -0.130334 0.030768 -0.049637 -0.971141 -1.054060 -0.484220 -1.029362 -1.391772 0.436306 1.023035 -0.676516 -0.380586 2.051173 0.848941 0.729730 0.043989 -0.686260 0.095567 0.739900 -0.268056 1.087692 0.806598 -2.095011 -0.659498 -0.446157 -0.626093 -0.072374 0.483298 1.101225 1.765768 -0.357111 0.182908 -1.278447 0.292796 -0.121411 -0.519402 3.100343 1.036379 -0.239812 -0.235730 0.771849 -0.234680 0.894860 -0.346662 -0.538299 -1.914998 -0.422811 -0.950544 -0.147196 -1.041410 0.546554 1.117509 1.066025 1.131811 0.487211 1.266777 -0.380338 -1.887408 0.550615 -1.448454 -0.662278 -0.531813 0.330712 -0.321130 -0.062241 0.938516 -0.712497 -1.406672 -1.073337 1.107250 -1.553435 0.906326 -0.630871 1.047573 -1.161066 -0.713892 0.147417 -1.632872 -0.076186 -0.101392 -0.298742 0.680643 -0.806912 -1.110000 -0.115694 -0.251729 0.359767 0.049047 0.025902 0.144501 -0.440781 -0.886863 -0.014888 -0.265345 0.303995 2.324807 -1.056609 2.361599 -0.013109 0.147677 -1.272827 0.210804 -0.912698 0.399189 0.907047 0.139689 -0.495953 -1.408707 -1.032726 -0.961389 -0.496498 0.735029 1.797841 0.121518 0.626691 0.273732 1.177046 1.553388 0.204477 -0.844314 0.683149 -0.197168 -0.013167 -0.700052 -2.069026 -1.034578 -0.243656 0.361110 0.166296 -0.600006 -0.176759 -0.633775 0.357558 0.198897 1.333439 0.915501 0.049655 0.321593 -0.979700 -0.009088 0.598767 0.123130 -0.826802 0.038984 1.653893 0.738996 -0.708834 0.373852 0.942449 0.614872 1.190980 -1.284005 -1.038261 -0.024149 1.455749 -1.906087 0.567922 0.447359 0.377642 -0.235113 0.779158 -0.169954 0.540932 1.165016 -0.478177 0.979843 -1.315273 -0.994604 -0.013936 0.495313 -0.484034 1.767454 -0.691995 1.210400 0.458104 0.552508 1.879527 -0.846445 0.022954 0.820259 -1.705133 0.247046 -2.134195 -2.525708 0.110212 -0.899472 -2.229131 -1.033932 0.713818 0.701654 -0.849924 0.359711 -0.412326 1.051491 -0.560043 0.972377 -0.099204 -0.873229 -3.476418 0.983295 -0.250069 -0.498254 0.276107 -0.385867 0.570075 -0.683484 -0.406630 -0.355817 0.752136 0.505834 0.332655 -1.106434 0.088861 -0.574333 0.279263 0.761066 0.375522 0.222253 1.110692 1.096105 -1.146127 -0.135129 -2.390403 0.717708 0.247027 -0.809804 0.151532 0.296542 0.517282 -1.514587 0.246496 0.807364 -0.551119 0.278067 -0.472296 -0.355455 -1.610795 0.241692 1.587787 -0.559965 -0.435354 2.060779 0.226321 0.376000 0.449099 0.322214 -0.687474 -1.386837 2.552814 -0.429598 -1.170348 0.153619 0.160209 -0.609415 -0.502746 -0.500076 0.141862 -0.075038 2.365863 -0.252136 -0.797372 -0.347738 -0.260591 -1.160722 1.733428 0.335219 0.215989 -1.031045 -1.102253 -0.009279 1.266367 1.419886 1.670045 0.600781 0.228560 1.357066 0.544500 0.286009 -0.079311 1.108657 1.506134 -0.205259 0.895463 -0.511450 1.129779 -0.553422 0.098593 -1.557869 0.042479 -0.703783 1.697781 -0.840028 -1.236589 1.378157 -1.041782 2.028728 0.888411 0.549756 -0.794487 0.244340 1.152640 1.491304 0.240402 2.504681 -0.233913 0.139107 2.590409 -1.629077 -0.709550 0.074028 -0.232330 -1.021720 -0.144383 0.071438 -0.649568 -0.403499 -1.531226 -0.647346 0.071083 -1.577301 0.921692 0.716570 2.158049 2.051304 -0.264278 0.166052 0.184530 -0.050115 0.435870 -0.821404 0.723559 0.641107 -2.155430 -0.594143 0.275622 0.712957 -0.361867 1.105089 -0.467768 -0.955663 -0.419661 -0.967296 0.389494 0.029120 -0.140936 0.014379 0.901775 1.776673 0.852033 -1.407882 0.443457 1.658027 1.119461 0.089275 -0.573483 -1.047858 0.044183 -2.140162 -0.408347 0.011823 1.213006 0.367894 -0.089625 -0.385406 -0.790887 -1.391123 -0.560650 0.484126 0.767487 0.593329 0.150838 -2.337385 -0.048871 0.652105 -0.657170 0.529965 0.957767 0.131296 -1.677237 1.298078 -0.330024 0.113578 -0.812445 -0.081737 -0.936178 0.780310 1.516821 2.037609 0.205245 -0.217469 -1.476582 0.281592 0.625269 -0.624992 -0.029086 -0.693902 0.401992 -0.812800 0.190399 1.576822 1.718007 -0.104966 0.894665 -0.561005 -0.303680 1.188374 -0.702329 0.612080 1.131836 0.241500 -2.418168 0.479975 -1.044971 -1.144977 -1.159956 1.112384 -0.037944 0.882413 1.139954 -0.192859 -0.799004 -0.494029 -0.668200 -0.923588 0.369263 0.244322 -1.194699 0.865793 -0.460255 0.427338 -0.426533 0.233079 0.039127 -0.085302 0.030354 -0.575602 -0.462135 -0.273283 -1.082119 1.258217 -0.615183 -1.957612 2.257315 0.355661 -1.883882 -1.337866 -0.372708 3.125752 0.006840 0.140104 0.405321 -0.316980 0.097535 0.817805 -1.193366 -1.287742 -1.208193 -0.856514 -0.766748 0.076657 -0.669419 -0.508514 -1.770869 0.894162 2.058893 0.025372 0.841346 -1.316399 1.279659 -0.360744 0.985976 -0.108244 -1.116122 1.357366 -0.241161 -2.380491 -0.286863 -1.214829 -1.155352 0.295368 3.063386 -0.485212 -0.843866 0.675864 3.603928 0.423395 -1.207296 -0.278401 0.299348 0.808950 -0.692045 -0.643035 0.139233 -0.665585 -1.040168 -0.851635 -1.648853 -0.772508 0.003029 -0.760231 -0.623293 0.331876 0.419161 0.426313 0.381780 0.318632 -0.543405 0.278845 -1.259155 -1.149114 -0.331743 -0.430858 0.281038 0.230435 0.286337 1.158475 2.513045 -0.021043 0.050686 0.076912 1.392686 -2.017811 -1.016306 -0.933675 -0.998469 -0.139938 1.428172 -0.353803 -0.847639 -1.139456 0.758496 1.081796 -1.583362 0.826992 0.619610 -0.933985 0.309984 -0.416475 2.474666 0.327499 -0.452386 0.618917 -1.042097 -2.212676 0.394809 0.655681 0.937527 -0.064907 -0.376161 1.524964 0.656115 -1.562558 0.851157 1.006984 2.023118 0.933970 -0.427487 -0.727353 1.014299 1.530673 0.242051 -0.148974 -0.121894 0.750607 0.117054 -1.244439 1.153743 0.696275 0.463845 0.509531 0.508597 -0.917508 1.572449 0.567967 -0.402908 -0.449316 1.139959 -0.547537 -0.391479 1.234819 -0.495739 -0.473727 -1.666520 0.114807 -0.798135 0.621779 -0.916488 0.713942 0.701987 0.068566 0.234765 -0.455889 -1.963923 1.277596 0.003967 -0.844450 -1.396444 1.238875 -0.351364 1.227745 0.358286 0.270127 1.641063 -0.710217 -0.458571 1.082236 1.339574 0.329229 -0.471425 1.286612 -1.828076 0.044505 0.826810 2.502571 -0.357753 -0.085808 -0.393586 2.034819 -2.060099 -0.193408 -1.926919 -1.855980 2.045948 -1.285807 -0.254228 -1.380492 -0.240393 0.818226 -1.058603 -0.907188 -0.175222 -0.308249 -1.473428 -0.437783 -2.506789 -0.694459 -0.660394 0.804673 1.267857 -1.114883 0.951999 0.369325 1.062695 -1.312847 0.855052 1.231240 0.031194 -2.745670 -2.681609 -1.522926 -1.491354 -1.616122 -0.101251 -1.803078 -0.466249 0.825108 -1.957502 -0.804922 1.372219 0.794711 -0.996633 -0.758570 -1.127288 -0.920763 -0.063008 0.542082 0.055256 -0.068756 0.202374 -1.018915 -0.001289 0.657506 -0.494241 -0.620060 -0.583012 -0.467365 -1.082369 2.057330 1.601002 -0.277760 -0.004132 -1.224310 -0.976681 1.942094 0.411481 -0.680427 0.146363 0.416468 -0.115630 -0.744901 0.066199 0.449918 1.481999 0.513451 0.557138 0.657259 -1.437988 -1.042821 0.425239 1.293899 -0.782022 0.804761 -1.235178 0.004646 0.949191 2.901477 0.601183 -0.351120 0.650078 -0.710882 -0.611387 0.193276 -0.275792 -0.501531 1.718456 0.156967 -1.832023 1.695737 1.432552 -0.513551 0.246659 0.152894 0.790074 -2.293734 -0.201270 1.975748 -1.009951 -0.717287 1.799682 -0.795303 0.215764 -0.429935 1.136077 -0.795072 -0.746437 -0.440153 -0.495360 -0.516464 0.402896 0.215010 0.219349 -1.215526 -0.030045 -0.045221 0.544546 1.038216 2.214406 -0.327148 0.776681 -0.536713 0.362147 0.065159 0.454336 0.107426 0.018166 -0.566739 1.322901 -0.356281 0.502361 2.499369 -2.460822 0.265618 0.305062 -0.624417 0.198589 -0.725630 0.918144 -0.748464 0.191348 -0.983624 -1.723840 1.520656 -1.134254 1.108622 -0.473988 -1.799213 -0.383990 -0.354216 1.063121 1.341441 -1.307341 -2.150694 1.334033 -0.285955 -0.382121 -1.237040 1.038413 1.490606 -0.874290 0.408525 -1.722902 2.104727 0.229497 1.392157 -0.336492 -0.305000 -0.674769 -0.371339 0.256658 -0.013730 0.342993 -1.053216 -0.752259 -1.068388 0.572069 0.345919 0.071813 0.020846 0.861287 -0.607636 0.457188 2.549048 0.461114 1.750711 0.109573 -0.500115 -0.994104 0.533015 0.946442 -0.359998 0.335556 -0.197119 0.005625 -0.434508 -1.081917 1.162433 -0.860403 -0.084160 1.503746 0.512164 -0.052007 -0.551530 -0.336064 -1.117972 0.939905 -0.871778 -0.907827 0.072120 0.252510 -0.358295 0.528891 -0.328559 0.425703 -1.237326 1.992865 -2.119063 0.433265 0.437490 1.739230 -0.053693 0.082528 0.207404 1.723712 -0.958672 1.547308 0.279061 0.187061 0.953327 0.186792 -0.550336 -3.344323 0.119625 -0.059114 -0.544992 -1.177046 0.594902 -0.034519 0.261801 -0.311559 0.533063 -1.332981 -0.405394 0.318359 0.129082 -0.707794 0.329911 -0.346161 -0.187505 1.285108 -0.450543 -0.473690 -1.092629 -0.136274 -0.146873 0.434497 -0.398825 -0.313604 1.288596 -0.242443 -0.148404 0.665753 1.136485 -0.593850 0.248859 -1.896749 1.348899 1.681076 1.299236 0.381134 -0.952746 0.250703 -0.396420 1.605404 0.326438 -0.101167 0.094492 0.350757 1.261786 -0.356942 -1.111616 -1.654632 0.605708 -1.102672 0.407429 -1.109753 -0.768340 1.781857 0.857544 0.732707 1.407191 -3.254137 -0.193845 -0.308850 -2.004732 -0.478420 0.063592 -0.587354 2.681168 0.253883 1.407004 1.211255 -1.112206 -0.860956 -1.014365 1.008590 -0.207362 -0.375501 0.079898 0.292423 -1.679335 -0.446485 0.886010 0.344007 0.016729 -0.553076 1.237308 -0.992057 0.795060 0.697976 0.280310 0.834047 0.721218 -0.764848 0.274106 0.208949 -0.552741 0.062008 1.417477 -0.385296 0.497179 -0.838947 0.952707 -0.758673 -1.443452 -0.509298 0.069061 0.618960 -0.146398 -0.009206 -0.453445 -1.017086 0.021445 -0.918056 1.133735 0.726970 1.338228 -0.787501 1.882717 1.030206 -0.660551 0.823603 -0.245489 -1.202987 -0.249586 -0.978344 -1.470570 0.861243 0.004290 2.231149 1.834435 1.044058 1.946772 1.038998 -0.488689 0.968399 0.408563 0.828766 1.918548 0.952191 -0.368358 -2.168870 0.676365 -1.095173 0.054453 -0.977994 1.254303 -0.289177 0.190842 -0.128139 0.785804 -0.278637 -1.030124 1.147816 0.097078 -0.733228 0.429060 -0.982951 -2.151188 1.130433 0.025738 0.529453 0.353728 -0.888010 -0.395146 0.538746 -0.274118 -2.609632 1.234816 0.200855 0.057591 -0.461943 -0.823298 -0.525005 1.725380 0.568438 0.336246 -0.590649 0.540631 -0.129489 -0.065353 -0.125813 -1.765565 -0.135599 -0.099045 0.573383 1.239506 1.076601 -1.753985 -1.160150 -0.857268 1.238512 1.212241 0.015182 0.881291 -1.084705 0.322905 -0.202959 0.258487 -0.165676 -0.502259 1.800566 0.157015 1.095111 0.543385 -0.216335 -0.101829 0.450740 0.875846 -0.959006 -0.819675 1.046679 -0.590979 -1.822340 1.494935 1.051856 0.702225 2.152814 -0.875813 0.269189 0.351712 -0.438153 -0.584152 -0.173045 -0.220125 -0.172783 0.722292 0.184361 -0.508153 -0.995454 -1.502665 0.792271 1.064086 1.433419 1.284830 1.390667 -0.536751 0.633810 -1.667097 1.214720 0.423417 -0.703678 -1.200803 1.502402 0.041780 -2.654775 0.812649 -0.917224 0.274913 -1.275433 1.201383 0.366026 -0.361426 -1.325372 0.535291 -0.588311 0.122700 -0.840883 -1.401128 0.304293 0.393175 0.393999 0.401712 -0.413876 1.284547 1.771820 -2.176253 1.222159 0.890132 -0.103148 -0.055518 0.710112 -0.115503 -0.859854 1.604171 -1.542344 -0.768874 0.191902 0.092921 0.738935 -0.135372 0.083215 0.227318 -1.251265 -0.107208 0.408433 -0.634541 -1.300717 1.179078 0.329588 1.065731 -0.413051 -0.149370 0.629833 1.884263 0.007831 1.422662 1.159529 -0.307096 -2.239130 0.515405 -0.580023 0.572736 0.989374 0.882914 0.943086 -1.686608 0.536418 -0.276363 -0.700183 -1.557512 -0.117895 2.043417 1.752096 -1.134030 -0.346617 -0.100973 -0.108977 1.054411 0.467015 -0.623740 -0.371949 0.125010 -0.289500 -0.297526 -1.114530 -2.554248 -0.069064 -0.164839 0.518834 1.218412 -0.974185 1.060478 -1.102992 -0.853288 -0.125479 0.128214 -0.114310 -1.616113 2.550088 1.608151 -0.810721 1.193110 0.985911 0.647575 -0.327966 -0.327381 -0.336395 -0.515977 -1.752042 0.080705 -0.135303 0.555722 1.243530 -0.301745 0.697059 0.024574 -0.656520 0.884867 0.393199 1.610515 1.268421 -0.973580 0.340071 0.401112 -2.635168 -0.881157 -1.118417 -1.244901 -1.911455 -0.691674 -1.788675 0.051694 -2.020670 -0.831491 0.590870 0.342718 -0.451775 -1.667737 0.268113 1.026968 -0.824619 -0.646804 -0.667569 0.822224 -0.778229 -0.571174 -2.594256 -0.048993 -2.330645 0.171419 0.659607 -0.352423 -0.146118 0.267293 0.424839 0.419527 -0.613027 -3.463588 -0.167078 -1.086035 -0.393786 -0.435808 0.412879 -0.184189 2.302204 -0.084966 -0.681643 -0.714304 0.061256 0.467224 -1.343633 -1.176708 -0.141608 -0.867931 -1.972656 -0.902328 -0.188560 -0.404338 1.058005 0.254586 -0.397633 -0.818013 -0.458390 1.014779 1.158296 -0.064778 -0.041885 0.119128 1.090707 0.966498 -0.008811 1.332511 -0.529980 1.039259 1.647837 -0.915076 0.769718 0.630795 1.215784 -2.696704 0.685745 -0.900127 0.422456 1.017668 0.853529 -0.014791 -1.204793 2.204947 -0.331220 -1.375575 0.331941 0.726051 -0.981155 0.032859 0.926032 0.777437 -0.897610 -0.464508 0.311539 0.723587 -0.274923 -0.196228 -0.914848 -0.688678 -0.489329 0.291321 0.015747 -0.138453 1.400268 0.566336 -0.121168 0.085781 -1.396614 0.187967 1.326043 0.804417 1.303715 -0.247304 0.223383 -0.284641 -0.260155 -1.169910 -0.694560 0.587399 1.093655 -0.479284 0.004955 2.490225 -0.063428 1.399208 1.820162 1.265345 0.242547 1.083834 0.329254 -1.278962 -1.141517 1.221065 -0.151839 -1.011759 -0.668687 1.112952 0.238689 0.331953 0.378215 0.224858 0.097853 1.640914 -0.870342 -0.003298 -0.724760 -0.540103 0.943735 0.614083 1.177054 -0.421282 2.078098 -0.189921 -0.134141 -0.786115 -0.851100 1.214003 -0.696201 -0.596819 -0.281862 2.047002 -0.279362 0.563957 -0.156140 1.974105 1.479992 1.281141 0.403484 1.168920 1.767249 -1.334297 0.310639 0.134170 -0.221040 -0.963033 -1.493884 -1.874776 -0.126635 -1.606369 1.629377 -1.784057 0.128719 -0.369236 -1.608467 0.969202 -0.849227 2.742368 2.189219 0.327309 0.841673 0.205123 0.367599 -0.599386 -0.928741 -0.325821 -1.400135 0.432243 0.542237 0.568424 -0.754986 -1.146905 1.354766 0.152129 -1.569386 0.892641 -0.820791 0.879153 -2.046494 0.684900 1.228196 -0.707352 1.036386 0.191591 -0.596311 1.175457 -1.253796 0.491527 0.145931 0.047445 0.108970 -0.649442 -1.075600 -0.829670 -1.501006 0.904410 -1.755737 -0.002445 0.853559 0.805364 -0.567502 -0.249015 -0.117977 -0.220038 -1.145310 -0.253957 -0.446759 0.324125 0.404619 0.525746 -1.636584 1.718182 -0.069532 0.534135 1.802730 -0.043887 -1.393399 0.549830 -0.230572 -1.069162 0.284566 0.175301 -0.008787 0.099956 -0.333731 -1.589416 -1.341892 -1.152843 0.208541 0.528025 0.360183 -0.229973 0.191602 0.511490 -0.213328 -0.342968 0.910955 0.422847 -0.461431 0.530801 -0.828984 -0.590020 0.267045 0.072201 -0.178054 0.451473 -1.713623 0.953421 -0.618867 -1.207432 -0.324631 1.751713 -0.160695 -0.109200 0.148953 -1.123607 0.499239 -0.296641 0.988784 0.558033 1.134164 -0.218910 0.772616 -0.637908 -1.244216 -1.958799 -1.839772 1.031159 0.582947 -0.259797 -0.514207 0.718581 -0.530107 -1.866331 0.495602 0.660102 0.081981 -0.545116 -0.111546 -2.723307 2.301518 -1.075857 0.264151 -0.030146 -0.039383 0.163333 0.332046 -1.050508 1.359026 -0.647467 -1.186378 1.835706 2.160816 1.011056 -0.396261 -1.420733 1.197994 -0.765601 -0.119506 1.036046 -0.935939 -0.562111 1.395686 1.340870 -0.384548 -1.090513 -0.042163 0.469961 -0.567323 0.263657 -2.032506 -0.900402 1.610057 -0.898159 -1.540321 0.932960 0.000325 -0.720988 1.685098 0.006845 -0.113551 -0.003808 0.197857 0.758756 -1.054124 1.382754 2.529102 -0.227221 -1.321648 -0.103550 