2.945186 2.945186 2.945186 2.945186 2.945186 2.945186 2.945186 2.945186 2.531173 2.525981 2.520799 2.568721 2.563453 2.558524 2.553277 2.670748 2.790594 2.881088 2.875178 2.875940 2.873276 2.873681 2.876694 2.873289 2.868074 2.883219 2.880817 2.875325 2.869489 2.863655 2.859046 2.853286 2.847761 2.841947 2.842418 2.836672 2.836543 2.832190 2.827694 2.831419 2.825719 2.821599 2.815838 2.813598 2.808474 2.804013 2.821453 2.816432 2.816651 2.813083 2.807764 2.802349 2.801105 2.795812 2.794937 2.789424 2.786978 2.783259 2.778490 2.776207 2.775553 2.773397 2.775765 2.789824 2.785605 2.787542 2.786277 2.782613 2.777181 2.772358 2.768184 2.767979 2.766337 2.767399 2.763291 2.767968 2.764445 2.762107 2.760906 2.765164 2.778670 2.778480 2.781687 2.777745 2.782492 2.778040 2.777093 2.784125 2.792227 2.788566 2.787096 2.782241 2.783997 2.785525 2.780723 2.775592 2.777356 2.773896 2.775522 2.776770 2.771793 2.770242 2.769103 2.766763 2.765419 2.768267 2.768154 2.766068 2.767379 2.765671 2.762236 2.757656 2.759384 2.756136 2.758076 2.763716 2.762075 2.759172 2.756535 2.762008 2.764139 2.765396 2.761220 2.756729 2.751631 2.748528 2.747375 2.743701 2.742952 2.742397 2.749023 2.754579 2.750930 2.751517 2.747872 2.744864 2.754569 2.758472 2.760117 2.761097 2.759079 2.757188 2.753343 2.749382 2.744481 2.741509 2.742263 2.738871 2.738396 2.735253 2.731495 2.736459 2.736351 2.735388 2.733544 2.730757 2.725476 2.725321 2.727532 2.723753 2.720691 2.719654 2.715757 2.713479 2.710636 2.708642 2.708088 2.706127 2.703099 2.709196 2.713726 2.712629 2.714259 2.715304 2.712444 2.709548 2.707492 2.702797 2.700721 2.698077 2.696251 2.692271 2.691950 2.701490 2.705548 2.704181 2.702338 2.701205 2.697637 2.699656 2.696518 2.703282 2.705840 2.704496 2.701275 2.700739 2.702910 2.698125 2.695207 2.693533 2.690847 2.689154 2.686616 2.685756 2.689310 2.685580 2.689178 2.689630 2.700927 2.698337 2.695584 2.695867 2.694124 2.693048 2.696188 2.695311 2.695079 2.693051 2.694730 2.692492 2.695193 2.692633 2.696199 2.691894 2.692107 2.692405 2.688497 2.689122 2.685536 2.686656 2.683981 2.680390 2.679128 2.674486 2.670051 2.671367 2.674686 2.675472 2.672622 2.677375 2.675385 2.671876 2.668090 2.670912 2.673148 2.669338 2.667104 2.665577 2.664682 2.667953 2.665843 2.662943 2.660968 2.662270 2.663426 2.663154 2.669978 2.666041 2.665875 2.663854 2.665013 2.664114 2.660130 2.657086 2.653204 2.654684 2.657208 2.658264 2.658519 2.658555 2.655849 2.653662 2.649884 2.648524 2.645315 2.645684 2.643574 2.644351 2.648574 2.646252 2.642218 2.645924 2.647017 2.644666 2.648399 2.648902 2.648480 2.650908 2.649635 2.646153 2.653739 2.651561 2.649996 2.653445 2.657918 2.654362 2.653613 2.650805 2.647106 2.649740 2.647437 2.643546 2.640961 2.642986 2.644947 2.642383 2.637784 2.639687 2.638604 2.636427 2.635205 2.637221 2.635255 2.631553 2.630000 2.628248 2.627024 2.627796 2.627700 2.628092 2.627538 2.629108 2.634150 2.633643 2.637042 2.639605 2.640167 2.637950 2.638168 2.636762 2.638126 2.638815 2.636161 2.636647 2.637760 2.637224 2.637313 2.635648 2.635926 2.633096 2.634786 2.632537 2.628833 2.626679 2.625796 2.626776 2.622565 2.622382 2.618826 2.616398 2.618065 2.617320 2.616000 2.621766 2.621418 2.618953 2.616966 2.613268 2.619317 2.616925 2.614067 2.611549 2.609797 2.610515 2.608981 2.609994 2.611611 2.611045 2.615108 2.614321 2.619270 2.622298 2.620183 2.618807 2.618344 2.621016 2.625641 2.629771 2.632367 2.636373 2.635639 2.636046 2.643908 2.639654 2.643492 2.641208 2.639086 2.636316 2.638035 2.636925 2.637830 2.638391 2.639986 2.636300 2.635499 2.635737 2.638659 2.634991 2.633054 2.630354 2.630287 2.627007 2.629337 2.630031 2.633160 2.632448 2.633053 2.640935 2.639262 2.641564 2.640827 2.640681 2.638290 2.635544 2.635813 2.632244 2.628720 2.626438 2.623198 2.627501 2.625628 2.627446 2.628438 2.625677 2.633711 2.637828 2.635017 2.633501 2.633347 2.633793 2.634889 2.632787 2.633704 2.633136 2.630803 2.629357 2.635166 2.637211 2.638059 2.638290 2.639479 2.644006 2.643093 2.647180 2.649608 2.655318 2.653926 2.652084 2.648173 2.650115 2.651916 2.654359 2.651804 2.648755 2.650570 2.650303 2.647295 2.649128 2.649942 2.647358 2.645771 2.644531 2.642233 2.645367 2.643432 2.643129 2.643652 2.641972 2.640785 2.639229 2.640652 2.637844 2.635259 2.634004 2.635093 2.637139 2.639445 2.635348 2.636713 2.635257 2.633942 2.634025 2.635910 2.635835 2.631965 2.636121 2.636073 2.635997 2.633031 2.632805 2.630390 2.630832 2.630877 2.635303 2.635100 2.636246 2.632569 2.629372 2.629969 2.635314 2.632359 2.630663 2.629988 2.628944 2.629847 2.626747 2.626419 2.625890 2.623316 2.624273 2.622012 2.620650 2.619176 2.616638 2.614224 2.611121 2.612986 2.614879 2.614534 2.615170 2.612089 2.608369 2.605596 2.603706 2.610206 2.614113 2.612370 2.609284 2.608184 2.610642 2.608861 2.609125 2.614760 2.617735 2.618452 2.618357 2.620237 2.623347 2.620964 2.617650 2.614758 2.614767 2.616611 2.615040 2.611876 2.609836 2.609812 2.607336 2.607569 2.609606 2.607969 2.611892 2.611530 2.610517 2.613146 2.611539 2.611785 2.611242 2.608694 2.607157 2.609550 2.609028 2.605356 2.604236 2.608237 2.609102 2.606279 2.605779 2.606160 2.609077 2.608756 2.614518 2.615825 2.617109 2.619983 2.618290 2.618068 2.621331 2.622084 2.623572 2.630712 2.627728 2.626395 2.626019 2.625207 2.623409 2.625941 2.627198 2.626613 2.625194 2.623355 2.623367 2.623231 2.619976 2.617128 2.617101 2.615966 2.619903 2.618343 2.620765 2.621109 2.622708 2.619603 2.617361 2.616227 2.621265 2.618445 2.615641 2.612471 2.613227 2.614482 2.610986 2.609028 2.606620 2.604986 2.602816 2.600787 2.599312 2.601390 2.606872 2.608948 2.608340 2.608239 2.606976 2.606616 2.607909 2.606194 2.603799 2.604978 2.605935 2.608504 2.608395 2.607742 2.603869 2.600039 2.598444 2.594478 2.593521 2.591135 2.590098 2.590214 2.586535 2.584893 2.589306 2.586303 2.583573 2.584262 2.581822 2.582258 2.581748 2.584892 2.582359 2.580094 2.581045 2.584918 2.581594 2.581294 2.577855 2.578042 2.577387 2.579928 2.581837 2.588287 2.590042 2.588250 2.594493 2.592040 2.594789 2.593225 2.589648 2.587695 2.589205 2.590310 2.586843 2.586133 2.587353 2.587228 2.587141 2.587590 2.584821 2.587607 2.591815 2.593003 2.593780 2.595301 2.597988 2.598456 2.596742 2.594263 2.594951 2.594264 2.593016 2.589842 2.591451 2.587514 2.586991 2.584639 2.584107 2.583150 2.581010 2.578863 2.576764 2.578890 2.576802 2.573296 2.573646 2.576316 2.574069 2.575065 2.578202 2.576736 2.573115 2.573540 2.575154 2.579122 2.580283 2.577759 2.578069 2.577387 2.578153 2.577502 2.577168 2.579871 2.580774 2.578671 2.577028 2.574430 2.573290 2.571873 2.569871 2.570644 2.572491 2.570454 2.570896 2.567751 2.568982 2.567156 2.569414 2.568081 2.567792 2.568697 2.569865 2.570214 2.569382 2.570319 2.567887 2.566418 2.567281 2.565365 2.562267 2.564194 2.563840 2.565228 2.562229 2.562530 2.564725 2.564685 2.567609 2.565828 2.564355 2.565712 2.562147 2.560240 2.563630 2.562730 2.559940 2.558729 2.559600 2.561137 2.558476 2.555984 2.553367 2.555972 2.553922 2.552098 2.553023 2.550857 2.557244 2.554643 2.558403 2.555227 2.553006 2.553210 2.551300 2.550370 2.555580 2.558262 2.557684 2.556882 2.555318 2.552778 2.551421 2.556357 2.551768 2.555904 2.557818 2.557007 2.554500 2.553300 2.555216 2.562886 2.562332 2.564528 2.562455 2.560631 2.562582 2.559270 2.562237 2.561298 2.561399 2.563797 2.563469 2.560993 2.559366 2.562203 2.558587 2.557052 2.554605 2.553568 2.560359 2.559444 2.565470 2.567058 2.568851 2.569207 2.569837 2.575308 2.576520 2.576369 2.576159 2.576431 2.573959 2.573081 2.573534 2.572458 2.570513 2.571641 2.572726 2.574125 2.573905 2.574360 2.580570 2.580305 2.578428 2.580045 2.580775 2.581574 2.582339 2.579078 2.579076 2.575377 2.573307 2.576676 2.574699 2.573204 2.572861 2.573015 2.570436 2.570390 2.571019 2.569451 2.571783 2.572031 2.570818 2.569210 2.568464 2.567966 2.568609 2.569933 2.568542 2.567254 2.565700 2.564992 2.561210 2.564209 2.563316 2.565862 2.564377 2.562015 2.563195 2.568432 2.567715 2.576564 2.577408 2.579849 2.578303 2.580467 2.580050 2.581030 2.581080 2.579700 2.576145 2.580051 2.581045 2.579971 2.578111 2.575332 2.577262 2.576397 2.577193 2.577277 2.577154 2.574696 2.571948 2.577429 2.575717 2.573848 2.578468 2.576425 2.573143 2.571333 2.570099 2.573489 2.570010 2.570616 2.567704 2.566360 2.567041 2.567522 2.570642 2.567413 2.567818 2.567495 2.566109 2.563602 2.561638 2.562227 2.560402 2.563279 2.560028 2.559516 2.559851 2.560180 2.558802 2.555707 2.552320 2.556184 2.554509 2.555616 2.552544 2.554499 2.550992 2.551932 2.553373 2.553426 2.553777 2.552552 2.553728 2.552516 2.552310 2.552205 2.550142 2.549002 2.551002 2.553136 2.554361 2.551150 2.552889 2.554260 2.556543 2.553957 2.554677 2.553909 2.549908 2.548530 2.549158 2.547643 2.543339 2.542457 2.543147 2.542024 2.539353 2.544142 2.542177 2.542998 2.543027 2.542525 2.541425 2.544197 2.543376 2.542926 2.540045 2.540566 2.539078 2.541722 2.545565 2.545671 2.544666 2.551970 2.550065 2.547685 2.549079 2.550810 2.550027 2.549314 2.550115 2.549981 2.546779 2.544850 2.544870 2.545125 2.545413 2.550636 2.547889 2.544130 2.545234 2.543571 2.545659 2.542332 2.539020 2.537614 2.538147 2.536159 2.534987 2.534030 2.532374 2.531301 2.528551 2.530738 2.528081 2.529377 2.529166 2.529222 2.535019 2.535422 2.532411 2.531013 2.532431 2.534164 2.537129 2.535984 2.534520 2.533254 2.532366 2.536541 2.537329 2.537381 2.535240 2.533491 2.533782 2.533504 2.532451 2.534046 2.531736 2.530628 2.529895 2.529454 2.532135 2.532384 2.531706 2.530209 2.529336 2.527030 2.525386 2.521866 2.518768 2.519414 2.516313 2.516598 2.518596 2.516133 2.516221 2.517043 2.517087 2.517573 2.517653 2.515072 2.512261 2.514914 2.519288 2.518490 2.520903 2.520497 2.521898 2.526050 2.526335 2.525317 2.525193 2.527938 2.525811 2.527573 2.528956 2.527656 2.524711 2.528152 2.526661 2.526000 2.528875 2.530618 2.533481 2.530291 2.530359 2.529582 2.527611 2.528499 2.530633 2.534524 2.541725 2.541610 2.539529 2.538783 2.536458 2.535418 2.537707 2.538259 2.537577 2.538826 2.535671 2.533608 2.533025 2.531326 2.529808 2.527457 2.528689 2.529857 2.529367 2.525461 2.527321 2.532333 2.530493 2.528173 2.526685 2.523896 2.521029 2.519386 2.518838 2.516114 2.517088 2.514456 2.512823 2.509454 2.506967 2.508042 2.504972 2.503006 2.499093 2.497248 2.499966 2.497661 2.496259 2.493761 2.496699 2.499003 2.496021 2.493230 2.492069 2.490709 2.493935 2.493727 2.492057 2.492793 2.496082 2.493496 2.491809 2.492387 2.492898 2.495636 2.492872 2.490914 2.490040 2.487574 2.485543 2.482494 2.485059 2.489000 2.488935 2.487484 2.484329 2.485384 2.483216 2.483878 2.482774 2.482222 2.485548 2.484891 2.486608 2.483494 2.482337 2.479890 2.482524 2.485792 2.487177 2.485731 2.482868 2.482650 2.482549 2.480856 2.478046 2.478409 2.477670 2.474540 2.474677 2.475223 2.480334 2.480870 2.480876 2.478949 2.476042 2.479967 2.478984 2.481908 2.485355 2.484377 2.485582 2.483246 2.481739 2.488063 2.488360 2.484604 2.489430 2.491617 2.491428 2.488506 2.487527 2.487582 2.484936 2.484204 2.482142 2.480857 2.481646 2.482099 2.482935 2.481446 2.479859 2.477988 2.479691 2.480864 2.479585 2.480902 2.481001 2.477724 2.478453 2.476301 2.475648 2.478351 2.482395 2.479397 2.484883 2.483945 2.483886 2.482111 2.479353 2.479723 2.479427 2.477429 2.477656 2.477557 2.482099 2.482112 2.481386 2.479857 2.481139 2.481623 2.481078 2.480030 2.478076 2.475711 2.474586 2.473942 2.470642 2.468038 2.469203 2.475547 2.473925 2.472224 2.471038 2.468273 2.467799 2.465147 2.467310 2.472344 2.470628 2.469745 2.473529 2.473524 2.475960 2.473727 2.474599 2.481296 2.481498 2.481995 2.481209 2.480536 2.476645 2.479668 2.482162 2.483244 2.480161 2.478550 2.474702 2.472556 2.470850 2.470490 2.467827 2.465712 2.465792 2.468896 2.465611 2.465674 2.464074 2.465529 2.464066 2.462491 2.461638 2.462355 2.460990 2.462674 2.465771 2.464895 2.462619 2.462326 2.459095 2.462148 2.460374 2.461097 2.460544 2.458934 2.457738 2.460151 2.458894 2.457698 2.458001 2.456608 2.456558 2.453798 2.452881 2.455277 2.453099 2.454698 2.453228 2.457274 2.456665 2.459308 2.458804 2.459949 2.461417 2.459173 2.463373 2.461438 2.461582 2.459052 2.460488 2.458884 2.457832 2.456016 2.453920 2.451727 2.454564 2.452459 2.451671 2.454091 2.454482 2.451355 2.454747 2.454869 2.456423 2.454374 2.454435 2.454336 2.452536 2.455267 2.457156 2.461391 2.458790 2.462619 2.462466 2.462973 2.460544 2.458832 2.459039 2.456045 2.453341 2.453240 2.455108 2.451656 2.449086 2.447022 2.447042 2.450094 2.447551 2.449417 2.450548 2.449610 2.453364 2.452939 2.453673 2.457101 2.459303 2.460197 2.460295 2.459478 2.459644 2.459941 2.464719 2.466422 2.466907 2.467929 2.466419 2.469460 2.467034 2.464422 2.461325 2.460243 2.463786 2.461419 2.466000 2.463315 2.463591 2.462706 2.467026 2.467898 2.471404 2.470794 2.471476 2.474361 2.474259 2.478649 2.476923 2.480632 2.484977 2.481239 2.477157 2.476712 2.481372 2.481743 2.484253 2.481667 2.484197 2.483255 2.479722 2.478994 2.478377 2.480598 2.483873 2.486540 2.482799 2.484762 2.480383 2.482189 2.482288 2.484619 2.484003 2.482224 2.478029 2.476642 2.476922 2.477013 2.478221 2.478120 2.474877 2.473425 2.474991 2.476648 2.475996 2.474925 2.475399 2.472131 2.470444 2.470263 2.470781 2.469802 2.473845 2.472674 2.471617 2.472705 2.471060 2.467415 2.466769 2.465626 2.468373 2.468395 2.465758 2.462134 2.458758 2.461793 2.460827 2.457079 2.457594 2.454811 2.454252 2.452713 2.449798 2.448859 2.446147 2.446262 2.447358 2.451233 2.449376 2.451037 2.453628 2.450716 2.453717 2.455736 2.457290 2.457573 2.456375 2.455164 2.454343 2.458103 2.457030 2.457967 2.458049 2.456082 2.457891 2.457935 2.458168 2.456824 2.455395 2.457612 2.459416 2.465541 2.464906 2.467075 2.465874 2.468250 2.466814 2.469859 2.470310 2.473739 2.471066 2.469315 2.469946 2.474270 2.471909 2.469469 2.468317 2.470500 2.471401 2.468095 2.465004 2.461356 2.463182 2.464053 2.466985 2.467331 2.466248 2.463949 2.462499 2.460227 2.463151 2.467896 2.466408 2.465704 2.464628 2.463788 2.465390 2.466778 2.465434 2.465149 2.469087 2.469660 2.466418 2.466660 2.469682 2.470258 2.471092 2.470905 2.469464 2.468516 2.468007 2.473329 2.475362 2.477419 2.476730 2.485079 2.486327 2.486335 2.483830 2.482909 2.485456 2.484884 2.482150 2.481984 2.483108 2.481897 2.482323 2.480654 2.481748 2.484744 2.485892 2.485202 2.483780 2.483837 2.485695 2.486781 2.484816 2.488385 2.485449 2.486048 2.487039 2.485297 2.493501 2.491198 2.490180 2.489639 2.491406 2.489770 2.488512 2.487671 2.485063 2.484536 2.482940 2.484717 2.484630 2.492153 2.491725 2.491025 2.498007 2.496625 2.498842 2.495905 2.497479 2.494955 2.495429 2.496479 2.496702 2.494707 2.494989 2.499508 2.499010 2.497667 2.497667 2.498351 2.497089 2.500279 2.507853 2.507109 2.506535 2.506283 2.507796 2.505643 2.505803 2.509003 2.509695 2.507957 2.508926 2.509460 2.516457 2.519985 2.524750 2.526699 2.535022 2.539460 2.540120 2.538171 2.537779 2.538015 2.539260 2.537955 2.538313 2.536937 2.536035 2.540187 2.543113 2.541162 2.540050 2.541214 2.543911 2.545084 2.549619 2.552722 2.555247 2.558638 2.559747 2.561071 2.564080 2.565578 2.568344 2.566616 2.568843 2.576616 2.573292 2.575507 2.577616 2.581322 2.581151 2.578423 2.578818 2.577288 2.578639 2.575885 2.578032 2.578289 2.576889 2.577470 2.575638 2.573644 2.575641 2.577576 2.580261 2.580795 2.582751 2.581400 2.580921 2.580528 2.587543 2.584763 2.587994 2.591122 2.591483 2.592904 2.590199 2.589006 2.585783 2.601465 2.603515 2.608542 2.607298 2.607835 2.608060 2.608602 2.611541 2.609881 2.613018 2.611959 2.612011 2.611303 2.611283 2.607337 2.610848 2.611730 2.609271 2.613464 2.610881 2.613261 2.614121 2.613650 2.614572 2.613249 2.613835 2.612436 2.613904 2.610981 2.618968 2.622049 2.618728 2.628043 2.627120 2.629780 2.634335 2.634666 2.634576 2.634942 2.639578 2.643113 2.641083 2.642886 2.643599 2.647212 2.647707 2.644943 2.643582 2.644143 2.646301 2.649302 2.651305 2.651238 2.653130 2.651775 2.652884 2.653036 2.653945 2.654694 2.659854 2.660294 2.660506 2.665638 2.665103 2.663546 2.661650 2.659463 2.657182 2.655331 2.658545 2.658053 2.658136 2.660344 2.660817 2.663338 2.665917 2.666916 2.668236 2.665432 2.665512 2.668046 2.668131 2.666549 2.665545 2.666375 2.663299 2.661994 2.662203 2.665917 2.665922 2.662526 2.665061 2.666384 2.662802 2.664928 2.670242 2.670877 2.671632 2.671564 2.668149 2.670722 2.668583 2.665867 2.663000 2.663376 2.669594 2.666193 2.664255 2.665163 2.669427 2.667031 2.668115 2.670644 2.671516 2.671449 2.673677 2.670843 2.673687 2.671430 2.669724 2.671733 2.673520 2.677117 2.676716 2.682386 2.686660 2.684998 2.684732 2.686439 2.684075 2.682422 2.681573 2.681230 2.683072 2.683080 2.688177 2.689603 2.689176 2.695437 2.693457 2.693100 2.693546 2.694097 2.693865 2.693142 2.690057 2.690508 2.689578 2.691817 2.692810 2.692496 2.690897 2.690351 2.688282 2.687345 2.684647 2.683183 2.683409 2.680833 2.682530 2.679491 2.682071 2.679902 2.679868 2.677479 2.678957 2.678020 2.676485 2.674191 2.678950 2.675802 2.683906 2.682022 2.688086 2.685934 2.683434 2.679811 2.676696 2.675375 2.672993 2.674254 2.671872 2.668600 2.669369 2.672421 2.669298 2.666792 2.664966 2.663288 2.661991 2.661255 2.660588 2.658772 2.657085 2.657765 2.656799 2.654495 2.653021 2.649844 2.649729 2.648444 2.647716 2.648354 2.645406 2.648803 2.646990 2.646881 2.645250 2.646386 2.649107 2.650063 2.650550 2.648202 2.645317 2.643943 2.643302 2.643892 2.647842 2.645798 2.645192 2.642727 2.639526 2.639802 2.639405 2.640805 2.639260 2.642682 2.639999 2.640570 2.642271 2.643163 2.641884 2.639237 2.638291 2.638260 2.638798 2.639430 2.639362 2.640516 2.639516 2.641638 2.646084 2.644341 2.643014 2.643064 2.643348 2.641160 2.639675 2.643420 2.644255 2.641187 2.638482 2.643060 2.643097 2.640276 2.645277 2.641997 2.642471 2.641307 2.639268 2.635810 2.637890 2.637578 2.638450 2.639062 2.638215 2.636566 2.634059 2.633825 2.632535 2.631107 2.627941 2.626684 2.627531 2.630899 2.633439 2.630751 2.629730 2.627977 2.625331 2.624324 2.625381 2.622993 2.625345 2.621578 2.619247 2.617422 2.615553 2.613930 2.610862 2.610746 2.608050 2.606149 2.605530 2.605559 2.605213 2.608801 2.609325 2.608443 2.607675 2.606284 2.605322 2.601072 2.602189 2.603391 2.601066 2.599781 2.599846 2.600051 2.603165 2.604905 2.609878 2.609881 2.609411 2.608854 2.607406 2.605414 2.603759 2.600220 2.601094 2.598775 2.599686 2.600094 2.600242 2.600434 2.598344 2.594277 2.591423 2.590973 2.592484 2.593374 2.590942 2.593044 2.590138 2.588301 2.588957 2.585575 2.584582 2.585648 2.583882 2.586615 2.584812 2.586517 2.585334 2.586522 2.584200 2.584765 2.582829 2.581454 2.579925 2.580852 2.580490 2.578434 2.580222 2.577294 2.575112 2.577308 2.577035 2.578541 2.578918 2.578630 2.576003 2.574674 2.576093 2.577587 2.576116 2.574213 2.571857 2.569042 2.565838 2.565947 2.572594 2.571064 2.570839 2.568215 2.565909 2.564267 2.564763 2.562821 2.561125 2.565853 2.566426 2.568010 2.572366 2.571563 2.573492 2.571255 2.570761 2.569195 2.566578 2.565477 2.563472 2.564304 2.560579 2.561393 2.560718 2.564609 2.561563 2.559112 2.559426 2.557001 2.552953 2.549481 2.552446 2.552747 2.551307 2.551593 2.547978 2.547121 2.548057 2.547972 2.545972 2.544596 2.540707 2.540550 2.543774 2.544805 2.542613 2.545471 2.545487 2.545762 2.551253 2.547448 2.544469 2.543251 2.543927 2.544765 2.543782 2.542196 2.541213 2.537874 2.536741 2.536489 2.536146 2.534869 2.543082 2.547969 2.547632 2.546068 2.546415 2.543956 2.544863 2.545536 2.547605 2.545954 2.549129 2.549966 2.554025 2.554063 2.549796 2.553327 2.551849 2.548904 2.554774 2.556746 2.564750 2.564953 2.565339 2.563196 2.564886 2.564893 2.562207 2.560811 2.560584 2.561708 2.562445 2.564792 2.568213 2.573285 2.571396 2.573510 2.571593 2.568981 2.568699 2.569438 2.569153 2.573563 2.570522 2.570430 2.569900 2.568094 2.568887 2.564584 2.563409 2.566793 2.566135 2.563942 2.560770 2.561397 2.560642 2.558703 2.559120 2.555684 2.554237 2.552554 2.551712 2.551232 2.552656 2.549765 2.550778 2.556312 2.555898 2.558009 2.556687 2.557178 2.557366 2.557028 2.554067 2.550656 2.546960 2.546737 2.551305 2.556628 2.557655 2.557094 2.556247 2.560219 2.558009 2.556934 2.555861 2.553089 2.555501 2.555114 2.558628 2.559310 2.559681 2.561689 2.561481 2.560677 2.561087 2.558153 2.557989 2.560467 2.560568 2.561989 2.558595 2.558112 2.559574 2.558431 2.555567 2.558002 2.557646 2.558861 2.560665 2.558539 2.558510 2.558762 2.557198 2.555995 2.554340 2.552431 2.555947 2.552687 2.550798 2.552461 2.554260 2.552877 2.553621 2.556044 2.555168 2.553960 2.552611 2.555487 2.556862 2.554686 2.556106 2.555463 2.554672 2.556095 2.555586 2.557338 2.556796 2.558089 2.559298 2.558931 2.558064 2.556143 2.558305 2.558257 2.556125 2.555551 2.555290 2.554958 2.554432 2.553472 2.553606 2.557544 2.553273 2.552173 2.555090 2.551261 2.549398 2.553977 2.552735 2.551226 2.553231 2.554748 2.554340 2.553224 2.557043 2.555268 2.552369 2.551388 2.552670 2.552789 2.552200 2.558247 2.557770 2.559850 2.556813 2.562306 2.561150 2.558651 2.557907 2.556265 2.554984 2.554072 2.555423 2.556513 2.554898 2.554860 2.554061 2.551651 2.549328 2.552143 2.551094 2.549383 2.549288 2.547993 2.547781 2.550005 2.549279 2.547132 2.546549 2.544932 2.543254 2.544127 2.540507 2.538243 2.536975 2.538081 2.537633 2.536926 2.535361 2.534674 2.534167 2.536544 2.537880 2.539461 2.545038 2.542281 2.542475 2.541612 2.544243 2.547948 2.545489 2.544900 2.541387 2.543967 2.543381 2.546278 2.546640 2.546372 2.546438 2.544124 2.546209 2.547962 2.548501 2.546857 2.546761 2.547872 2.546482 2.545828 2.544345 2.546799 2.544408 2.545766 2.542880 2.547431 2.547525 2.545306 2.546073 2.542514 2.539926 2.538908 2.539672 2.539362 2.537426 2.536605 2.535827 2.535909 2.531944 2.528647 2.531184 2.532461 2.531782 2.531823 2.535349 2.534086 2.531939 2.536523 2.534454 2.534045 2.532139 2.533367 2.534413 2.535276 2.534101 2.534178 2.539927 2.539440 2.540678 2.541929 2.548562 2.551684 2.550960 2.548653 2.550082 2.548841 2.545957 2.545305 2.541607 2.544026 2.548047 2.549367 2.552507 2.554975 2.555572 2.556978 2.561668 2.560666 2.560940 2.558736 2.558860 2.556774 2.556689 2.554645 2.557274 2.558367 2.556416 2.554863 2.553396 2.550989 2.549750 2.547596 2.546689 2.545462 2.546268 2.546411 2.544552 2.543270 2.546723 2.544800 2.544341 2.543976 2.545884 2.546259 2.543616 2.547063 2.546154 2.550492 2.549780 2.548536 2.549191 2.558885 2.562861 2.561670 2.560518 2.562809 2.563274 2.564081 2.564489 2.563304 2.562358 2.566924 2.564706 2.562493 2.566247 2.570734 2.576447 2.576119 2.578584 2.576300 2.580546 2.583141 2.581210 2.581727 2.583445 2.579965 2.582322 2.582053 2.581143 2.577934 2.574352 2.578948 2.577198 2.578672 2.581805 2.579220 2.578347 2.578469 2.580328 2.577699 2.578228 2.580769 2.579325 2.586273 2.590365 2.589829 2.589079 2.589649 2.588620 2.586889 2.586056 2.583924 2.584663 2.586099 2.583873 2.581254 2.579642 2.576697 2.576325 2.575307 2.572758 2.571128 2.570398 2.577977 2.577548 2.574624 2.573159 2.574191 2.574052 2.573463 2.570206 2.573668 2.572787 2.572088 2.575605 2.575184 2.572073 2.573787 2.574866 2.573199 2.569577 2.569659 2.568511 2.570727 2.570706 2.568601 2.570620 2.568582 2.566787 2.570938 2.568734 2.570433 2.567644 2.565806 2.565317 2.564291 2.561308 2.561960 2.560220 2.566719 2.564780 2.563340 2.562632 2.558917 2.555992 2.554255 2.553893 2.552357 2.551562 2.550579 2.551080 2.551725 2.552533 2.551161 2.549300 2.546372 2.546829 2.546781 2.545671 2.545071 2.544333 2.542122 2.538887 2.539531 2.540107 2.539823 2.540156 2.540459 2.544330 2.547090 2.542924 2.544344 2.542566 2.543003 2.545041 2.544822 2.542827 2.548322 2.549031 2.550081 2.553284 2.550493 2.551255 2.554075 2.553550 2.554778 2.559122 2.560394 2.560983 2.564098 2.561836 2.562307 2.559903 2.556360 2.553800 2.555365 2.553442 2.553295 2.551749 2.549161 2.546669 2.547867 2.551164 2.550673 2.551365 2.549620 2.551900 2.549860 2.548830 2.546580 2.543710 2.542102 2.539057 2.538514 2.541513 2.540947 2.537872 2.535849 2.535090 2.535239 2.534092 2.532163 2.530531 2.531179 2.531105 2.529917 2.527089 2.522924 2.520055 2.521370 2.520742 2.524216 2.521105 2.521421 2.520402 2.517892 2.516572 2.513582 2.520594 2.517523 2.517953 2.521989 2.522433 2.521915 2.521136 2.522802 2.519442 2.519827 2.518248 2.517690 2.518750 2.516884 2.515768 2.513991 2.514074 2.511788 2.512189 2.508868 2.508090 2.506266 2.512544 2.511441 2.510084 2.509475 2.513435 2.511179 2.508265 2.509622 2.506962 2.507733 2.505576 2.505575 2.501059 2.498327 2.497385 2.495579 2.494189 2.493314 2.495123 2.493601 2.494904 2.491870 2.490909 2.487526 2.486091 2.483728 2.482342 2.482394 2.480501 2.480945 2.477775 2.477954 2.475267 2.474384 2.477118 2.477498 2.474409 2.475810 2.477068 2.477418 2.474528 2.472895 2.476080 2.474819 2.475885 2.479838 2.481294 2.481740 2.480613 2.481417 2.479586 2.478169 2.479204 2.478888 2.481610 2.486000 2.488096 2.485723 2.482560 2.482550 2.481949 2.477995 2.480231 2.477245 2.475921 2.478588 2.475302 2.474206 2.476542 2.475252 2.477918 2.476692 2.476178 2.477731 2.478071 2.479393 2.478064 2.476947 2.479278 2.477701 2.476664 2.474379 2.473617 2.475167 2.475750 2.477788 2.478127 2.476300 2.474631 2.472775 2.472110 2.470281 2.466559 2.464197 2.464571 2.462074 2.463744 2.463400 2.462428 2.466365 2.467969 2.464791 2.468956 2.466953 2.467788 2.466154 2.464479 2.463169 2.466106 2.464654 2.468002 2.466236 2.462954 2.463299 2.461479 2.460149 2.456914 2.456550 2.459669 2.456956 2.454198 2.452306 2.451090 2.448435 2.445350 2.445576 2.447952 2.445235 2.447449 2.448772 2.449110 2.446752 2.449440 2.448199 2.447211 2.445012 2.444852 2.444238 2.444501 2.442273 2.443652 2.446529 2.444613 2.443086 2.444481 2.444649 2.443523 2.444027 2.442849 2.441629 2.439235 2.442506 2.445327 2.445216 2.446996 2.445093 2.442715 2.442087 2.446040 2.443098 2.440951 2.439751 2.437402 2.440317 2.440573 2.438645 2.436199 2.433145 2.430850 2.431325 2.437029 2.436007 2.436394 2.436940 2.438812 2.436453 2.440024 2.439883 2.439868 2.440550 2.440543 2.442051 2.439434 2.436953 2.437115 2.435687 2.431699 2.428777 2.426292 2.425169 2.424405 2.423604 2.425597 2.424046 2.428288 2.425502 2.425782 2.424838 2.423913 2.425486 2.427945 2.427597 2.424007 2.425936 2.425769 2.423857 2.422018 2.425051 2.428427 2.431868 2.431068 2.429932 2.432305 2.431996 2.430962 2.429607 2.429287 2.431582 2.433433 2.434562 2.433734 2.432349 2.430673 2.429400 2.427284 2.428008 2.428060 2.425636 2.423901 2.421014 2.419063 2.418307 2.414985 2.412514 2.410560 2.409903 2.407020 2.406174 2.407843 2.410961 2.408696 2.410141 2.410374 2.410673 2.411667 2.412579 2.411501 2.410367 2.409097 2.406548 2.403681 2.404959 2.409197 2.408478 2.409196 2.409757 2.407685 2.404860 2.403931 2.402852 2.406889 2.409817 2.407279 2.411222 2.411219 2.408151 2.406771 2.404202 2.404403 2.404616 2.402768 2.400946 2.399649 2.402239 2.403473 2.401468 2.400641 2.398440 2.397815 2.398277 2.397151 2.395542 2.397172 2.396062 2.397816 2.395863 2.398438 2.403222 2.409849 2.410499 2.409735 2.410531 2.413636 2.414860 2.414217 2.410737 2.411491 2.417437 2.414152 2.414303 2.413704 2.415600 2.416728 2.415106 2.415323 2.413673 2.413048 2.410744 2.408553 2.406540 2.404515 2.404205 2.401503 2.399481 2.399165 2.399039 2.398516 2.396926 2.399390 2.396037 2.397923 2.396029 2.403941 2.402447 2.402859 2.406909 2.406019 2.402724 2.403240 2.402626 2.402172 2.403026 2.400714 2.404275 2.403416 2.404839 2.404529 2.407266 2.407448 2.407671 2.406312 2.405660 2.406405 2.406919 2.407496 2.403565 2.402107 2.401872 2.404968 2.403449 2.402604 2.400602 2.400193 2.401967 2.399844 2.397161 2.395321 2.395848 2.395621 2.394294 2.395183 2.392117 2.392340 2.398443 2.397132 2.400411 2.405553 2.405914 2.405985 2.406227 2.410851 2.409342 2.409062 2.412276 2.413726 2.410843 2.409851 2.412183 2.415341 2.414403 2.411027 2.412207 2.410405 2.408870 2.409119 2.410180 2.413219 2.411769 2.413796 2.413915 2.414714 2.412130 2.415085 2.412854 2.416014 2.415636 2.415511 2.416186 2.416699 2.419438 2.420240 2.422182 2.420856 2.421513 2.420502 2.422561 2.423674 2.426272 2.427820 2.432294 2.429604 2.428471 2.431312 2.430295 2.429028 2.429633 2.430451 2.433212 2.431363 2.432456 2.434234 2.436428 2.433030 2.434774 2.436902 2.437835 2.435709 2.432515 2.432214 2.430983 2.431700 2.430164 2.430276 2.433747 2.433646 2.434313 2.432828 2.435714 2.435064 2.437985 2.439536 2.442909 2.445991 2.446325 2.446817 2.447012 2.445910 2.450594 2.449102 2.450607 2.451197 2.453531 2.451082 2.448369 2.447432 2.451357 2.451021 2.452468 2.450728 2.452795 2.451404 2.452990 2.451073 2.449599 2.449464 2.454456 2.455103 2.451980 2.450823 2.449982 2.451959 2.452264 2.450840 2.448465 2.454497 2.453684 2.454210 2.455446 2.454260 2.454550 2.452173 2.451864 2.454563 2.454243 2.453918 2.453066 2.450070 2.446823 2.449930 2.448556 2.447507 2.444971 2.443677 2.441541 2.442943 2.443899 2.442500 2.446666 2.446080 2.446716 2.452495 2.457941 2.457907 2.462669 2.460929 2.460651 2.460011 2.460521 2.461650 2.468119 2.470088 2.471429 2.471368 2.469560 2.467542 2.473648 2.474098 2.472351 2.472286 2.471624 2.473974 2.472768 2.474074 2.474137 2.476017 2.477309 2.477621 2.476457 2.474146 2.473719 2.470944 2.468195 2.471259 2.468529 2.467701 2.465010 2.464062 2.461146 2.458127 2.457076 2.456445 2.453046 2.449673 2.447024 2.445886 2.444389 2.440530 2.440148 2.439480 2.440370 2.438116 2.435706 2.434691 2.431711 2.431376 2.431300 2.434467 2.434978 2.434398 2.432081 2.429993 2.429886 2.429739 2.427544 2.427279 2.435352 2.435300 2.435318 2.433985 2.431862 2.434069 2.431323 2.429523 2.431159 2.429252 2.428845 2.431739 2.432754 2.432099 2.428713 2.427445 2.428646 2.430332 2.431881 2.430688 2.432910 2.430119 2.431346 2.431099 2.432246 2.431079 2.437107 2.435620 2.432970 2.431619 2.430192 2.432618 2.435663 2.436996 2.437259 2.434763 2.434459 2.435544 2.435256 2.432887 2.432306 2.434341 2.432477 2.430847 2.428256 2.428305 2.426525 2.424669 2.425103 2.428728 2.430245 2.432878 2.431582 2.428520 2.427944 2.425813 2.424584 2.426533 2.424032 2.422546 2.425294 2.423044 2.422390 2.422598 2.421373 2.417522 2.415490 2.415029 2.417216 2.424667 2.424697 2.424549 2.423992 2.423777 2.426275 2.426653 2.427248 2.430618 2.427989 2.424988 2.425483 2.422790 2.420430 2.419577 2.424133 2.423539 2.426077 2.424539 2.424443 2.426131 2.429846 2.426288 2.428705 2.429123 2.426354 2.425192 2.426172 2.426938 2.430471 2.433477 2.431402 2.428044 2.427569 2.428830 2.426098 2.427765 2.426494 2.426035 2.425554 2.423424 2.420687 2.418815 2.422099 2.423507 2.425305 2.421534 2.417688 2.417370 2.417826 2.417725 2.420659 2.421799 2.420396 2.420091 2.419604 2.418566 2.419113 2.421176 2.421215 2.417881 2.417340 2.415914 2.416791 2.416528 2.421121 2.421335 2.421591 2.420928 2.419076 2.417660 2.416837 2.414982 2.417090 2.417341 2.416367 2.419561 2.416970 2.420015 2.419191 2.423472 2.424229 2.426269 2.428199 2.426543 2.429251 2.427304 2.430995 2.432915 2.437345 2.438250 2.436753 2.433005 2.431979 2.432800 2.433616 2.439649 2.437252 2.439028 2.437128 2.438916 2.443374 2.443135 2.446037 2.446606 2.445618 2.447913 2.444090 2.447229 2.447237 2.451024 2.454551 2.457141 2.456521 2.456303 2.459056 2.459067 2.458378 2.457872 2.455005 2.453540 2.453447 2.452753 2.453658 2.454309 2.453435 2.454035 2.451328 2.450437 2.450032 2.449308 2.450503 2.449805 2.448364 2.445567 2.450127 2.451765 2.453438 2.453461 2.453637 2.457122 2.454966 2.453705 2.454643 2.454341 2.453851 2.452310 2.454896 2.458820 2.456939 2.456021 2.458321 2.457845 2.462009 2.460063 2.461848 2.462103 2.460233 2.461310 2.463046 2.460067 2.459069 2.457093 2.456553 2.457499 2.454275 2.454602 2.452190 2.451780 2.454331 2.452608 2.449445 2.448970 2.451197 2.450602 2.449492 2.449247 2.452648 2.452184 2.455399 2.454914 2.457410 2.455478 2.454901 2.455159 2.452829 2.453958 2.452715 2.450454 2.451368 2.450435 2.450557 2.449321 2.450893 2.452892 2.453621 2.454557 2.461483 2.461781 2.462646 2.462779 2.461249 2.459759 2.460397 2.460512 2.461470 2.461308 2.461741 2.461377 2.462303 2.460929 2.462233 2.463230 2.464966 2.464697 2.464193 2.466352 2.463109 2.464589 2.465367 2.465600 2.464355 2.468229 2.468739 2.471371 2.473711 2.472362 2.475383 2.476038 2.475759 2.475649 2.477314 2.478677 2.475853 2.478477 2.482749 2.481708 2.485127 2.486295 2.489721 2.489805 2.493589 2.493592 2.492008 2.493887 2.493955 2.497669 2.497826 2.498593 2.497246 2.496315 2.498406 2.498749 2.499223 2.500608 2.502022 2.504136 2.503614 2.500557 2.500009 2.502985 2.500631 2.506073 2.507993 2.506190 2.507865 2.507575 2.507156 2.505479 2.502672 2.504598 2.504106 2.501804 2.504660 2.502705 2.503320 2.505661 2.510624 2.509632 2.508661 2.508179 2.509826 2.508629 2.506857 2.506086 2.503859 2.504556 2.505326 2.504269 2.501812 2.504264 2.501982 2.500576 2.498310 2.500280 2.503294 2.499111 2.499176 2.503380 2.500426 2.505336 2.505225 2.506530 2.507615 2.507071 2.508712 2.512257 2.509863 2.510314 2.509997 2.510233 2.511452 2.508214 2.508967 2.511119 2.510010 2.509773 2.506295 2.507331 2.510382 2.512846 2.512512 2.513323 2.513459 2.510842 2.513787 2.512286 2.510988 2.510872 2.510329 2.512778 2.510140 2.509731 2.507368 2.505972 2.503981 2.503032 2.500218 2.497858 2.496854 2.493894 2.490910 2.492416 2.492502 2.489044 2.490000 2.489742 2.490314 2.489118 2.488768 2.485992 2.484965 2.483536 2.483919 2.480612 2.479914 2.479426 2.480149 2.478846 2.480347 2.479686 2.480492 2.479074 2.480225 2.477134 2.477461 2.480395 2.480644 2.477334 2.477061 2.477405 2.479587 2.477751 2.476645 2.476319 2.473940 2.473617 2.476750 2.475889 2.472986 2.468704 2.466520 2.467268 2.466902 2.465636 2.470124 2.471907 2.471596 2.469991 2.467317 2.464387 2.464740 2.464316 2.465904 2.467219 2.471600 2.472699 2.474067 2.471875 2.471262 2.472622 2.473843 2.470871 2.472801 2.477706 2.480557 2.480757 2.476797 2.474935 2.476660 2.473934 2.474968 2.473130 2.477314 2.473951 2.474156 2.475705 2.477875 2.476241 2.475499 2.473212 2.472208 2.471089 2.469649 2.465942 2.465805 2.462600 2.462011 2.462427 2.460425 2.459766 2.463101 2.462495 2.461838 2.463687 2.469274 2.469682 2.466988 2.465313 2.466525 2.470384 2.471205 2.473057 2.475839 2.476887 2.477916 2.480731 2.481537 2.485147 2.485414 2.488164 2.484734 2.485715 2.486376 2.484294 2.482439 2.482168 2.480928 2.478662 2.479460 2.483729 2.483115 2.480885 2.477764 2.478898 2.478762 2.485368 2.484431 2.483793 2.480557 2.485218 2.484675 2.482263 2.484533 2.484712 2.483619 2.482469 2.483728 2.482391 2.479184 2.480819 2.482456 2.481213 2.478671 2.477660 2.479202 2.482278 2.484507 2.484609 2.486377 2.486411 2.486394 2.484472 2.487339 2.488499 2.484212 2.482236 2.481718 2.482383 2.486541 2.486613 2.488827 2.486042 2.482738 2.480622 2.483651 2.483836 2.481009 2.482693 2.481216 2.483336 2.484050 2.482402 2.480347 2.480545 2.481976 2.484453 2.483576 2.487809 2.489134 2.493217 2.500558 2.499040 2.499787 2.499001 2.502471 2.498724 2.503478 2.505585 2.509175 2.507931 2.507513 2.510845 2.514807 2.515215 2.514164 2.515361 2.514746 2.513275 2.512566 2.509928 2.509346 2.510832 2.511157 2.507664 2.505259 2.501488 2.499626 2.500395 2.503620 2.508018 2.508393 2.507155 2.507357 2.505667 2.512913 2.515731 2.516305 2.515922 2.513277 2.513995 2.514281 2.512341 2.510588 2.509600 2.511873 2.510079 2.512246 2.513425 2.516716 2.516090 2.515004 2.516439 2.517632 2.518216 2.516824 2.513114 2.510061 2.506984 2.509170 2.508172 2.511315 2.511625 2.509865 2.511099 2.515967 2.517644 2.515671 2.515345 2.516201 2.517056 2.519260 2.520346 2.521369 2.520981 2.525002 2.522933 2.524869 2.525384 2.523541 2.520613 2.521536 2.522760 2.524097 2.523434 2.529605 2.528217 2.529762 2.533480 2.532746 2.535805 2.535600 2.532559 2.532890 2.531602 2.534128 2.535390 2.537053 2.538908 2.539660 2.537003 2.537231 2.544709 2.546496 2.546230 2.545330 2.544974 2.541587 2.543482 2.542958 2.544964 2.543364 2.542083 2.540713 2.542692 2.546266 2.545999 2.549499 2.549899 2.548230 2.551715 2.553274 2.550908 2.553381 2.549846 2.548427 2.546960 2.548323 2.547443 2.547379 2.545411 2.548403 2.545915 2.543215 2.546761 2.544477 2.549074 2.546634 2.546353 2.549153 2.549539 2.552230 2.553759 2.551823 2.553940 2.552438 2.550365 2.548124 2.545285 2.545979 2.545798 2.543612 2.544708 2.544524 2.540815 2.537630 2.537187 2.536632 2.532419 2.529428 2.530715 2.532112 2.535782 2.535802 2.532585 2.531097 2.527420 2.531115 2.531318 2.532447 2.528820 2.526153 2.524682 2.524489 2.525475 2.524906 2.527444 2.526819 2.526575 2.525751 2.525021 2.522265 2.520519 2.518458 2.519668 2.520339 2.518242 2.515866 2.516019 2.513231 2.514269 2.513622 2.513625 2.515748 2.520720 2.520089 2.518640 2.519629 2.517597 2.519681 2.523873 2.525746 2.523822 2.529780 2.530238 2.529602 2.529421 2.533831 2.536335 2.535833 2.536870 2.535977 2.536667 2.534997 2.533456 2.536993 2.536556 2.540158 2.539158 2.538128 2.544254 2.545586 2.544818 2.546257 2.551599 2.550699 2.547811 2.547259 2.543962 2.544263 2.544880 2.542949 2.542690 2.541036 2.539666 2.538565 2.536032 2.535931 2.537850 2.536019 2.536048 2.534440 2.534542 2.534563 2.535836 2.536990 2.539714 2.540823 2.543021 2.542850 2.551188 2.553104 2.554382 2.551633 2.548583 2.547205 2.548426 2.547379 2.544701 2.548079 2.546167 2.546901 2.551204 2.548995 2.546488 2.547881 2.549543 2.547471 2.545129 2.544877 2.542268 2.540928 2.537667 2.537616 2.536811 2.539721 2.539615 2.536137 2.538860 
