7.782757 7.692951 7.603739 7.515123 7.427101 7.339674 7.252842 7.166606 8.269378 6.253561 5.581288 5.402969 6.774658 6.796674 6.564841 5.938930 5.411976 4.701007 5.044900 5.293932 5.382421 6.882625 7.116546 7.765139 7.927301 8.094020 8.088179 6.846675 8.143908 6.930980 6.091919 6.662662 6.225354 5.936351 5.021709 3.813379 3.360045 4.333942 5.057260 6.118175 4.472916 3.427748 2.931301 3.222289 4.502805 5.662433 4.841353 3.744244 2.458877 2.795564 4.192707 5.067498 7.550095 4.659653 3.449732 1.791857 3.884546 5.654007 5.829308 3.910909 4.230488 3.632392 3.575166 5.387748 4.349290 4.116860 2.792774 3.296732 3.048982 3.986042 2.799750 2.272752 1.948329 1.569268 1.581342 2.877279 2.359327 2.330800 2.427486 2.351034 2.666413 1.342349 0.914425 0.588177 1.706318 3.977185 2.273636 3.720648 1.011242 1.302223 2.091913 3.453390 4.729184 2.129916 1.708622 1.310417 1.867438 1.875109 1.664075 0.843322 0.382943 0.048719 1.137854 1.427858 2.232136 1.426993 0.867301 -0.022184 0.446301 1.877056 3.448361 2.708993 0.005923 -0.791669 -0.384969 3.538551 2.249967 1.779423 0.538064 0.480273 1.791129 2.932449 3.094272 -0.129195 -0.006275 -0.677622 0.308481 0.378153 -0.606734 -1.205122 -1.207950 0.180154 -0.979693 -1.262637 -0.251092 0.189278 0.350325 -1.497093 -1.569933 -0.783814 0.866111 1.376603 -0.028476 -1.276079 -1.618506 -1.522308 0.348195 1.523985 1.005555 -1.626768 -2.631665 -1.959173 -1.896808 -0.798744 0.671902 0.316629 0.728874 -1.072643 -0.096270 -0.142603 1.214622 1.156439 -0.162452 -1.595252 -2.078890 -0.577778 -0.441477 -0.548493 -0.794385 -1.076045 -0.410374 -1.459235 -1.818233 -1.164404 0.035392 -0.267094 -0.394069 -0.754570 -2.015580 -2.971728 -2.035417 -0.944895 -0.147498 -0.861224 -2.479495 -2.616022 -1.700361 0.481745 1.243567 1.165429 2.227727 1.227155 0.308397 -1.335054 0.669690 1.935510 3.285997 2.214752 2.038820 0.113359 0.986272 1.373679 4.611868 5.025823 5.806309 3.596759 2.554701 5.017021 6.336365 6.038967 4.487577 4.028728 5.387835 6.535963 6.031737 6.181488 5.540188 6.983549 7.093785 8.532652 7.703235 6.406025 6.671925 7.494309 6.671505 8.035248 6.180790 6.534204 7.287408 8.685288 7.982671 8.048745 8.324309 7.469646 8.667972 9.042765 8.051940 8.598710 7.700594 8.195936 8.837998 10.327788 11.110282 11.305843 10.121984 9.868246 9.643367 10.718152 10.382932 11.106821 12.204235 11.660521 9.721957 9.543869 9.896634 11.175415 10.403402 11.130464 9.519019 7.938006 6.889571 6.827208 10.400577 9.595470 9.966524 9.544288 7.884804 7.949105 9.497132 9.951876 10.007991 10.112202 8.050191 6.559459 6.529262 5.618946 5.297653 5.500241 5.516368 3.438178 2.665990 4.158514 3.765425 4.490235 4.210477 4.361815 5.841217 4.452879 3.305367 3.174221 3.472331 3.511767 4.137709 3.385098 2.815253 3.200459 1.691009 1.434035 1.112586 0.134058 0.993738 0.837575 0.220238 -1.237686 -1.801480 -3.263686 -2.834140 -1.849350 -1.781537 -2.076905 -2.315977 -3.516991 -2.578884 -2.329721 0.087773 -0.594102 -2.046860 -3.502464 -2.431433 -0.382885 0.500761 0.394295 -0.937574 -2.137565 -1.677886 1.275442 2.151270 1.931570 -0.255480 -2.403218 -1.376427 0.062465 3.976791 2.232012 1.381771 0.147341 0.206466 0.873477 1.385566 3.780747 3.100565 2.816702 1.366478 2.474923 1.820094 2.972364 3.089817 3.452563 3.436370 1.933124 0.929155 0.686697 2.643886 2.215121 3.550985 2.982469 2.157668 1.658924 2.468261 3.509833 2.637335 2.002385 2.053914 1.381499 2.422358 4.389584 5.140277 2.587961 0.693305 -0.072605 3.588294 3.041934 1.240758 0.651212 -1.546179 -1.134527 -0.987642 -0.049264 -0.473168 0.468848 0.839324 0.287422 0.623192 0.926511 0.034667 0.734402 1.280839 2.826002 1.270376 0.047421 -2.065033 -2.142821 0.782366 0.910777 -0.200332 -2.109843 -2.939606 -2.671179 -0.907288 -1.508583 -1.968190 -2.295545 -3.205068 -3.200851 -3.201901 -3.314469 -2.381704 -3.187358 -3.650908 -3.573627 -2.551003 -2.826407 -0.896633 -1.196526 -2.111597 -4.704618 -5.022568 -4.328461 -2.890711 -1.512003 -3.702657 -5.493945 -7.098982 -6.152250 -4.893179 -4.012656 -1.903842 -3.495652 -3.728618 -4.635629 -4.630666 -3.887181 -3.910413 -3.067050 -2.549662 -2.666726 -5.234157 -7.077010 -5.978863 -3.814688 -3.495355 -3.673493 -4.645602 -5.742725 -6.364481 -6.004065 -4.141332 -3.845849 -4.307888 -5.313712 -6.282799 -5.792276 -3.406327 -2.869110 -3.393818 -4.643074 -5.502236 -4.618248 -4.706767 -4.285357 -4.533151 -5.749793 -5.877616 -6.468331 -5.256035 -5.365516 -4.279936 -5.310655 -3.086593 -4.085178 -3.570257 -3.834641 -3.979639 -4.612521 -4.366768 -1.723742 -3.494054 -2.790922 -4.914246 -5.970026 -5.966393 -4.524098 -2.445635 -3.918009 -4.812923 -5.757882 -5.049841 -3.711210 -3.644735 -2.865087 -2.305310 -2.037272 -2.273299 -3.236771 -3.811725 -2.020183 0.739574 -0.761115 -2.257618 -1.976704 -1.035060 -0.192468 -0.074393 1.006244 -1.237772 -0.065118 -0.536940 -0.560583 -0.961730 -0.072730 -0.325289 -2.020227 -2.285171 -2.454961 -3.945689 -4.032339 -1.996473 -1.069804 0.417140 -1.288538 -2.207094 -1.756665 -0.169234 1.332733 2.644363 1.742960 -0.023905 -0.878210 -0.817715 -0.381510 0.659228 0.567740 -0.067191 0.687341 0.453362 0.498357 -0.967070 0.068067 1.835966 1.453638 0.067884 -1.061965 -0.356709 -0.862683 0.868783 1.814941 0.419806 0.073869 -2.277619 -2.586517 -2.236194 1.302232 1.985227 0.462238 -0.931747 -2.691569 -0.903028 3.561462 3.702778 1.329504 0.256014 0.742189 0.915522 0.621711 1.956289 0.897045 1.077893 1.429180 2.582519 0.570206 1.939214 2.998424 4.123898 2.205570 0.444969 0.198019 0.018568 1.548351 1.265374 2.138468 0.126042 -1.809976 -2.325056 -1.259997 1.280369 1.214894 0.258085 -0.917080 -1.904280 -1.301264 -1.727391 -0.976477 -1.456713 -2.083490 -3.440081 -4.383086 -3.567235 -4.735390 -3.754859 -4.454400 -3.583153 -4.731210 -4.055376 -5.014487 -4.530288 -3.599179 -4.205280 -3.138115 -4.067361 -6.350615 -6.289007 -4.171854 -4.717165 -4.118886 -3.802460 -5.327103 -6.005380 -2.902868 -1.225824 -2.447361 -1.881322 -1.675283 -3.245095 -3.338438 -1.738339 -1.157728 -3.034891 -2.302212 -1.412957 -2.365636 -3.756774 -3.259045 -1.979206 -0.561367 -1.721734 -3.395127 -4.076439 -3.487544 -2.131703 -0.639316 -1.459724 -2.811175 -3.371996 -2.492858 -1.083932 -0.429713 -1.779208 -2.600800 -1.848166 -1.756458 -0.544546 0.475237 1.461134 0.430865 -0.877622 0.436325 0.377774 0.133376 0.962049 1.536449 0.917089 -1.619439 -1.944511 -1.848756 -1.050170 -0.458144 0.234686 -2.107836 -2.323846 -2.372040 -1.509910 -1.688841 -2.093653 -1.071398 -2.156893 -1.118128 -2.651299 -3.605955 -3.364667 -1.717615 -0.723886 -1.050643 -2.574387 -3.726648 -1.853151 -0.991017 -0.444126 0.420783 -0.510735 -2.180833 -2.419791 -3.325938 -3.958067 -2.920658 -3.408123 -2.471440 -3.651970 -4.999308 -4.051297 -5.078893 -5.405548 -4.179185 -4.744992 -4.180443 -5.951409 -5.190516 -4.134598 -3.886805 -3.373376 -3.845340 -2.397410 -3.235730 -3.313647 -2.088336 -0.534923 -0.093648 -0.407242 -2.745413 -3.110806 -0.806059 1.279015 2.055319 -0.383496 -0.571144 -0.166636 2.645217 2.355755 3.118308 3.306843 4.314542 4.802281 4.379679 2.967007 3.078387 5.409154 4.496060 4.633532 1.585104 2.361359 3.237762 2.897824 3.548531 3.206187 2.988407 2.942377 3.444012 5.860728 4.858618 4.335009 4.204747 3.792718 3.638340 4.077407 5.804036 5.243128 3.061270 1.990340 2.793153 4.328774 6.327039 8.426796 5.558760 4.258790 4.674360 5.177601 5.581995 6.724797 5.993027 5.242628 5.788512 4.611255 4.262441 4.639177 6.953096 5.892940 5.475787 5.607711 4.273452 4.528810 6.168071 6.565293 5.069509 4.295471 4.562376 5.746512 5.335382 4.372144 3.544143 3.044565 4.801162 4.357925 2.597807 1.825086 2.361598 3.482207 2.868780 1.356442 0.773272 2.533983 2.742761 3.042824 3.440147 0.789273 1.509153 0.867322 1.753113 1.496368 0.572082 1.050140 0.004329 1.419271 -0.160302 2.046160 3.271433 3.071924 2.403703 2.911769 2.634771 2.355133 3.943259 4.466819 3.466500 2.259263 1.751414 1.474387 2.620891 2.319361 3.126060 2.739991 2.034482 1.771219 2.997623 2.223420 4.141415 3.431194 4.488012 3.248713 1.429256 2.908292 3.479628 3.668483 2.153484 3.268457 1.886908 1.242919 1.090220 2.565886 2.361158 1.368172 1.309296 0.229027 0.608945 1.989811 1.701540 0.383553 0.370602 2.540667 2.204566 0.749525 0.616494 0.542368 -0.291577 0.163838 0.313045 -0.658673 -1.718828 -2.389226 -1.261701 -1.198705 -1.370847 -2.773535 -1.227489 -0.517835 0.826889 1.061309 0.375092 0.095793 0.208184 1.756312 0.747982 1.087371 2.321768 2.646526 1.994968 1.121186 -0.180974 -1.140391 -0.093501 2.102679 1.816937 0.579798 -0.121535 -0.035600 0.313402 0.542368 1.724377 3.181332 3.301710 1.923267 0.652020 0.174456 1.424079 2.337054 2.254404 0.381340 0.500275 0.066896 1.069179 -0.876984 -0.387069 -0.187711 0.481541 0.868895 -0.278622 -0.056823 0.778190 1.997379 1.765771 2.423821 2.854646 3.163584 5.325881 7.592338 6.404144 4.862626 2.923685 3.855174 5.409525 6.116168 3.936484 1.720857 1.119045 0.645542 0.376199 2.600219 2.709168 2.014762 2.003888 3.570440 3.951985 3.894219 3.946022 3.777635 4.445544 3.851355 2.892688 1.449227 1.643951 1.729968 1.861578 2.641389 4.226796 2.760887 1.653021 2.944474 4.147906 2.771388 1.937530 3.067734 2.951905 2.952273 3.487649 3.400469 1.794582 0.380898 1.905233 2.786837 4.216572 1.857344 -0.022919 1.044415 -0.291033 1.913107 2.434654 1.639695 0.930260 1.982486 2.298113 0.269550 -0.285224 0.349009 0.564279 2.038740 0.759413 -0.285761 -1.177390 -0.536709 0.242763 0.537306 0.517722 0.635179 0.399363 -0.506016 -0.167010 -0.533253 -0.769213 -1.893102 -1.784168 -2.364024 -1.682111 -1.403846 -1.336026 -1.104668 -2.631976 -3.658844 -3.541318 -2.399701 -2.337277 -1.697802 -0.737190 -3.263076 -4.978939 -3.752635 -2.533833 -1.577953 -1.559361 -2.129883 -2.931202 -3.411191 -3.128338 -4.339788 -4.241138 -2.930011 -1.361318 -1.439158 -2.647705 -2.505160 -2.128456 0.048032 0.119795 1.835351 2.362538 1.455876 0.954694 -0.397373 0.282892 1.446939 1.190750 0.996025 1.032183 1.716001 0.762171 0.912879 0.257711 0.956443 1.643648 0.744052 -0.832569 -1.485532 -0.626314 0.742583 0.007371 -1.078514 -0.130206 0.835308 1.281730 0.279248 1.254164 0.365903 2.190367 1.112417 1.604029 0.947565 0.346386 1.454088 1.078244 1.515206 0.581467 1.243105 0.542146 -0.729324 -0.206665 -0.095000 0.405699 -0.483589 -0.943332 -0.156875 -0.674943 -0.941539 -0.187410 0.589911 0.460565 -0.012861 -0.676028 -1.141894 0.259599 0.592670 0.629943 2.000275 1.287019 0.752084 0.394381 1.345603 1.573310 2.169090 1.736017 1.519546 2.834777 1.980811 1.498646 2.566559 2.870975 1.813125 2.072227 2.555152 2.304571 2.991832 2.973142 2.371155 1.886193 3.421104 4.719614 3.181228 1.467926 1.606844 2.512863 2.826021 3.136157 1.328947 -0.264742 -0.393490 0.950604 1.364831 1.133914 0.349611 -0.529607 -0.466964 0.162769 0.881972 0.922664 1.632911 2.365866 1.702946 0.443427 2.291381 3.427244 2.368203 2.176825 -0.230149 0.581946 -0.297902 1.453331 0.942557 0.544175 1.860901 1.081370 0.752612 -0.039315 2.878147 2.417277 1.235622 2.060915 0.819963 -0.135015 0.163670 0.478360 -0.016090 -0.022529 -0.911397 -0.568363 1.491758 2.509045 2.409746 2.172674 2.889815 3.199722 4.649775 4.450574 4.550716 4.555366 4.455574 3.987134 3.650502 3.463588 3.092498 4.210385 3.666128 3.085972 1.570171 1.188762 0.834007 1.714979 1.968477 1.576422 0.456448 -0.090438 -0.838953 0.103177 0.074256 0.259042 0.868591 -0.204791 -0.524589 -1.763982 -1.196739 -1.575143 -2.015459 -2.579323 -3.722521 -3.003788 -4.212781 -3.946533 -3.335540 -3.304530 -4.643619 -4.609929 -4.870871 -4.193525 -4.284041 -4.755478 -6.431229 -6.205790 -4.729955 -4.531742 -5.693293 -4.793082 -2.649773 -3.005811 -4.442862 -4.942913 -6.157324 -6.053412 -4.462725 -5.493457 -6.191604 -7.022027 -7.371275 -8.064209 -6.648933 -6.472223 -5.037684 -5.304807 -5.218595 -6.493185 -6.701772 -5.433565 -5.183483 -4.336104 -5.564981 -6.067658 -5.816446 -5.069197 -6.617449 -5.468362 -4.189617 -2.822762 -4.248236 -5.541524 -5.812946 -4.252518 -2.579955 -4.195583 -4.305411 -4.105795 -4.192732 -2.383603 -2.302995 -2.604633 -3.086403 -2.083247 -2.633304 -3.307206 -1.303460 -1.903412 -2.504247 -2.126176 -1.654184 -1.868338 -1.775233 0.674775 1.626740 -0.226350 0.004207 0.261008 -0.306778 0.646344 3.137068 2.788848 0.985956 0.181282 0.110429 0.415659 1.125344 0.059277 -1.280596 -1.424138 -1.532125 -0.924143 0.168139 1.787704 2.191497 1.174634 0.429051 1.734927 3.056111 2.426640 1.835947 0.987561 -0.782490 0.478054 0.800101 0.251081 -0.560062 1.331995 -0.738931 0.087190 1.156677 1.185638 1.084866 1.841720 2.537094 2.397713 2.932215 1.057617 1.176769 1.768623 2.322288 2.870573 2.974909 2.079931 0.809262 -0.292547 0.909566 1.520618 1.737766 1.369641 -0.163837 -0.675045 -1.541858 0.148317 0.448757 0.488541 -0.690560 -3.273104 -2.586120 -3.502843 -0.505124 -0.389184 -1.332140 -2.854276 -3.980907 -2.636781 -2.365257 -1.781317 -3.463459 -3.930113 -3.914372 -3.719256 -2.922147 -3.486167 -3.790822 -3.274866 -2.492302 -3.733278 -4.127521 -3.896587 -3.435388 -2.713409 -2.621092 -1.847570 -2.608582 -1.219001 -1.623610 -0.821749 -0.487135 -0.088889 -1.833398 -1.403764 -0.369960 -1.858076 -2.095410 -1.150087 -0.843102 -2.401318 -2.420090 -1.219633 0.460357 1.141926 0.846096 0.111704 0.070772 0.049239 2.787093 3.447499 2.603493 1.970777 1.572529 1.909228 1.387662 2.264342 1.745766 2.396899 3.302108 3.170621 3.395796 2.230876 4.354447 5.024294 5.703609 4.605056 4.701780 5.891048 3.806040 4.875653 5.247497 8.364914 6.775050 6.932549 6.413678 5.080252 6.189732 7.134421 7.323682 6.568167 7.510676 6.972668 5.860022 6.213316 7.867459 7.218589 5.635943 4.940609 4.950976 4.896284 4.894191 5.550703 4.062591 2.820390 1.808731 2.597332 2.552732 3.041248 2.062915 0.772443 0.169196 1.014753 2.997066 3.233887 3.161625 1.817384 2.009959 2.955236 4.446416 4.506140 4.908470 3.872130 3.944997 3.133567 3.329745 4.458061 5.571551 4.837178 3.354295 2.484715 3.667648 5.198122 5.426544 4.197021 3.610649 3.024716 2.450751 3.841843 2.766659 2.034271 1.762703 0.404657 -0.192124 0.914221 2.146102 1.479745 -1.211201 -1.616419 -0.909291 -0.326963 -0.110308 0.766390 -0.000812 -2.337970 -2.561439 -1.213587 -2.342736 -1.626049 -2.161536 -2.632444 -3.783606 -3.229599 -4.385779 -4.210605 -4.210761 -1.883944 -2.244845 -3.074693 -4.176118 -3.159061 -1.474836 -2.479395 -1.764509 -2.071481 -1.973063 -1.126809 -1.333679 -1.244060 -1.952137 -0.877014 -0.360466 1.103119 0.535495 0.250406 0.336169 -0.241121 -0.246305 -1.413271 -1.931480 -2.244897 -1.072727 -1.569410 -1.803977 -2.199430 -2.253061 -0.694782 -0.403360 -0.996354 -0.155156 -0.691943 0.024079 -0.926323 -1.795790 -1.900537 -0.702454 -0.857149 -1.701702 -0.662397 0.665678 1.387757 0.969084 -1.338421 -1.807664 0.123064 0.643757 2.237117 1.902193 1.204123 -0.730383 -0.574618 1.154389 0.919582 2.709247 1.224420 0.158427 -2.111413 -2.063931 -0.234081 0.838578 0.357319 -0.929998 -1.883125 -1.425036 0.850948 3.092926 0.543877 -1.857760 -2.199542 -1.556067 -0.223824 0.476168 0.201916 -1.730700 -2.171742 -2.456866 -2.614346 -2.579650 -1.180766 -1.001110 0.319710 -0.527842 -1.955708 -3.965912 -2.722792 -0.486287 -0.767734 -1.865748 -2.458015 -4.577962 -5.699007 -5.875866 -3.681902 -2.912345 -3.142773 -4.248158 -7.355310 -8.688647 -6.617607 -4.543884 -5.011429 -5.780003 -7.420368 -9.241072 -8.806169 -6.907062 -6.231298 -6.329050 -6.047724 -6.354135 -7.614350 -7.089633 -7.560139 -7.193776 -7.193963 -8.859522 -8.780774 -8.226127 -8.170839 -7.632526 -7.204604 -6.931664 -5.585810 -5.717229 -5.549012 -6.308926 -5.812034 -6.570439 -6.941949 -6.505016 -7.091134 -6.332701 -7.125883 -8.372316 -8.198639 -6.611299 -5.828719 -5.931480 -5.836850 -6.648103 -6.050339 -6.653278 -6.302225 -6.265562 -4.686015 -5.162451 -5.728351 -5.325813 -6.868410 -6.270355 -5.371551 -2.749664 -3.541472 -4.065348 -3.820321 -4.088465 -3.235370 -3.564818 -2.415203 -1.192881 -1.382108 -2.648151 -2.787820 -1.577871 -0.228107 0.368346 -0.590017 -0.126437 1.406651 2.059915 0.855385 1.340896 3.446245 2.356462 3.174031 2.195667 1.033176 2.112721 3.301888 3.129384 0.251198 -0.506182 -0.234898 1.130639 2.846823 1.553009 0.169626 0.010412 1.609985 2.168378 3.090292 3.659774 3.641396 1.462656 1.431915 3.439392 3.403600 3.437777 3.050083 1.854260 1.365171 1.066811 0.744974 0.179215 2.583547 3.729270 3.314271 3.813704 0.944613 2.186814 3.036931 4.648410 2.649927 1.430214 0.846957 0.725420 -0.743767 -1.050240 -1.328112 -0.912433 -1.838669 -2.031911 -4.312218 -5.268768 -3.562191 -2.808457 -1.828171 -2.620878 -3.397277 -5.174647 -2.173687 -0.382883 0.241081 -1.771223 -3.535433 -3.514843 -1.978731 -0.901276 -3.257520 -2.834030 -3.454529 -2.844766 -3.634994 -3.945828 -4.590085 -4.494574 -1.780254 -1.820970 -2.733793 -5.326859 -4.765091 -3.929530 -3.604564 -4.312587 -4.011669 -2.875789 -4.191459 -5.418010 -6.508530 -4.367933 -2.685309 -2.221223 -1.937884 -2.316586 -1.989983 -2.603601 -1.627953 -1.033915 -1.831844 -3.234012 -3.360905 -1.251655 -2.424217 -2.799797 -2.657000 -2.082362 -2.910976 -3.149999 -2.539383 -0.365073 -1.087522 -1.763170 -1.398048 -0.140294 0.161628 0.770818 2.071794 1.872093 2.893953 0.064612 -0.796279 0.036945 2.459968 0.982069 1.540894 3.225137 1.415131 0.799622 1.881228 2.471111 3.703837 6.091956 4.980001 3.735641 5.098856 5.290299 6.316821 7.666738 6.037712 4.530531 4.851583 6.477043 7.395936 7.036761 5.052252 6.042241 8.032025 8.160521 7.933916 7.858814 8.335197 7.859013 8.017182 8.611992 8.096217 7.091277 8.340621 9.259519 8.206460 7.704989 7.943118 7.140748 8.348798 10.993228 11.826195 10.230655 8.340991 8.180623 9.257504 9.889500 11.044647 10.464600 9.373241 9.212438 9.854761 10.062550 10.049296 10.182331 11.242931 11.666957 13.024094 11.370939 10.131597 11.153923 12.568524 12.050026 11.430617 10.026126 8.572370 9.754103 10.876310 9.876570 8.783793 9.734149 10.189716 9.641946 9.937448 9.682821 10.901973 9.997450 8.890048 8.687696 7.948820 9.652009 8.973313 7.563603 6.093511 7.395050 8.322408 8.912080 10.417480 9.371150 7.568105 7.744964 8.003113 8.365070 7.884795 7.436564 6.045137 6.877600 6.338009 5.168085 6.542195 5.078213 5.942256 4.865542 6.335238 6.722645 7.364220 6.699669 5.747415 7.499169 5.915254 5.983899 5.748164 6.843020 4.835114 3.853241 3.293928 5.130917 6.417196 7.232958 6.989605 6.337458 6.067930 7.443030 8.268249 8.449379 7.261155 5.798590 5.801400 6.104752 7.127725 5.950123 4.930519 4.908170 4.431677 5.402376 5.485133 4.834140 3.322517 3.211863 4.401250 4.963909 5.653078 4.068714 4.067995 5.890917 5.886162 5.737476 4.637917 5.304220 4.527037 4.502181 3.620161 2.566496 2.906764 4.022609 4.511583 2.180279 2.670928 2.406949 3.163320 4.152520 4.238854 2.389632 0.589715 1.461138 2.658073 2.183337 1.543665 1.864813 2.217543 0.604531 0.872741 2.357706 1.159427 0.119180 0.411064 0.661821 -0.690874 -1.979796 -2.045147 -2.291898 -1.682199 -1.669599 -2.373121 -3.393694 -3.928010 -3.100113 -3.757702 -4.262108 -4.062609 -3.304684 -2.675120 -3.823346 -4.055826 -3.883476 -0.650008 0.372449 -0.641532 -2.810099 -4.112758 -3.598155 -1.593193 -2.907018 -3.619848 -4.475619 -3.370060 -3.706127 -4.302735 -4.676458 -4.545019 -2.516258 -2.883252 -3.329705 -3.503944 -4.443593 -5.010678 -3.502061 -2.677917 -2.417773 -2.936555 -3.796181 -5.349896 -3.404035 -2.424341 -2.836201 -2.439694 -2.919380 -3.685946 -3.495463 -3.313595 -3.570162 -3.154618 -2.935705 -2.067283 -1.435678 -0.804180 -3.117221 -4.329683 -4.230614 -2.208873 -1.677625 -2.459514 -3.999391 -4.981481 -4.452650 -1.937390 -2.289727 -1.513132 -0.484043 0.049252 -0.991485 0.129057 -0.440263 -1.493609 0.425950 1.685353 0.722692 -0.551520 -1.048493 -1.838222 -1.560984 -0.142598 1.311586 1.106440 -0.766785 -1.249404 -1.581505 -1.379099 -1.191711 0.996834 -0.063786 -0.422710 -1.745328 -2.383365 -2.930638 -3.088935 -1.272964 -0.547655 -0.699161 -2.861281 -2.632890 -2.287869 -1.372226 -0.205929 0.293217 -0.854394 -2.043316 -2.424996 -1.805369 -2.068456 -3.036042 -2.172106 -2.064832 -1.853802 -3.096058 -2.183417 -2.447580 -3.635619 -3.772329 -1.582977 -1.244891 -2.226021 -2.346964 -2.802933 -1.398957 -0.289990 0.329670 -1.293942 -1.072061 -1.551426 -1.617870 -0.885591 -2.146712 -1.688688 -2.441519 -1.348040 -0.342970 0.241226 0.405650 -0.097230 0.288345 -0.655079 -1.423254 -1.025299 0.456731 -0.025751 -1.444768 -1.929621 -1.881520 -1.346395 -0.263347 0.290494 0.855623 0.532128 1.139154 1.747142 1.174211 -0.765085 1.068538 1.875821 1.400191 0.469722 -0.203253 -2.998853 -4.222177 -2.840065 -3.207680 -3.313605 -4.010138 -4.292566 -5.160234 -3.692945 -2.850795 -4.157996 -4.199354 -3.656918 -3.604811 -5.403446 -5.183230 -4.792600 -4.092198 -4.065257 -5.840984 -6.409148 -4.890975 -4.385186 -4.342822 -3.154266 -3.455374 -3.738548 -4.902486 -4.637907 -4.754619 -4.388323 -5.011164 -5.180851 -4.732698 -6.275198 -6.478290 -6.401651 -4.404758 -3.807279 -3.331421 -3.944931 -3.575012 -2.917530 -3.461060 -3.932262 -3.641476 -3.412642 -3.268378 -4.572774 -4.561475 -3.050490 -2.002626 -3.673645 -2.999857 -0.769528 -2.345724 -2.322823 -1.358420 -0.633924 -1.612716 -1.081007 -2.276466 -2.734994 -1.474377 -2.721151 -2.826185 -1.700510 -1.694374 -3.598976 -3.254856 -1.872253 -0.964435 -0.747388 -1.628245 -2.982075 -3.269763 -2.349482 -2.127854 -2.575801 -1.797583 -2.154326 -2.880901 -3.936992 -4.886074 -3.376991 -1.981875 -2.142695 -3.911068 -3.710053 -4.218227 -3.201992 -1.895015 -1.366863 -2.662448 -3.103825 -2.308807 -1.347640 -1.089580 -1.108861 -2.102535 -2.306748 -2.542591 -2.278846 -3.039838 -4.324710 -4.032460 -3.201286 -2.819751 -3.283618 -4.485956 -4.942107 -3.618176 -1.733317 -2.003904 -2.947504 -3.534053 -2.524446 -2.495892 -1.778026 0.604955 -0.362191 -0.976725 -0.888845 -1.608388 -1.106564 0.474993 1.307330 0.919728 0.081829 -0.407013 2.218535 1.750620 0.802076 1.275119 1.237025 0.905629 0.621101 0.239513 0.550671 1.660365 1.211247 1.756500 1.758437 0.707224 1.372110 2.809690 4.558226 3.772709 2.849580 1.513369 1.780457 3.705312 3.201715 1.830576 0.759996 1.208927 1.921719 1.368932 2.259631 2.161183 2.469600 1.675079 2.543291 0.865747 1.418439 3.009552 2.528302 1.393837 0.207907 0.826539 1.924588 2.346248 2.099469 3.132254 2.435710 2.705234 1.858299 1.061587 2.442450 2.777416 1.392378 1.212395 0.950268 -1.192233 -1.176823 -1.718317 -0.843490 -0.782923 -1.181981 -0.953679 -1.692355 -2.478412 -0.177107 0.509138 -0.156158 1.379044 -0.083451 -1.519658 -0.975004 -0.245114 0.560484 0.977937 -1.019221 -1.846456 -1.558687 -3.034426 -3.483054 -1.202585 -1.119265 -2.720689 -4.962001 -5.017471 -4.993890 -3.510831 -1.885475 -2.490374 -3.466791 -4.151234 -3.178224 -2.713609 -1.850079 -1.385085 -2.539326 -2.764076 -2.767621 -1.231196 -0.390678 -0.725620 -1.491844 -1.208025 -0.441468 -2.106474 -1.313074 -0.249599 -0.071656 -0.608655 -0.969352 -1.510752 -1.129711 -0.015467 -0.583783 -0.330809 -1.067169 -1.931473 -1.808194 -0.318564 -0.012558 -0.012583 0.107378 0.215165 -2.367714 -1.462611 0.571469 1.771259 1.195157 0.249470 -0.910304 -0.507143 0.354212 -1.132574 -1.104616 -0.244385 1.542989 1.762197 -0.314718 -1.953749 -3.298661 -1.697073 0.137225 0.761398 -0.665395 -1.229896 -2.539376 -2.613976 -0.154853 -0.270910 -0.628048 0.185610 0.265640 -1.125849 -1.577119 -0.826444 0.231752 0.861955 -0.148626 -1.058170 -0.257870 0.952116 2.779077 3.727010 2.867626 1.135020 0.838452 2.381700 3.832068 3.871345 2.048910 0.821733 0.916441 1.847448 2.536978 2.079245 1.225051 2.165652 1.148952 -0.327322 0.884361 1.772267 1.635206 1.880547 1.512027 2.264323 2.721748 0.277204 0.265824 1.971012 1.512747 0.692318 0.851455 0.029483 -1.706030 -0.071231 0.626416 0.331709 -0.284157 0.000139 0.649858 1.507657 0.827232 1.237996 1.750401 0.766119 0.518532 0.389539 -0.601376 0.764833 1.841308 0.060464 -1.073330 0.523875 0.149704 -0.632314 -1.567520 -2.491389 -2.061477 -1.418069 -2.641894 -3.471602 -4.265801 -4.965600 -4.006873 -2.554860 -2.239268 -3.977876 -5.036917 -4.281553 -4.317656 -4.136646 -4.197951 -5.762905 -6.813581 -6.233925 -7.599698 -7.559653 -7.185129 -6.095722 -5.184689 -4.877688 -4.871214 -5.391883 -4.568721 -3.466254 -1.965969 -2.377268 -3.298020 -3.984233 -3.701371 -4.348331 -4.396010 -2.993922 -1.678099 -3.131689 -1.876946 -2.202978 -4.555781 -3.486919 -0.908844 -1.355000 -1.445358 -0.512357 -1.880247 -3.443930 -2.609061 -1.113239 -1.733402 -2.737793 -2.374466 -2.039064 -2.519902 -2.196953 -0.489378 1.033842 1.160235 -0.268399 -0.988209 -0.674375 -0.495368 -1.588509 -0.992759 -0.271314 -1.013780 -1.355199 -0.183021 1.032591 0.768645 0.329517 0.693907 0.340021 -0.064981 1.777659 2.168788 1.771881 1.957606 2.200621 2.931198 3.632253 3.360241 2.684410 3.138535 3.151526 3.042937 1.960757 1.292427 3.130296 2.998367 1.292480 1.665009 2.787524 1.252194 1.472580 2.227637 3.519276 3.081792 2.009612 0.232356 1.701801 3.763390 4.437316 4.412323 1.911252 1.202963 2.274626 2.883992 4.052580 3.506835 2.344514 2.132792 2.923916 2.561182 3.307284 4.080073 3.178377 1.420265 0.014536 1.104527 2.411810 3.127910 4.361836 4.011200 1.775673 2.138761 3.205895 2.858011 3.448012 3.540788 2.005472 2.118547 2.161808 0.542544 1.149931 1.788742 1.620520 2.077557 2.854529 -0.722672 -1.106121 0.273493 0.031111 1.324882 2.435025 0.189011 -1.598054 0.171011 0.414332 0.913426 0.923333 0.266628 -0.585443 0.177494 1.988450 1.657571 0.652741 0.657330 0.111648 -0.665437 1.291575 2.040297 1.085370 -0.105225 -1.757549 -1.733230 -0.293537 1.329234 0.711948 -0.364745 -0.370788 0.357098 1.286444 1.863795 2.031902 0.027614 -1.342351 1.503878 2.993494 2.208688 2.081496 0.702535 0.350628 2.043041 2.052066 1.829071 2.098517 2.030527 0.621349 -0.445626 -1.630664 -1.009879 0.512573 0.678656 -0.451298 -1.479026 -2.247853 -2.965529 -1.768732 -0.502058 -0.776474 -2.779838 -4.493652 -3.519076 -2.378337 -2.064368 -1.188518 -2.912030 -3.799186 -3.039590 -0.467993 0.381038 -1.690236 -2.388091 -2.281772 -2.358175 -3.184516 -3.586766 -2.527055 -2.471407 -4.431257 -4.796347 -3.299506 -3.044107 -2.148430 -1.023307 -3.916275 -5.750089 -5.420207 -4.256906 -4.313006 -4.184792 -5.984055 -6.894805 -6.399480 -6.086544 -5.500090 -6.265628 -6.738080 -6.310958 -4.147338 -2.668072 -2.614527 -4.125243 -5.288151 -3.620170 -3.536794 -2.408075 -2.965835 -3.685220 -3.593705 -2.982396 -3.128085 -4.988004 -4.887946 -4.513339 -2.437073 -3.547196 -3.937055 -4.819615 -5.442368 -6.236272 -4.401508 -2.988180 -4.695663 -5.182623 -5.157629 -5.021493 -4.470880 -3.523065 -5.589890 -4.424675 -3.925521 -4.682077 -5.004831 -3.405349 -1.830298 -2.754037 -4.216616 -5.127853 -3.901853 -3.722367 -3.466687 -3.826373 -4.378524 -4.792863 -5.258999 -4.203303 -2.725232 -1.061678 -0.700024 -1.917588 -2.506060 -1.349050 -0.212735 -0.745687 -2.267607 -3.484255 -3.300028 -3.013572 -2.387068 -2.525119 -3.023724 -2.192749 -1.640780 -3.283061 -2.676960 -2.197135 -2.132197 -0.217946 1.039599 -0.440836 -1.596471 -1.202350 -1.119879 -0.182999 0.235883 0.685047 -0.423601 -0.728396 0.464428 -0.106752 -0.686059 -0.062094 -0.568416 -0.994688 -0.164274 0.622106 0.198040 -0.535340 -0.659597 -0.298221 0.709114 1.217603 0.886471 -0.317746 -1.838355 -1.489460 -0.557162 0.080140 -0.222895 -0.422446 -1.423039 -1.001729 0.182998 1.149473 1.583179 0.822049 -0.949788 -0.552576 0.067695 1.752775 2.337357 0.595698 0.402757 0.458769 2.624797 2.905986 1.836094 1.957152 2.074092 1.268185 2.546693 3.791097 2.287567 2.117647 3.654120 1.585419 1.109871 3.259959 4.450088 3.046052 1.373511 1.447213 2.109139 3.370436 4.263239 2.979238 1.303097 1.722995 2.774521 3.867952 2.591776 2.943043 2.416256 2.146331 2.230040 1.618738 0.512874 0.411590 2.503099 1.766975 0.950280 0.127333 -1.017268 0.058177 1.606652 1.755453 0.670900 -1.113705 -2.065775 -1.444226 -0.369152 -0.140254 0.175022 -2.067976 -2.234938 -1.656780 -0.878263 -1.026400 -1.440792 0.056873 0.434610 -1.241721 -2.151232 -1.355041 -0.208790 -0.281144 -0.975108 -1.956978 -2.253478 -2.103841 -3.084965 -1.414643 -0.727975 -1.533956 -1.241410 -0.992761 -3.008784 -2.428221 -0.464540 1.041508 0.119838 -1.062860 -1.506041 -1.418813 -0.690666 -0.606821 -0.102861 -0.717480 -0.883176 -1.825342 -1.514751 -0.355719 0.113777 -0.837779 -2.261803 -3.537480 -3.861166 -1.769840 -1.321980 -1.656533 -2.987348 -3.136154 -1.819237 -0.836511 0.760755 0.516772 -0.666760 -1.409944 -0.374191 -0.557062 -0.548554 -0.012377 0.063898 -0.813932 -1.765379 -1.508274 -1.837890 -1.613141 -1.037303 -0.570393 -0.669258 0.250703 0.373267 -1.401322 -1.553310 -0.834323 0.591833 2.038236 1.007383 -0.891312 -1.630568 -0.349255 -1.450490 -1.540528 -1.767521 -1.816523 -1.479019 -1.326422 -0.790420 -0.181568 -0.168570 -0.709952 0.108451 1.364339 0.273027 0.133604 -0.694594 -0.879465 -0.681958 -1.604696 -2.075662 -3.701721 -2.977588 -0.750376 -0.943357 -2.414373 -3.568378 -3.351692 -2.555380 -1.372996 -1.958696 -2.910564 -3.288357 -2.784021 -3.152289 -3.026740 -2.429610 -0.836697 -0.845077 -1.216983 -1.426638 -2.743440 -0.312788 1.271396 0.648371 -0.572946 -0.243108 -0.492561 -0.619243 0.360257 0.392612 -1.029752 -2.663865 -2.498285 -0.725129 0.638799 -0.546007 -1.220430 -1.274236 -0.280925 0.760339 0.673719 0.435312 0.031465 -0.647240 -1.624012 -1.778190 -1.256782 -0.632978 0.108853 -0.967386 -1.542811 -1.196727 0.683890 1.354765 0.241788 -0.860884 -0.872547 -0.415212 -1.791766 -1.557910 -1.336637 -2.392392 -3.178864 -2.593924 -2.314659 -3.351981 -2.834480 -3.749277 -3.597361 -4.338903 -4.377557 -4.091977 -3.530437 -2.830263 -3.964417 -4.850478 -5.362891 -4.828297 -4.653981 -4.213592 -4.010458 -5.315156 -5.299906 -6.845757 -6.615020 -6.359787 -5.291311 -4.922425 -5.873578 -5.342919 -6.555519 -5.828504 -5.138828 -5.059416 -5.835084 -3.828755 -3.492898 -5.015129 -4.718987 -5.332218 -5.577206 -5.672196 -3.984396 -4.138916 -3.593731 -3.366410 -4.385889 -3.737074 -2.723540 -1.540588 -1.262814 -1.382287 -1.060304 -1.183096 -0.705565 0.447318 0.328142 -1.200276 -1.833412 -0.876215 0.896279 -0.118010 -1.386379 -2.114974 -1.710884 -1.775851 -2.504649 -3.153305 -2.586451 -0.320082 -0.871605 -2.381489 -1.116001 -0.049780 -0.865209 0.286053 0.178294 1.035504 0.970345 -0.675000 0.099682 -0.080730 0.657752 1.244902 2.219457 1.648295 1.385672 1.091601 0.264403 0.851904 1.668963 2.228721 1.356773 0.372087 -1.884016 -0.653205 0.655017 0.877615 -0.700206 -1.050822 -0.429784 -0.020616 -0.310178 -0.221391 0.147847 0.463252 1.353043 1.211760 2.031268 1.829651 2.091144 2.453840 1.406040 1.222520 1.471305 2.579691 2.556394 2.188575 3.292690 3.512990 2.113490 2.263959 2.517959 3.095644 2.980458 2.003121 1.348766 0.615706 0.924526 1.598665 2.090328 1.868360 0.288438 0.065847 1.667681 1.492821 1.874874 1.794384 1.454218 1.690678 1.140392 1.703956 2.515726 2.731271 1.297751 -0.574021 -1.568794 -1.009686 -0.999722 -1.916104 -2.620851 -2.186619 -3.562140 -4.133996 -5.450913 -4.607028 -2.303071 -1.942753 -2.775581 -4.557816 -3.700563 -2.809457 -1.206560 -0.100891 -1.710282 -2.169013 -2.617345 -2.449669 -3.165785 -2.499805 -2.457502 -3.756325 -4.895519 -4.034067 -2.943209 -1.308345 -1.221228 -1.283823 -2.525064 -2.228719 -0.619445 -0.099740 -0.235597 -1.281453 -2.093965 -1.618910 -0.104209 0.461444 0.304741 0.726726 0.862265 0.195683 0.845998 0.904748 1.325365 0.365389 -0.328623 -1.485681 -0.966641 -2.009729 -2.897896 -1.797208 -1.157100 -0.406561 -2.137720 -3.410434 -2.933326 -1.113921 -0.306393 -1.670461 -2.769505 -1.254744 -0.237968 0.103689 0.515800 0.045289 0.625190 1.275315 1.804132 2.651671 2.034325 1.285425 0.822957 0.167740 1.515652 2.279749 3.568361 2.347285 0.181371 0.971654 0.999116 1.449272 1.264037 1.645009 0.913567 0.091469 0.086330 1.769509 1.921141 2.325489 2.065392 2.458252 2.462833 3.406500 2.023808 1.230754 1.658878 0.771423 2.661162 3.075069 1.400329 -0.151783 0.163183 0.405459 0.756347 -0.418143 -2.383106 -1.421269 -2.315836 -2.354363 -2.687706 -3.399273 -2.863197 -2.970692 -2.402607 -3.207037 -3.456194 -3.326037 -2.381177 -2.707569 -2.160082 -1.795944 -2.435498 -2.505653 -3.317551 -2.633206 -1.708878 -1.467823 -3.191102 -4.240562 -3.440669 -2.576791 -3.494446 -3.048470 -3.006889 -4.096020 -3.819672 -5.067537 -5.555806 -3.700693 -2.632738 -2.422686 -4.437897 -6.559147 -6.170308 -3.975069 -2.609236 -4.081154 -4.231013 -5.247467 -5.315499 -6.096851 -5.722324 -5.199058 -4.407779 -3.763131 -3.383040 -5.075227 -4.794691 -4.270531 -2.781092 -1.886227 -2.867468 -2.556818 -1.939230 -1.339217 0.075029 -0.737825 -0.938039 -0.018290 1.248432 2.712901 3.567273 2.989945 2.310490 1.095214 1.281192 1.127078 1.843864 1.089676 0.332619 0.118992 -0.598059 1.092729 2.577566 1.690473 0.435867 0.765880 2.231407 1.814681 1.580961 -0.030220 0.555416 0.912226 0.162631 0.149518 0.358561 1.175794 1.611727 1.331657 0.114522 -1.533340 -0.727365 0.130462 0.330679 -0.332837 -2.643670 -2.000714 -0.605249 -0.442622 -0.325192 -1.299598 -0.500452 -0.091135 0.259667 -0.226276 -0.113837 -0.434775 -0.460273 -1.882094 -2.380482 -2.954669 -2.211714 -1.157858 -2.792093 -3.922267 -5.042239 -4.436740 -3.902761 -1.953842 -3.027164 -6.260604 -8.641991 -7.676304 -4.984220 -4.203049 -4.319983 -7.870502 -9.264482 -7.379682 -5.283717 -4.846467 -4.610148 -5.102105 -5.408332 -4.398189 -4.286036 -3.092611 -2.492413 -2.623645 -3.820350 -4.672032 -2.847877 -3.743728 -3.004925 -3.671101 -4.412255 -3.738533 -4.447664 -3.415897 -3.557997 -4.664665 -5.641761 -5.491874 -5.241015 -4.923433 -5.046996 -3.578377 -3.262965 -4.551153 -4.480061 -4.051456 -3.865750 -3.373211 -3.424865 -4.434249 -4.975789 -4.477198 -4.143560 -4.793425 -4.987982 -6.158914 -3.542195 -2.263796 -2.777751 -3.782508 -4.426944 -5.407802 -3.882770 -1.632650 -1.897387 -2.734187 -5.150225 -6.297796 -5.695997 -4.514032 -5.230708 -5.820552 -6.623876 -6.447839 -5.938055 -6.326594 -4.313951 -3.139277 -3.926640 -2.957011 -3.052597 -2.697713 -2.388053 -1.456831 -1.802395 -2.883890 -2.938913 -3.495153 -3.012076 -2.125304 -2.253263 -3.175321 -3.292189 -2.517570 -3.901939 -3.744033 -3.122832 -3.699515 -1.427568 -1.769119 -2.683358 -3.988373 -3.945731 -3.115091 -1.900173 -3.356499 -5.913500 -5.469937 -3.572774 -3.797882 -4.113725 -4.563977 -3.979808 -3.867735 -4.053007 -3.695546 -3.728147 -4.367676 -4.318587 -5.151634 -4.364221 -3.050997 -2.221995 -2.060427 -3.613970 -3.761893 -3.213497 -1.194192 -0.471554 -0.854339 -1.980199 -2.603389 -2.005590 -0.748082 0.877439 0.252188 -0.381273 -1.948282 -1.451434 -1.344021 -2.662633 -2.921298 -2.521880 -1.757911 -1.470443 -2.301094 -3.638957 -2.999251 -2.153815 -2.560707 -3.386884 -1.647599 -1.902074 -2.978210 -4.206126 -3.344120 -3.269452 -2.507064 -3.749427 -4.051394 -2.730724 -1.793858 -2.225583 -2.714022 -1.055708 -1.924374 -2.063275 -1.903887 -2.145129 -1.824495 -1.582806 -3.082945 -3.781200 -3.953193 -3.908161 -4.236761 -1.607276 -3.391201 -3.583614 -2.705220 -3.021900 -2.716640 -3.886924 -3.986087 -4.217769 -2.969285 -3.528136 -4.919815 -4.944676 -5.496418 -3.910240 -3.943971 -4.476001 -4.472735 -4.648046 -3.525157 -3.763252 -5.878036 -5.869189 -4.203377 -3.757863 -3.806065 -4.327772 -4.900509 -4.053203 -2.999034 -2.206439 -1.798148 -2.949291 -2.440185 -2.050214 -1.773323 -0.419947 -1.193950 -1.101482 -0.088296 -1.128503 -1.311043 -1.827480 -1.578683 -0.242774 -0.765942 -1.910052 -2.331039 -2.883364 0.099780 -0.023175 -0.539235 -1.504557 -2.178817 -1.007022 -0.627919 1.336612 1.050137 0.650421 0.100906 -0.935603 1.093918 2.702990 3.064554 2.234093 1.267081 1.190514 2.502926 1.442187 1.848043 1.891580 1.390034 1.252582 0.928628 0.840820 -0.061524 0.852164 0.646634 1.155245 0.323375 -1.076254 -1.699396 -2.491666 -1.204891 -0.562246 -1.061996 -1.370993 -0.562410 0.118927 -0.596617 -0.570204 0.603802 0.866593 1.047335 -0.461808 -2.187026 -0.718086 -1.222608 -1.031754 -1.429873 -2.860477 -2.945392 -1.113436 -0.957966 -0.082856 -0.617786 -0.729586 -1.175180 -1.236582 0.061625 -0.365344 -0.508684 -0.703988 -0.484536 -0.441693 -1.721285 -1.084563 0.810210 1.099763 -0.149487 -0.432885 0.390187 1.997448 1.810375 1.821233 2.197605 2.784363 2.865783 3.077719 3.381143 2.435570 2.998114 2.343068 0.571153 1.080175 1.195621 1.053817 2.786714 1.135296 0.814154 1.189062 0.937470 2.259117 2.340564 2.636813 1.821806 1.646092 0.945946 1.357425 0.831945 1.466600 2.074860 1.375888 2.417682 2.378515 3.097055 1.761307 2.212022 3.894261 4.770759 4.087656 1.924588 1.806198 2.547496 2.890843 2.801834 2.730474 1.417013 0.299600 1.300889 1.811786 2.839028 2.258892 1.540368 1.957806 2.823728 3.014183 1.236646 1.684923 2.675417 3.328742 2.695446 -0.026270 -0.447098 0.250583 3.857276 4.375078 3.551485 2.391053 2.316151 4.648948 5.138738 5.435298 4.006118 4.672435 2.246751 1.534916 2.104219 1.985170 3.117613 1.652198 1.650638 1.522344 1.431244 1.461464 0.680560 0.447331 0.649312 1.887853 1.010003 0.121986 -1.454663 -0.631233 3.100707 3.421147 2.698261 1.029427 0.683577 3.184594 6.318805 6.508935 5.112649 3.471449 4.330117 6.894543 6.494181 5.876085 4.480810 5.075280 5.767331 6.004523 4.853025 6.617477 6.166589 6.695128 6.586827 6.219194 7.238369 7.553033 7.544072 5.852445 5.012480 4.865831 6.564760 6.498383 5.997565 4.921220 4.875210 6.408696 6.425805 5.829736 6.404591 5.515538 6.589171 7.283963 7.283705 6.492111 6.543355 6.790558 7.003825 6.813674 5.154644 4.319080 4.801410 5.107711 4.287677 3.513599 1.587180 2.497767 3.627799 4.876529 3.332073 1.238770 1.746526 2.148239 2.256235 2.224312 1.572115 2.008629 3.227639 1.998446 1.388779 1.635100 0.094274 1.073754 1.708995 1.099379 0.014020 0.013687 1.363184 0.774942 1.140374 -0.195003 0.090580 1.795127 2.310552 1.856645 -0.864427 -1.411375 0.268375 1.733713 0.657927 -0.787831 -1.177453 -1.112429 0.175150 -0.145236 -0.123197 -0.076250 -0.757606 0.062432 0.382956 0.286360 -0.031741 0.232432 0.110359 0.176994 0.858085 1.368484 0.575087 0.405622 1.723831 1.583276 0.499717 -0.739191 -0.747413 0.678062 0.564050 1.408555 0.535073 -0.314309 -0.158519 1.349813 1.799586 2.333778 3.040812 2.173552 0.551787 0.677893 1.353452 3.040217 2.189627 1.266850 1.357042 1.634438 0.631595 -0.109429 -0.036673 0.770364 1.394918 0.026616 -0.362910 -0.143165 0.114813 0.585759 1.284951 1.257707 1.082989 0.549588 1.575887 1.191118 0.581633 0.119266 0.380131 1.698170 1.698057 0.632850 1.285957 0.827928 2.168508 0.990419 -0.451016 -0.171978 0.542539 1.537253 -0.089785 -0.924425 -1.344473 -1.777001 0.206179 0.588192 1.901990 1.075492 -0.368389 0.388155 0.144196 1.791866 0.861497 1.132025 1.217784 -0.299407 0.328847 -0.032247 -0.742813 -0.263027 -0.838872 -0.830366 -0.887281 -1.978184 -1.571150 -0.832960 -0.835067 -2.725099 -2.639609 -2.294894 -0.582905 -0.749777 -2.755230 -2.170775 -1.449793 -1.290786 -0.977960 -0.671719 -0.956492 -0.914842 -0.845887 0.113640 0.772869 -0.834405 -2.599658 -1.360858 -0.066109 1.717453 1.149212 -1.262338 -1.447214 -1.587784 -1.329978 0.201000 1.123431 0.148525 -1.876559 -1.933919 -0.731552 0.707423 0.379670 -1.769896 -0.982159 -1.450598 -0.911729 -1.592551 -2.247604 -1.085719 -1.557419 -1.084680 -0.760697 -0.262020 0.023506 0.035056 0.087183 1.135359 1.994684 4.065498 3.186443 2.522642 1.681647 1.902735 2.403454 1.524208 3.377717 1.751539 0.682099 -0.094215 -0.026641 1.130794 1.550669 1.520774 1.412650 1.320240 0.655401 1.047352 0.797702 2.057424 1.570711 2.506483 1.791429 0.871063 1.193468 0.687637 0.334249 1.233921 0.334694 -0.134927 -1.581233 -2.859486 -1.619270 -1.946337 -1.375879 -2.263658 -2.368747 -4.104092 -4.835713 -3.629940 -2.104978 -1.535229 -3.862326 -4.235324 -3.239214 -3.204355 -3.362597 -5.091633 -6.037988 -4.803142 -5.534943 -4.999686 -6.236857 -6.763260 -5.302928 -5.435535 -5.126661 -3.271673 -2.791011 -3.569185 -5.118155 -5.835005 -4.692847 -3.263198 -2.744592 -3.184364 -3.716902 -4.953612 -4.153813 -3.495307 -2.340781 -2.033971 -3.398033 -3.598419 -4.166013 -4.160043 -3.628058 -4.011686 -4.398391 -3.626588 -2.163403 -2.030244 -2.595335 -1.179991 0.304737 0.525977 0.158829 0.340541 1.126384 2.247417 1.851330 1.031406 0.211827 -0.967026 0.261584 1.104672 2.178817 0.651098 -1.798608 -0.906465 0.149021 0.939014 0.835480 0.663931 1.002341 -1.342354 -0.031025 1.179491 1.028973 1.333849 -0.243138 0.001583 -0.005088 1.009187 1.334485 -0.040554 -1.026509 -1.769641 -0.697336 -1.437802 -1.880887 -1.294816 -0.473588 -0.135464 -1.778610 -2.400459 -1.122897 1.500176 1.995954 -0.652334 -2.873467 -2.703820 -0.700364 0.857730 -0.072909 -1.803566 -3.540937 -3.702255 -1.364087 -0.848580 -1.771430 -3.688109 -4.429249 -2.619443 -2.464619 -1.153467 -2.520080 -2.464325 -2.493110 -3.346587 -3.673193 -3.924103 -2.918047 -1.669895 -3.103770 -4.534197 -5.320444 -4.123806 -2.213174 -2.450967 -3.228251 -5.270715 -5.041982 -5.197751 -3.958297 -3.608982 -4.133417 -3.847347 -5.084101 -4.398579 -3.220339 -3.675936 -4.302576 -4.879364 -4.166701 -2.300931 -2.536974 -2.916456 -3.353497 -3.873747 -2.740526 -2.608754 -1.555947 -1.878310 -3.382562 -2.298640 -2.235495 -1.501947 -1.304377 -1.991046 -0.905623 -1.655166 -0.539386 -0.610046 -0.982969 -0.779382 -1.194162 -0.342543 -0.475912 -0.761102 0.020642 -0.728624 -0.753542 -0.840033 -0.368163 0.204881 -0.925364 -0.233072 0.832134 1.723746 0.397309 0.140435 0.999382 1.836284 0.896343 -0.315372 0.240517 1.361348 0.777542 0.192374 -0.219255 0.555819 0.588277 0.320090 0.660562 -0.256737 -0.542910 -0.209354 -0.487339 -1.002364 0.269592 1.274878 2.169135 1.233790 1.182905 1.303541 1.981814 3.111285 2.545804 2.714868 3.470270 2.696434 2.655069 2.418283 3.207569 3.914493 2.876827 1.430612 1.316468 2.680021 3.389638 3.266222 2.196675 1.146152 1.342091 2.339711 3.337595 2.396756 1.008733 1.527352 2.205414 2.165768 1.208855 1.976259 2.607819 3.826616 4.126260 2.851632 2.875313 3.139339 3.507409 3.476378 2.638275 1.431051 1.267323 1.537191 1.511634 2.235905 0.689770 -0.528468 -0.803722 0.021683 1.346560 0.955570 0.243679 -0.456265 -0.795493 0.231984 -0.108922 -0.713101 -1.013174 -1.380378 -1.473648 -1.281457 -0.073502 0.065417 -0.164108 -0.982305 -0.201367 0.913828 2.586566 1.564436 1.642582 1.488813 -0.084629 0.212687 1.326915 3.270235 1.764982 0.019916 -1.492812 0.564904 2.966480 1.875706 1.527586 -0.169956 0.700499 0.830127 1.409990 2.030296 2.413787 2.175029 -0.024128 -0.145582 -0.125827 2.001965 2.003382 1.577923 0.102243 -0.418711 -0.663938 0.546556 1.046640 0.094133 -0.232314 0.267389 0.945882 1.358752 1.527411 2.366144 3.168240 1.407205 1.830232 2.630051 2.770194 1.310470 0.170823 1.354457 1.607699 0.809824 -0.724742 -0.260805 1.334999 1.651927 0.801521 -0.146305 -1.019144 2.050573 2.874750 0.335027 0.228042 -0.337016 1.748423 2.841852 1.242681 0.375766 0.925065 1.090753 1.328046 1.886961 1.303877 2.980261 2.946679 2.877809 2.333646 2.820705 4.326689 4.566232 4.051091 2.664699 1.973494 1.735233 3.395495 3.980841 3.286887 2.844570 3.187821 3.965229 5.919320 4.719889 4.131540 3.923024 2.441659 3.606349 2.882535 2.686812 3.263488 3.798728 3.286749 2.478018 2.820428 4.481155 5.093874 5.154638 4.573987 3.758543 3.873228 4.353739 5.622023 4.358779 3.346732 2.598722 2.229319 2.438515 2.176230 3.013701 2.309789 2.448834 2.330951 3.433026 3.506878 4.680984 5.847459 5.192920 3.757167 2.820912 4.221801 3.389648 