0.000000 0.000000 0.000000 0.000000 0.000000 0.000000 0.000000 0.000000 1.405499 1.885375 0.449422 0.196999 0.056922 0.364860 4.059915 4.298158 4.008800 3.366938 4.254941 5.232751 7.085135 10.018507 8.777144 8.109744 9.017169 8.914571 6.550245 8.009218 8.489614 8.198329 7.966722 7.779548 5.459961 4.176580 4.950181 4.368529 2.756731 3.230205 3.940508 3.324399 5.421803 2.498242 1.254709 0.912538 2.716567 5.230462 3.989753 3.460934 2.613337 3.010597 2.644948 4.738960 4.149296 3.592145 3.661805 2.647069 1.117786 1.324993 3.305220 3.932486 3.222550 2.149137 1.424548 0.755226 1.986061 1.636914 4.331737 3.164615 1.718016 1.628786 1.686458 0.124575 0.072572 1.775363 0.999033 2.403271 1.524065 -0.040113 -0.627351 -0.197005 0.772545 1.585989 2.631805 2.624921 1.735952 1.849183 0.042038 0.457796 1.822495 2.903385 3.828798 3.054100 0.069839 -0.206474 -0.742886 -1.705862 -0.238347 1.570813 0.829830 -0.132947 -1.741779 -2.218959 -2.657391 -1.014786 -0.319294 -1.224734 -1.705844 -1.799034 -1.915921 -3.104555 -3.176639 -3.471464 -3.394104 -2.259539 -1.213745 -2.146607 -4.618867 -2.848944 -3.600090 -3.778527 -2.065898 -2.094119 -3.012778 -4.385174 -3.621193 -3.882656 -3.548701 -3.315759 -2.754354 -3.213467 -3.610893 -1.677710 -2.908329 -4.840662 -3.303290 -2.125745 -1.913918 -0.457035 -2.726918 -3.568920 -3.549451 -2.277941 -0.021074 -0.709133 -2.101229 -3.417302 -2.087067 -1.446318 -0.596442 -0.175622 -1.062489 -2.067963 -0.325218 -0.635262 0.349019 -0.424743 -1.147976 -0.866257 -1.003541 -0.037551 0.544529 -0.049591 -1.446547 -2.071720 -0.713697 -0.611080 -0.345987 -0.335491 -1.346642 -1.019608 -1.969534 -1.919446 -1.433148 -1.493352 -0.660090 -0.325931 -0.688026 -1.743562 -2.120013 -3.057849 -1.083794 0.984517 -1.263932 -0.662919 -1.702553 -2.093777 -1.570090 0.153162 0.465989 -0.898176 1.665088 -0.689337 -0.647241 1.310684 -0.691003 -1.672280 -0.189696 1.619864 -0.240721 0.213891 0.144548 -0.430599 -0.685263 0.492132 0.974964 1.345550 1.111014 -1.096225 0.337742 -0.701138 -0.204844 1.491129 0.721097 -0.223907 -0.941838 -0.176471 0.661251 -0.105520 0.244834 0.572311 1.453628 1.017980 -0.286949 -1.082957 -0.172243 0.364474 0.274828 0.322659 1.549547 1.297871 0.145944 -0.026911 -0.186892 0.836709 -0.332712 1.653894 3.747377 0.952462 -0.393870 1.110621 0.466333 -0.500108 2.521372 2.259710 0.516336 0.711673 1.239284 0.630330 -0.050020 -0.450291 1.457986 1.233030 0.059631 -0.172898 -1.766180 -1.329773 0.267747 0.021086 0.336180 -0.455436 0.322823 0.387198 -1.432697 -0.254776 -0.991363 0.595682 1.105107 2.129862 0.996984 -0.426875 -0.646573 0.532776 1.950173 3.382824 2.866438 2.037281 1.161182 0.035235 1.210457 1.348964 2.139538 2.163478 2.161098 1.523657 0.023994 -0.689853 -0.267061 2.129836 2.181052 1.483309 0.993538 -0.859656 -0.166954 0.847573 1.618203 1.298727 1.115179 0.992257 1.567926 1.528836 0.082469 -0.094676 1.105406 0.708739 0.531636 1.087676 -1.817394 -2.172131 -0.692088 -1.031025 -0.791172 -1.384076 -2.034993 -2.006091 -2.016264 -1.910819 -2.076864 -2.079604 -2.961555 -2.372958 -1.466706 -2.518570 -2.582981 -2.604317 -2.798972 -3.343348 -2.326960 -1.407384 -2.475856 -2.557144 -3.227680 -3.573705 -3.476363 -1.811907 -2.111142 -4.252136 -2.061818 -2.474946 -2.556415 -1.637326 -2.168881 -1.897738 -2.733080 -1.242439 -2.039439 -2.087467 -1.338936 -1.229533 -1.650145 -2.398977 -2.473627 -3.247532 -1.816801 -0.630853 -1.918064 -2.876308 -1.910953 -3.009054 -3.867399 -2.140506 -1.420597 -3.182787 -1.600474 -1.297443 -2.675193 -2.167923 -1.459731 -0.818299 0.146922 0.103922 -1.379529 -1.599212 -0.687032 -1.170666 -0.780164 -1.586803 -2.283682 -0.499929 -1.698916 -1.722549 -2.996840 -3.028012 -2.606367 -2.400917 -1.009422 -1.490855 -1.315753 -3.250874 -2.290588 -1.918611 -3.778322 -3.024876 -3.385633 -1.628855 -2.745330 -2.159348 -3.016871 -3.949682 -3.081087 -2.680173 -1.498222 -2.046486 -2.791645 -3.473385 -2.819501 -4.410821 -4.465938 -2.886437 -3.004492 -2.560854 -1.851497 -1.448885 -1.516015 -1.077310 -0.807271 -1.029630 -0.345542 -0.816078 0.621032 0.726667 -1.073305 -1.669976 -1.138030 -0.410929 -1.440584 -0.747412 -1.014549 -0.548990 -2.181370 -1.383943 -0.693402 -1.024518 -0.571928 0.236199 1.443712 -0.176167 -1.632660 -0.773044 0.172888 1.244259 3.147468 1.856710 0.713104 -0.088824 0.560207 -0.701809 0.872535 1.196578 0.251233 0.048458 -0.323547 -0.391354 -2.117564 -2.157148 -2.148904 -0.222643 -0.011964 -0.686385 -0.310546 -0.612886 -0.282802 -0.755836 -0.262418 0.558918 -0.428363 1.693137 3.035627 0.592411 -0.014119 -0.187823 0.268760 2.317633 2.935471 2.153191 1.671167 1.607099 1.298417 0.734954 1.998824 2.511380 2.700396 3.506564 3.063658 1.719104 0.802078 0.821883 3.073766 3.770697 3.764813 4.139166 2.327082 2.629804 1.013370 3.217724 4.641407 4.846805 5.233733 4.678367 3.124337 3.452078 3.935651 3.814827 6.394358 6.913629 5.689465 4.940993 4.724515 3.876205 3.885467 5.731447 4.854619 5.286910 6.122951 3.838005 5.431890 3.702570 3.801853 5.453588 5.169290 5.913441 5.976546 5.488988 4.711277 6.236467 5.926464 5.334026 6.777875 5.869995 5.661315 6.541896 6.817541 6.203091 6.407039 7.171951 6.596437 6.121022 6.458856 6.369437 7.660632 6.797964 6.231755 5.118051 4.374275 4.734203 5.976107 4.558056 4.808442 4.670780 3.834210 3.298379 3.523236 4.167586 3.447490 4.305922 2.847537 2.235142 2.380982 3.467928 3.611675 4.149317 2.367279 2.977888 2.799979 3.472578 3.081961 2.190334 2.663638 1.636659 3.128599 0.843215 -0.539566 0.830442 0.876854 0.621684 0.672820 0.947113 -0.467319 0.253187 -0.059039 -1.234173 -1.341456 -1.440628 -0.019264 -0.783049 0.030060 -0.709813 -1.482575 -0.371861 -0.363475 0.196949 -0.374587 -0.425834 0.907116 1.097866 1.120654 -1.649355 -1.345542 -0.596475 -0.729862 -0.453018 -0.926902 -1.015599 -1.288089 -2.367195 -2.146926 -2.631312 -2.314580 -0.488894 -0.283699 -0.923201 -1.743002 -0.975342 -1.546575 2.018273 1.982574 1.148033 0.625662 0.926667 1.318838 1.657986 3.003156 2.543545 1.370850 1.850950 1.847122 1.088158 0.792822 1.036552 2.069286 1.774313 2.294371 0.610914 0.818002 1.212705 2.929791 2.487170 2.877005 2.574944 1.832323 1.586341 1.281274 1.873451 1.833022 2.993789 1.084508 1.993102 1.500641 0.174118 0.493395 0.174241 1.404917 1.619879 1.838475 0.994706 -0.482520 0.754263 0.233817 1.699721 1.685355 0.526793 1.848935 1.418791 1.719682 2.706044 2.167285 1.504679 2.341582 2.936884 1.720791 2.738162 2.127382 2.210867 3.661049 3.060808 0.368763 -0.914735 2.106367 2.580338 3.129148 1.969607 0.412371 -0.662545 1.508529 2.760958 0.940553 2.170386 0.930632 0.453225 0.594984 0.471203 1.349915 0.828889 0.526661 -0.241846 -0.856630 0.508503 0.605640 1.077517 0.741999 -0.478846 -1.661164 -2.066835 -0.910356 -0.444741 -1.493791 -2.680044 -2.911450 -3.937306 -3.691877 -4.067937 -3.369803 -2.248549 -3.061245 -2.008101 -3.683507 -4.764545 -3.483014 -2.676287 -1.710783 -1.787345 -2.577017 -4.405135 -5.092162 -4.701559 -3.696253 -2.049535 -3.114028 -4.345037 -5.355343 -3.906926 -4.350314 -4.609602 -4.283652 -5.443502 -5.110442 -4.171440 -4.174880 -5.450722 -5.221545 -5.164674 -5.258902 -3.903608 -2.440820 -3.260646 -3.287140 -3.932534 -4.520070 -3.668149 -2.221778 -3.351063 -2.540427 -4.192951 -5.316980 -3.744766 -3.931915 -4.333151 -3.808507 -3.202343 -4.485162 -3.592852 -3.738518 -3.556352 -3.649699 -2.249797 -2.439070 -2.394962 -1.703092 -3.237317 -3.026520 -2.392179 -2.359160 -2.787826 -2.310972 -2.175472 -2.468734 -2.933211 -1.694640 -1.893559 -1.002568 -1.178234 -0.915433 -0.426382 -0.634033 0.020800 0.051963 0.895937 0.093283 -0.242860 0.308650 -1.084655 0.481147 0.903177 1.363021 -0.259072 -0.552272 0.934147 -0.106211 1.708519 0.924784 -0.175370 -0.139516 1.331726 0.354543 0.762043 0.813521 0.550760 -0.404453 -0.632090 -0.789135 -0.695048 -0.213898 0.339493 -0.043835 -1.327445 -1.750135 -1.699087 -0.901430 -0.452338 -0.978820 -0.779168 -2.038220 -2.304792 -1.936457 -0.899451 0.015025 -1.630281 -1.397493 -2.858409 -2.211710 -1.730189 -1.700013 -1.698620 -0.950012 -2.758680 -3.056775 -2.234247 -2.846780 -3.747286 -3.368650 -3.130856 -2.085777 -1.695541 -1.162275 -2.762891 -3.683174 -2.223451 -2.462091 -0.330651 -0.594363 -0.888586 -1.754157 -1.911642 -1.563937 -2.504406 -1.049386 -0.633202 -1.465704 -1.572788 -2.682633 -3.010633 -3.809550 -1.987053 -1.705055 -1.861222 -1.592405 -2.626421 -3.262461 -3.103080 -0.700059 0.314503 1.060438 1.246829 -0.993235 -0.921169 -0.186922 0.564797 0.828450 0.223508 1.084486 -0.258651 0.715237 -0.427184 -0.563653 -1.082147 -0.169574 0.700859 0.499968 1.274263 0.250007 0.112203 -0.482475 0.240567 -1.173435 -0.763973 -0.272981 0.009200 -0.724636 -1.975243 -1.650314 -1.579095 -0.195919 0.415814 0.859734 0.304370 0.722419 1.764449 1.412043 1.921734 1.973147 0.999843 1.615467 2.685140 2.363063 1.541536 0.978603 1.120882 2.992425 3.388022 4.212496 3.585690 2.157445 3.021938 2.484926 3.097681 4.046692 4.384791 2.121856 1.435902 1.369235 1.703177 3.008920 3.042219 1.646486 2.649364 3.273769 1.589150 1.822990 2.599280 3.941992 4.243292 4.322362 3.528807 4.082491 4.532469 3.956287 4.329388 3.497263 4.127294 4.476776 3.895532 2.831167 0.885248 2.243358 2.824662 4.297623 5.242203 3.467767 3.665038 2.230862 2.692318 3.515094 4.139959 4.147412 3.470693 2.031285 0.678052 1.061864 2.396898 2.111484 1.999865 2.808339 1.662106 2.039818 1.653356 0.495957 1.753528 1.918184 0.859298 0.805215 1.416630 -0.168281 -1.392181 -1.556297 -0.569484 -0.906749 0.285010 -1.072216 -2.188604 -2.376942 -0.657799 -0.127362 -1.016038 0.964270 0.041018 0.126407 1.290396 1.563314 0.522606 1.382597 1.645883 1.470471 1.481851 1.012993 -0.733882 1.134552 2.859463 1.574049 1.860931 0.949656 0.274462 1.505657 3.237542 2.738281 1.893017 1.802652 2.603511 2.728454 2.823422 3.160763 3.395617 3.033261 2.829607 3.330287 3.942958 4.028475 4.046239 3.727669 2.189193 2.703360 4.065351 3.212153 2.075395 4.473036 3.247894 2.360065 1.714780 0.537460 0.957810 1.508697 1.669302 0.466314 1.376628 0.599143 0.147022 -0.305591 0.315926 -0.168796 0.883120 1.528544 0.266499 0.253167 -1.027496 -1.379269 -2.367048 -0.816557 -0.642963 -0.482248 -0.704545 -0.842877 -2.304469 -1.967188 -0.672751 -1.295927 -0.353675 -0.706274 -2.370482 -1.529081 -1.459020 -1.853408 -2.847020 -1.719740 -1.961349 -1.501510 -1.320931 -3.421159 -2.540362 -1.617736 -1.036129 -1.221429 -1.573630 -1.740705 -2.666807 -0.961512 -0.180515 -0.450173 -0.908595 -2.276524 -2.436392 -2.047510 -0.771592 -1.552310 -1.654528 -0.635311 -3.256955 -3.058431 -1.639536 -1.600272 0.031865 -0.673800 -1.909494 -3.485274 -3.090688 -0.496649 0.223777 -0.413589 -1.186992 -1.586865 -0.443990 -0.005427 1.630066 1.300180 1.912328 1.688065 0.621989 1.864946 1.282653 2.392877 3.451556 2.987401 0.998813 1.105895 1.694122 1.388452 2.321915 2.880231 2.395288 3.920465 3.024017 3.097707 2.786729 2.203623 3.165829 5.254361 5.698533 3.500670 3.135792 2.957294 2.841382 3.807054 4.179534 4.959295 4.437080 3.622907 3.332604 2.420302 2.088056 2.606386 3.894237 2.356481 2.530856 1.444868 1.882334 1.281079 0.232498 0.117125 1.326627 1.982257 0.031119 -0.442453 -0.652314 -2.005402 -2.368281 -1.002869 -1.117699 -0.230488 0.054017 -1.833827 -2.036726 -1.366329 -0.211239 0.385786 1.050925 -0.150398 -0.325447 -0.261448 -0.610780 -0.330541 -1.303660 -0.412623 -1.210046 -1.485937 -0.482037 -1.450887 -2.160147 -2.827039 -2.230247 -1.969274 -1.584223 -1.026397 -2.543790 -3.514094 -2.983221 -2.719493 -2.478009 -2.762631 -1.587905 -1.301837 -1.653644 -1.366170 -1.744550 -2.228847 -2.656980 -1.414102 -0.885889 -0.333927 -0.710986 -2.036028 -3.271481 -1.940223 -0.643257 -0.140502 -0.605841 -0.754187 -1.099387 -1.109007 -1.073574 -1.112253 -0.980371 -0.823299 -1.146307 -1.926431 -0.641824 -0.181541 0.456045 -0.505769 -0.203664 0.912659 1.005313 1.375427 1.471573 1.381384 1.352389 1.188044 1.636830 0.071020 1.384009 2.941577 3.293108 3.686417 1.340259 2.376293 3.205257 4.541493 4.581389 3.837298 4.100181 3.321420 3.673545 2.840537 2.244234 0.944465 2.110050 2.666032 1.904650 1.759340 1.091875 0.266306 1.299150 3.849458 3.023427 2.657158 2.954280 2.024808 2.631885 2.959306 2.585836 0.421578 1.050048 1.578668 0.686225 0.750325 -0.835313 -0.471198 -0.247012 -0.550506 -1.036932 -1.346202 0.148592 0.104696 0.196818 -1.005555 -2.512249 -0.079869 -0.062316 0.737039 0.537036 -0.603218 -0.930373 -0.876184 -1.547572 -1.318729 -0.328106 -0.594901 -1.418711 -2.546418 -2.148531 -2.316263 -1.249312 -1.029936 -1.084639 -1.712831 -2.117156 -2.299399 -1.971194 -1.827399 -0.428917 -0.866023 -0.740813 -1.177043 -1.249341 -0.669171 -0.881830 -0.114941 -0.720759 -0.566526 -1.152388 -1.173825 -3.219060 -2.796299 -1.828951 -2.493965 -2.179835 -1.951434 -2.029073 -1.873225 -1.578948 -0.828108 -1.435709 -0.804940 0.280477 -0.494834 -0.787363 -1.168854 -1.238049 -0.700899 -1.307671 -1.199797 -1.773730 -1.549139 -2.860841 -2.722713 -3.547760 -3.084093 -2.204158 -3.618098 -3.753818 -4.300792 -4.708761 -3.752390 -3.950589 -4.964229 -4.752867 -5.170544 -4.821447 -6.160380 -6.578919 -6.248941 -6.965817 -5.318578 -5.417248 -6.072339 -5.075215 -6.401326 -5.443056 -6.462357 -5.588904 -4.992568 -4.777212 -4.395157 -5.882230 -5.215755 -5.118259 -3.709322 -4.828874 -4.879836 -3.532093 -3.785839 -3.522658 -3.858055 -4.166254 -3.581568 -3.254677 -2.071330 -1.788321 -2.259805 -1.470971 -1.018364 -2.194923 -0.823309 -0.442619 -0.349417 -0.630890 -0.722857 -0.569829 -0.667552 -0.361387 -0.767797 0.591922 1.021728 0.765166 0.443966 0.277560 -0.038993 1.421390 1.556296 2.106559 0.697164 -0.156671 0.122383 0.042648 0.038663 0.335171 0.344542 0.026324 -0.135751 -0.419373 -0.597411 0.098616 0.519557 -0.344297 0.450871 0.249554 -0.451229 -0.262440 -0.800618 -1.091154 -1.312689 0.367956 -0.218516 -0.367199 -0.018723 0.041567 -0.850680 -0.221928 0.712588 0.865848 1.654302 1.855113 0.990870 1.609937 1.859979 2.244658 2.442964 1.881785 1.967445 1.928653 1.137993 0.684738 0.850959 -0.686616 0.170158 0.860609 0.306529 1.045842 -0.249448 0.170223 -0.066908 -0.606610 0.651382 0.989323 1.719945 1.365254 1.311277 0.138223 -0.076763 0.778100 2.740407 2.825971 2.566807 0.973711 -0.753725 0.132115 0.311316 1.142289 0.754420 1.159419 -0.064875 -0.539428 0.402762 -0.469758 0.410328 1.243668 1.257329 1.575031 1.205399 1.062127 0.688821 1.073166 0.941244 2.285381 2.185924 1.438707 1.341948 0.941844 0.356355 0.342914 0.686392 1.819400 1.779420 0.583105 0.567389 -0.745764 -0.392872 0.770593 1.594359 1.967179 1.858415 1.790050 1.263373 0.714242 2.270915 3.074785 3.717719 3.144016 1.667821 0.603708 0.411096 0.978756 0.770233 0.846485 0.136182 -0.401210 -0.524359 -0.405519 0.495355 1.098332 1.476155 1.630464 1.747873 0.940478 1.957986 2.541300 2.425937 1.926373 1.845826 2.472305 2.243358 2.112340 2.286009 1.803852 3.460551 3.297137 3.217264 2.695941 1.807423 2.807363 3.643439 4.119445 3.144163 3.320116 2.122351 3.121532 2.359521 3.875519 3.969758 2.789434 2.276045 2.632225 2.331960 1.526164 1.671240 1.130672 1.543304 1.574456 1.295399 -0.491340 -0.802166 0.821720 1.637553 1.864078 1.509423 1.013531 -0.023974 0.231288 0.580010 1.426533 1.097287 0.411729 -0.110733 -1.129201 -0.834345 0.606763 1.673153 0.013642 -0.038020 0.487772 0.294769 0.442046 0.895992 -0.640013 -0.244802 0.934225 -0.367245 -0.993277 -1.339827 -0.195225 0.538694 0.434376 -0.534554 -1.170419 0.360622 -0.949662 -0.475627 0.335409 -0.553670 -0.408546 -1.671491 -2.906089 -2.588730 -1.782664 -1.905792 -3.370590 -4.011467 -4.476999 -5.003868 -5.511989 -5.509315 -5.579896 -5.111253 -4.915356 -4.866788 -5.385670 -5.334418 -4.146323 -4.708283 -3.516018 -3.613498 -2.837252 -2.940673 -4.318026 -3.998811 -4.552759 -4.317797 -3.808276 -3.529415 -4.589609 -4.533385 -4.804667 -4.943697 -4.884309 -4.291486 -4.609412 -3.458570 -4.594529 -5.683928 -4.548833 -4.976750 -5.066817 -4.674137 -5.322008 -4.214293 -3.692754 -4.426624 -4.747488 -4.319594 -4.580556 -4.016536 -3.130421 -4.186383 -3.804029 -4.226613 -4.574906 -4.467405 -3.075892 -3.588156 -4.125780 -3.006383 -2.311228 -2.554139 -3.118860 -2.837666 -2.761902 -3.065917 -3.813171 -2.720999 -2.158733 -2.921482 -3.240742 -4.490490 -4.506075 -3.803709 -2.308957 -2.523376 -4.471783 -3.478556 -3.892450 -3.867825 -3.838748 -4.035158 -4.021156 -2.805884 -3.154448 -2.929243 -3.305637 -4.275593 -4.451161 -3.535608 -3.566422 -2.319555 -2.283233 -3.704089 -3.696890 -2.927789 -2.407576 -2.707543 -1.709728 -2.047421 -1.509103 -2.171445 -2.781922 -2.834967 -2.011912 -1.168302 -0.804658 -0.377521 -1.585738 -0.366515 -1.151261 -0.157386 0.785667 1.266340 1.070449 -0.157856 0.248477 -0.254092 0.183862 0.169325 -0.328314 1.460667 1.068590 1.433720 0.693983 1.017605 0.068398 1.580949 2.956407 2.748735 2.370528 1.248069 0.585925 -0.381407 1.546700 1.959365 2.738336 2.120737 0.719313 0.320476 0.538085 2.002949 2.543337 1.350798 0.943498 1.374187 0.067503 0.310006 0.112526 -0.018146 0.183542 -0.508140 -0.597978 -0.203248 -0.559787 -0.521729 -1.069095 0.090760 0.321886 0.741844 0.704841 -0.973865 -0.258747 1.545285 1.381831 2.211121 1.954304 0.265729 1.371562 1.525773 1.409123 1.276727 2.450238 2.058620 2.003181 1.925729 1.065967 1.560737 2.087540 2.693843 1.625283 1.279978 0.347784 0.426493 0.332566 0.727568 1.599781 1.117542 1.149564 1.663959 2.023819 1.846645 2.044120 2.459928 3.114358 3.656970 3.249970 2.879931 2.949501 2.355319 3.452118 3.076882 2.838755 2.744430 2.266014 2.693362 2.410678 2.682685 3.400861 3.836538 4.087619 4.832301 3.938969 3.055009 3.151508 3.104660 4.093241 3.584471 3.781249 3.024008 2.268684 2.209196 2.415259 4.984680 6.916477 6.864792 7.043613 8.512865 9.129792 11.599017 12.980812 13.790941 14.590741 14.451304 15.420193 13.809168 13.342938 12.821513 13.376656 15.275838 13.863411 13.016724 11.835771 10.691056 13.440846 13.566911 12.092875 10.433410 10.376603 10.024404 10.637167 10.861822 9.846478 10.435194 10.442645 10.760451 10.407096 9.863904 10.836985 11.627145 10.496161 10.305512 10.061750 9.978327 9.606880 10.098886 10.486815 9.238502 9.588412 10.377659 10.265832 8.321605 10.109462 10.686777 9.799229 10.512756 10.065642 8.904346 10.093127 10.216181 10.887481 10.599266 10.985494 10.064113 9.966995 12.447838 12.792944 12.526258 11.870035 11.113904 11.058127 11.752135 12.314531 11.908543 11.760467 13.036186 13.065722 13.357102 13.437212 13.573184 13.996876 12.069391 12.258258 12.320849 11.694974 10.168996 9.997498 10.609764 9.416544 8.715602 9.318977 9.300315 10.220853 9.630411 8.802343 8.164975 8.396129 9.620242 9.183275 8.848559 8.832063 10.170669 9.711654 7.881541 8.293430 8.774528 9.083975 9.159188 8.323723 6.402744 7.452690 9.150696 8.939059 8.276056 7.226913 6.807021 7.587574 6.966717 7.607210 6.213320 5.784549 6.098220 6.060441 5.834819 7.422370 8.252486 6.678052 6.046390 6.229168 7.028054 7.644841 7.461446 6.807528 5.876854 5.693060 6.179820 5.804610 6.144852 6.706042 5.836245 4.008377 3.231477 4.064791 3.449084 4.794633 4.219277 3.778972 3.202945 2.765235 5.746924 5.352796 4.796549 4.463131 4.316025 4.728912 5.950728 5.970826 5.134212 4.333519 5.547631 5.296639 6.211377 6.171985 5.479843 5.288588 4.565697 5.628885 5.956135 6.068896 4.967197 5.047254 5.370029 5.173329 4.780521 4.493299 4.013188 4.252468 3.863568 3.173949 4.541558 3.251867 4.151633 3.735290 4.195116 3.909637 2.966063 3.428086 4.543086 3.675414 3.667641 3.218287 2.339998 3.353478 5.526192 5.680937 3.584576 2.389210 2.283428 2.715674 3.944137 3.863208 3.053596 2.156636 1.313484 2.052160 2.513054 3.739502 3.068378 2.090586 1.532942 1.483284 2.082907 2.239855 2.389097 1.118312 0.769887 1.275499 1.338707 2.511540 1.794672 1.092804 0.602298 1.838795 2.796616 2.969536 2.772017 2.277166 2.040318 2.422734 3.839215 4.124715 3.126506 2.666491 2.910825 4.314582 4.851716 4.762286 3.274198 3.419230 3.883464 4.700473 5.237041 3.078330 2.591605 2.457510 2.433222 1.620305 1.475322 0.855938 0.924998 1.218637 -0.251014 -0.474858 -0.823537 -0.145868 0.239730 0.392665 -0.364068 -0.188047 0.265461 1.082779 0.333082 -0.515057 0.856978 0.305250 0.107851 0.081849 0.165410 -1.157537 -0.138072 -1.221605 -1.891777 -0.201866 -0.419537 -1.502767 -1.901153 -2.883532 -3.781925 -3.642083 -3.007290 -3.140795 -2.762893 -3.815686 -4.966626 -4.740730 -3.138646 -2.883514 -3.368698 -3.596655 -4.059229 -4.141015 -2.234748 -3.010435 -3.903228 -2.716083 -2.984847 -3.469191 -3.240364 -2.840749 -3.447794 -3.764992 -3.469601 -4.452674 -3.684876 -2.521460 -2.648738 -4.008593 -3.679018 -4.516823 -3.709282 -3.391003 -3.870759 -4.104747 -3.776260 -3.352332 -3.254695 -3.071018 -2.628448 -2.543657 -2.767221 -2.719158 -1.783619 -1.774662 -0.416052 -0.581794 -0.950330 -0.770794 -0.692224 0.951217 2.302792 1.702160 0.908641 -0.042089 -0.270469 1.248679 1.211652 0.955001 1.093318 0.732140 0.600657 2.063580 1.875571 1.874867 2.092160 2.644044 1.872546 3.011582 2.438900 1.443121 2.350226 1.838795 1.251502 1.886629 2.652172 1.362498 1.203168 0.951701 0.516961 2.416302 2.017099 1.907425 1.958286 2.865174 2.261271 1.241943 1.717027 2.406225 2.275582 2.167379 2.278746 1.778307 2.260952 2.484899 2.437514 2.416305 2.098790 1.344961 0.517814 1.418786 2.369597 1.844257 1.058997 0.498991 0.135662 0.707353 1.596272 0.994039 0.475117 0.653896 -0.467495 0.115593 0.572486 0.469164 0.012777 -0.137506 -1.129786 -0.310293 0.180791 0.715635 -0.342689 -0.185562 -1.256395 -0.731125 0.234592 0.913756 1.966972 1.542929 0.679049 0.120810 1.101896 2.528607 3.211431 2.891440 2.715348 1.380417 0.433441 2.445336 3.105746 2.552122 2.324195 0.916533 0.659960 1.798118 2.317997 3.058324 2.861780 2.634773 1.641248 0.970081 2.579728 2.846959 2.919927 1.858327 -0.020926 1.150725 2.827144 3.439956 2.972832 2.517227 2.641389 3.255780 3.917608 4.643930 3.536149 2.465388 3.430152 2.662140 2.581499 3.710327 3.114541 2.528373 2.368600 2.040895 1.955945 1.657376 1.855243 1.185044 0.624238 0.995603 -0.728834 -0.705028 0.377974 0.750927 0.623835 -0.562934 -0.815655 -1.460636 -0.727526 -0.903906 -0.338036 -0.909120 -1.651421 -1.127741 -1.524789 -1.551809 -0.677811 -2.284156 -3.516691 -2.526816 -3.225329 -2.650114 -2.577796 -3.523733 -4.434268 -3.877980 -3.978384 -3.298019 -2.355761 -2.358912 -2.376331 -2.204343 -2.836405 -2.190174 -1.551152 -0.538488 -1.796418 -1.797711 -2.398799 -1.906728 -0.694608 -0.353783 -0.935651 -1.904977 -1.408401 -0.448554 0.548677 0.941058 -1.016858 -0.966766 -0.619197 -0.755208 -0.126429 0.662647 -0.053428 0.029883 -0.162740 -0.944629 -0.951466 1.060048 0.882974 0.213218 0.757450 0.646118 0.830960 0.741696 0.801823 0.820864 0.991511 1.114029 1.321229 0.419760 1.093703 0.777188 0.328302 -0.240701 -0.962590 -0.905294 -0.354816 0.102978 -0.703047 -0.832118 -0.680660 0.560844 0.264989 -0.295836 0.867332 1.445387 1.636249 1.120249 -0.723953 -1.567177 0.038196 2.146994 1.532427 0.721178 -0.473628 0.036578 1.028139 1.287532 1.112640 0.994901 0.926741 0.809642 0.039620 -0.242258 0.723590 0.505148 1.149310 1.103974 0.852324 0.855082 0.945286 0.542283 1.281793 1.314834 1.586837 0.665853 0.558469 0.871861 1.032683 1.953642 0.753948 1.210898 1.930678 2.358104 3.250882 3.011863 3.582100 2.701288 2.893146 2.280345 2.104530 2.537188 3.322749 2.157338 1.587439 1.083577 1.222598 2.409800 3.777131 2.210570 1.674658 1.505746 2.302475 3.262067 3.526737 3.098368 3.138145 3.718896 4.640624 4.566866 4.028683 3.849140 3.814288 4.348647 3.959807 3.726274 3.272653 2.791593 3.368823 3.229520 4.564580 4.238712 4.567735 4.128489 3.328171 3.437047 4.591568 4.127674 3.924538 3.220197 2.494494 2.278066 2.781232 3.439331 3.263043 3.654471 2.981963 2.984737 3.136409 2.908048 2.300512 1.562879 2.173206 2.342909 2.081731 1.296230 0.170692 0.534408 0.338355 0.805068 1.126593 1.001753 -0.149209 -0.283245 -0.932465 -0.833165 -0.135110 0.032406 -0.368082 -0.926256 0.314110 0.206190 -0.036300 1.949024 1.282415 1.688793 1.519983 0.397217 -0.208601 0.026509 1.365679 0.074718 -1.531507 -2.490649 -1.594579 -0.519312 -0.426576 -0.762409 -2.033832 -2.199260 -1.592386 -0.034786 -0.356817 -1.156133 -0.492987 0.035150 0.459514 0.012524 -0.364910 -0.938318 0.343832 0.365759 0.761894 -0.003598 -0.522086 -0.089194 -0.564580 1.116410 1.247662 1.416859 0.163501 0.227296 -0.108642 0.917614 0.989812 -0.284383 0.428363 -0.500033 -0.453072 1.226020 1.744259 0.356724 0.385371 -0.833399 -0.883039 0.193234 0.308142 -1.631797 -2.671711 -2.360034 -2.442904 -1.511562 -1.786031 -2.259584 -1.172716 -0.176260 -0.258801 -0.376388 -1.707061 -0.011202 -0.722298 0.026066 -0.900852 -1.703509 -2.104103 -2.862653 -2.382508 -1.581319 -1.209744 -1.927853 -2.840692 -3.543403 -1.711397 -0.222316 -1.062686 -2.506441 -2.784521 -1.750522 -0.893457 -0.319261 -0.974100 -1.219421 -0.225278 -0.479129 -0.614201 -0.489579 0.629135 0.575595 0.753800 -0.070336 -1.638313 -0.750806 0.365589 0.185497 0.514068 -0.531097 -2.077535 -0.971985 -0.491090 1.046073 0.744410 -0.754053 -0.176833 -0.204423 0.689795 0.976466 1.339772 0.894332 0.817782 0.824876 1.073141 1.749786 2.070580 2.117965 1.246128 0.507052 0.771400 0.075706 0.764312 1.866384 0.059647 -0.563288 -1.106242 -1.147851 -0.234233 -0.589075 -1.437249 -2.397638 -2.640789 -2.651365 -3.825366 -2.255232 -2.546817 -2.561888 -3.723708 -3.920700 -3.656664 -2.678402 -2.490192 -2.987813 -2.851386 -3.038287 -3.843220 -3.338413 -3.937921 -3.725066 -4.287400 -4.302367 -3.707700 -5.056321 -5.800773 -5.430550 -4.726988 -3.090767 -4.137696 -4.396430 -5.145705 -5.200341 -4.458617 -4.191946 -3.957898 -3.830462 -4.216997 -5.463418 -4.967730 -4.358385 -3.578999 -3.902105 -4.123500 -4.849414 -4.352940 -4.189095 -4.139171 -4.193863 -2.855222 -3.168375 -2.975268 -5.127127 -5.023694 -3.300814 -2.401044 -3.370786 -4.365030 -4.664263 -3.726374 -1.984125 -1.904529 -1.880038 -0.770607 -0.262568 -0.002748 -0.363645 0.608875 0.733374 0.766095 0.545342 0.013585 0.751361 1.658684 2.232783 2.175427 1.643916 1.007840 1.609857 2.655928 4.031395 3.371979 2.148226 1.434059 1.952028 2.775563 3.254626 2.372760 0.343841 0.276811 0.073373 0.195593 -0.049424 0.325807 -0.115541 -0.573855 0.443689 -0.220395 -1.723722 -0.711097 -0.912918 -1.063352 -0.528607 -1.349685 -2.481818 -1.733330 -2.204037 -2.017405 -1.598325 -1.733204 -2.520059 -2.147264 -2.135323 -2.442612 -2.429989 -2.527480 -1.876477 -1.572782 -1.694564 -1.667640 -2.471372 -2.615925 -2.154534 -2.227068 -1.402691 -2.066565 -3.308853 -3.471280 -2.505055 -2.261968 -1.517918 -2.411276 -3.213598 -4.422898 -3.836975 -3.347824 -3.147958 -3.113801 -4.292603 -5.037431 -4.657360 -4.198675 -3.546128 -3.248184 -3.875169 -4.622204 -3.830580 -4.107501 -2.853433 -2.510178 -3.851589 -4.205674 -3.841985 -3.475211 -2.373665 -2.374938 -2.753544 -2.777128 -2.503815 -2.924536 -1.806265 -2.340268 -2.168397 -1.238498 -1.451143 -2.351051 -2.752804 -4.011251 -3.003613 -1.807935 -1.440318 -1.822135 -2.328574 -3.287435 -3.471801 -2.197850 -1.615274 -1.309515 -1.818292 -2.216264 -3.323308 -2.547286 -0.806099 -0.441062 -0.393616 -0.316167 -1.543874 -0.981064 -0.570474 -0.835988 -0.095219 -1.254505 -0.937683 -1.063475 -0.805514 -0.780665 -0.711191 0.181298 0.222256 0.226348 0.621855 0.729094 1.016733 0.366918 1.370354 0.782846 1.093366 1.369141 1.533037 1.951298 2.517973 2.872073 2.284856 2.031103 3.570736 2.999423 2.001547 1.837271 1.138137 1.305975 2.407888 1.098362 -0.162131 -0.304885 1.019555 2.585350 2.599537 1.159092 0.586143 0.498734 1.605308 2.610700 2.386970 1.695318 1.674177 1.913699 2.474808 2.064313 2.762427 1.977612 1.811106 1.867494 1.540206 0.642894 1.057784 1.628491 1.817803 0.958653 0.488247 0.228148 0.130875 0.736139 0.510441 0.421135 -0.218747 -0.155130 0.404393 0.087305 0.457320 0.959954 0.924524 0.322619 0.911766 0.166275 0.137278 1.326228 0.493014 -0.331649 0.380406 -0.868420 -0.499174 0.073008 0.665174 0.714716 0.329358 -0.031604 0.069288 0.659137 1.817996 1.711899 1.031972 0.670546 -0.318299 0.230956 0.762346 0.758103 0.844360 1.313962 -0.217934 -0.061045 -1.043755 -1.784322 -0.086194 1.060441 0.587986 -0.422592 -0.905487 -1.780762 -0.953831 0.616929 0.786782 -0.148242 -0.587962 -1.229368 -1.482944 -1.785653 -1.274173 -1.135999 -0.626867 -1.210710 -1.755448 -1.823638 -1.525575 -1.557030 -1.148460 -0.096589 0.465282 -0.095681 -0.334353 -0.948370 -0.375804 0.478754 0.441719 0.437093 -0.680958 -1.810590 -1.783389 -2.001752 -1.700930 -2.178754 -2.544094 -2.453022 -2.191579 -2.636673 -3.213026 -2.541991 -1.516889 -1.680675 -1.312676 -1.728224 -2.040411 -1.224346 -0.575889 -0.408068 -0.235692 -1.625969 -1.411382 -1.494817 -1.706439 -1.865991 -2.160490 -1.723031 -0.819239 -0.693161 -1.670612 -1.967014 -1.306162 -0.363716 -0.267853 -0.401726 -1.268431 -1.224398 -0.359163 -0.080161 0.480451 0.738614 2.199145 1.101676 1.150362 1.183757 1.747449 2.790857 3.474551 2.357545 2.464802 2.490312 2.303276 2.217258 2.490538 2.174489 2.328384 2.522156 2.619960 3.250451 4.056824 3.628191 2.948951 3.378649 3.556411 3.515561 3.848366 4.334800 3.871014 3.650953 3.291000 3.743829 3.942702 4.311757 4.580284 4.193521 4.488383 4.043859 3.644784 3.742983 3.128053 2.643674 2.607215 3.369125 2.879978 2.919242 1.577317 0.187524 0.572292 1.482190 1.343977 1.031876 -0.009084 -0.324956 -0.949569 0.426839 1.622758 1.501533 0.555345 0.954195 0.717611 1.070752 1.667328 1.053496 0.423119 1.020524 1.390491 0.504582 1.854692 2.417982 1.863168 2.514277 3.423096 2.769539 2.789498 2.215528 1.445374 2.023349 2.615406 2.149143 1.523935 1.565472 2.047696 2.795308 2.796858 3.266357 3.205908 3.078176 2.178895 2.606496 2.771792 4.160076 4.747508 4.424268 3.783051 3.246939 3.781784 4.105398 3.903798 4.089119 2.998615 2.427588 2.100737 1.472248 2.108519 2.492824 4.113359 3.467094 2.476182 1.750614 1.919058 2.488510 2.529776 1.844836 1.116674 0.624537 0.813952 1.328731 0.642102 0.188900 1.191041 1.075438 2.914907 3.170485 1.360879 0.292304 0.615341 1.977055 1.758305 1.383809 0.790087 1.359903 1.173328 0.675144 0.811143 1.512774 3.344940 4.001049 2.809080 1.191862 1.845352 2.087002 3.265215 2.520247 1.237449 1.165920 1.344210 1.858922 2.109884 1.674421 2.488839 2.322687 2.500108 2.150074 2.090652 2.393854 3.486584 2.888563 3.048519 1.477430 1.274147 1.117839 1.816937 2.506384 2.899609 0.856160 1.028034 0.489262 -0.291845 1.179632 0.708254 0.682702 0.596165 -0.318549 -0.734121 0.304604 0.226148 0.273339 0.169176 -0.376678 -0.420878 -0.850673 -0.570694 -0.966316 -1.079425 -2.277547 -2.500282 -1.729780 -0.566869 -0.722048 -1.509683 -1.462291 -1.585651 -1.240599 -1.198960 -0.949742 -1.078974 -1.829163 -2.620025 -2.638880 -1.951888 -1.179124 -1.654135 -3.255631 -3.025399 -2.304271 -2.740155 -2.514858 -3.773839 -3.879235 -2.762477 -2.073203 -2.307846 -2.336240 -1.673938 -1.615493 -1.689399 -2.387542 -2.807544 -2.440811 -2.427068 -2.479952 -2.853729 -3.326836 -3.556106 -3.288156 -3.115790 -2.270222 -3.127853 -2.652979 -1.904777 -2.313896 -2.089294 -1.415528 -1.057044 -1.409138 -1.406768 -1.873661 -1.605856 -0.684492 -1.103915 -0.606239 0.034303 -1.189120 -1.203794 -1.280015 -1.148415 -0.478031 0.136879 0.485025 1.171264 -0.024054 -1.167497 -1.314236 -0.205596 1.154272 0.872230 0.965847 -0.112903 0.269562 0.670245 1.288983 1.053453 1.015436 0.882991 0.373899 0.692750 0.102813 1.263894 2.408789 2.879685 2.014435 1.121879 1.155846 1.952636 2.949197 2.463614 1.296657 0.218649 0.157146 0.872057 1.278942 1.688136 1.904814 0.762512 0.579632 0.980854 0.309818 0.374109 1.245589 0.885362 1.435514 0.760438 0.296143 0.312073 1.572579 2.016854 1.298795 2.073738 1.436922 1.353482 2.022895 2.645427 3.547532 3.459376 2.072606 1.951700 1.701080 3.222333 3.091289 2.994504 2.157768 2.060658 2.008294 2.226816 2.298143 2.149455 1.790834 1.937370 0.563963 0.598445 0.516137 1.589000 1.459347 1.119368 0.473552 1.022384 1.160806 1.654497 2.566205 2.343232 1.243902 0.525703 0.242782 1.212617 1.838159 1.871653 0.454238 0.354774 0.608502 0.582613 0.582225 1.340120 1.300484 1.780523 1.168822 -0.087783 -0.056557 -0.008366 1.717532 3.108728 1.994643 1.344011 0.188170 0.882555 1.564654 2.300800 1.706564 1.064257 1.779091 0.530158 -0.226290 0.771114 1.059039 1.611326 0.123265 -1.726757 -2.187946 -0.301324 0.186952 0.227321 -1.330342 -2.203447 -2.443405 -0.642563 -0.392655 -0.006295 -0.279201 -1.002112 -1.285859 -1.358727 -1.293856 -0.861181 -0.336806 -0.219400 0.090617 -0.762141 -1.432177 -1.072208 -0.149202 0.879080 1.900511 0.508283 -0.641165 -0.778123 -0.228489 0.052264 0.031321 -0.568299 -0.416364 -0.385766 -0.043280 -0.102727 -1.452356 -0.519845 0.613002 0.007216 0.154034 -0.228963 -0.419270 -1.091678 -0.378206 -0.384417 -0.383445 -1.019497 -1.931693 -2.488818 -2.192884 -1.987756 -2.313499 -2.482477 -1.897527 -1.891449 -1.835855 -2.981762 -2.558075 -2.732180 -1.358821 -1.424953 -2.219396 -2.432469 -2.690200 -2.123616 -1.142502 -1.196196 -1.085977 -0.748528 -1.375573 0.204068 -0.843353 -0.424175 0.266085 -0.046308 -0.632529 -1.615297 -1.995208 -1.856205 -0.606809 0.287426 -0.425343 -1.272471 -1.541778 -0.523249 -0.231057 0.026669 -0.549509 -0.740068 0.067491 0.170817 -0.720298 -0.975358 -1.298872 -0.439577 0.711445 1.885924 1.774601 -0.128023 -1.112938 -0.637176 1.249733 2.389960 1.021021 -0.102560 -0.962616 -0.909821 0.845448 2.032860 0.784911 0.599603 -0.004056 0.026377 0.886444 1.262826 0.558854 0.851375 1.170885 1.663259 1.665726 2.030493 1.923305 1.017388 1.307289 2.008692 2.222047 1.028257 0.398812 0.810082 0.721409 1.135630 0.880616 -0.576964 0.039431 0.606263 0.016399 -0.371493 0.630193 0.274937 -0.225585 -0.259187 -1.063644 -0.435437 0.004024 -0.885794 -1.530253 -1.655137 -1.376111 -1.862572 -3.152330 -4.473217 -4.001443 -3.492217 -3.038551 -3.511367 -4.568106 -4.535979 -3.692210 -3.490356 -3.410932 -2.857701 -3.395665 -3.744153 -5.400816 -4.965533 -4.547050 -3.739424 -3.542922 -4.610571 -5.437234 -4.568700 -3.482812 -2.683719 -1.972558 -3.522992 -3.702789 -2.555746 -2.105086 -2.052200 -2.650522 -2.488344 -1.821753 -1.375752 -2.380266 -1.768636 -1.586817 -0.165179 0.239298 -0.611894 -1.112483 -0.652862 -0.713071 0.052953 0.174990 -0.079727 -0.345262 0.101187 -0.111777 0.005392 0.423346 0.772676 0.015331 -0.341624 0.276806 0.547123 1.521912 1.157313 0.549492 0.853149 1.450472 1.554520 1.886404 0.930812 0.882224 0.513432 0.415045 0.451689 0.624049 0.330748 0.176170 -0.043783 -0.029005 -0.946716 -0.727635 0.193865 -0.351954 -1.015719 -1.269053 -2.007349 -1.111227 -0.605773 -0.356113 0.272709 1.062727 0.534928 0.561771 0.451026 0.533172 1.115644 -0.222621 -1.041137 -0.758320 -1.330247 -1.570866 -1.180713 0.723211 0.470244 0.688153 -0.538766 -1.027663 0.819998 1.129485 0.181159 -0.578250 -0.100879 -1.407030 -0.788099 -1.282907 -0.893877 -0.977272 -1.502850 -1.947623 -2.222561 -2.193720 -1.920713 -1.887331 -1.236806 -1.345097 -1.541342 -0.891584 -1.010355 -0.013032 0.722151 -0.415174 0.917488 0.100900 -0.440339 0.662081 1.387543 0.817592 1.490155 1.405918 0.437028 1.333798 1.560876 1.254807 2.467044 1.172781 0.808837 0.791355 0.463286 0.695342 -0.242723 0.054877 1.397534 0.694223 0.070839 0.106141 -0.797289 0.859741 0.760232 0.289031 -0.032743 -0.211280 0.143129 0.093236 1.139374 0.778791 1.242391 1.839862 1.574473 1.289524 1.179295 0.683164 0.809880 1.340208 1.184648 0.965273 -0.236459 -0.908649 -0.918219 -0.189840 0.264030 0.226482 -0.691129 -1.717904 -1.151244 -0.233659 1.442685 1.342030 -0.381620 -1.400795 -0.830167 0.022731 -0.171672 -1.206810 -1.321133 -0.925505 0.031583 -0.713835 -1.501704 -0.807090 1.057083 1.458342 0.604292 -0.063566 -0.947761 0.027561 0.087369 -0.039415 -0.012545 -0.099315 -0.829915 -1.053374 -1.320834 -0.484716 1.340476 0.871291 0.307670 -0.972392 -0.601672 0.009425 0.460012 0.527040 0.805513 0.344136 -1.045462 -0.667058 0.697180 1.087507 1.925506 1.485492 0.290451 0.900090 0.835320 0.597040 1.571289 1.906012 2.146352 1.213008 1.514472 2.239865 2.047317 2.321776 1.762073 1.578562 1.869333 1.079467 0.869927 0.662964 0.544455 0.818767 1.239206 1.462034 0.673387 -0.397189 -0.641563 0.334541 1.357099 0.704422 0.249129 0.202912 -0.454142 -1.202515 -1.633413 -1.401579 -0.252832 -0.691157 -0.997557 -1.858966 -2.761845 -2.025405 -2.013933 -1.766186 -1.307714 -0.840830 -1.190290 -0.876891 -1.721452 -1.167629 -0.156371 0.949596 0.299175 -0.556978 -1.119132 -1.340953 -1.163506 -0.783028 -0.947280 -1.611384 -1.230412 -1.678856 -1.012724 -0.974403 -0.563067 -0.244055 -0.595654 -0.382868 -0.832077 -0.954807 -0.627157 -0.963403 -1.521302 -2.176679 -2.498341 -2.401657 -0.672147 -1.017191 -1.893115 -2.125976 -2.307674 -1.184184 -1.144711 -1.472578 -1.426830 -2.042604 -1.858391 -1.786784 -2.010506 -0.892468 -0.656480 -1.751350 -1.130571 -1.367296 -1.585116 -0.934736 -1.090541 -1.783657 -1.922697 -2.877202 -3.832451 -2.688313 -2.553771 -3.783616 -3.775202 -3.958597 -3.280898 -2.791356 -2.956546 -2.732172 -1.132692 -1.859990 -2.055166 -1.904391 -2.602084 -1.378749 -0.803208 -1.935459 -1.750589 -2.892605 -3.503705 -3.228996 -3.239241 -3.921131 -4.130920 -4.195010 -4.629788 -4.608782 -4.922309 -3.702669 -2.769533 -1.916239 -2.465625 -3.169923 -3.049836 -1.889228 -0.768822 -1.903585 -1.610545 -2.195488 -1.336483 -0.718654 -1.157706 -1.422376 -0.447490 -0.324861 0.170595 -0.358721 -0.299797 0.370433 1.325541 0.769335 0.654795 0.329416 1.312699 2.919508 1.853363 1.127583 0.121514 0.172092 1.527569 2.364897 1.591208 1.693432 1.937253 2.377411 3.327698 4.202381 3.999061 5.377997 4.351365 3.797219 3.208217 3.405134 3.140905 4.654762 3.403656 2.569725 1.958924 2.001475 2.754471 3.107321 3.522961 3.034559 3.007309 1.468384 1.635914 1.347845 2.851446 2.333443 0.576417 -0.467006 -0.715217 2.043937 1.958227 1.633903 0.563332 0.235702 0.607880 1.289697 0.940469 0.188330 0.459320 -0.101967 -0.509417 -1.164846 -1.858065 -2.308432 -2.451427 -0.938809 -0.904246 -1.883608 -2.538674 -3.190702 -2.361042 -1.912770 -1.070682 -1.611412 -1.350286 -1.782630 -2.752645 -3.606154 -2.701513 -2.688704 -2.141485 -2.339782 -3.194654 -2.860992 -2.302348 -2.409978 -2.436026 -2.177739 -2.554241 -2.056672 -2.160548 -1.444214 -1.837858 -1.265654 -1.551181 -1.572433 -0.803850 -0.993195 -1.478986 -2.458819 -2.307109 -2.456434 -2.834611 -2.422556 -3.284876 -4.068647 -2.685145 -2.240160 -2.018887 -2.697858 -4.135487 -4.061786 -3.573417 -2.959030 -2.960247 -3.367706 -3.558005 -3.431562 -3.603251 -2.693680 -1.613367 -1.217702 -1.196177 -1.339078 -2.587079 -2.060900 -1.720688 -0.313054 -1.151663 -1.636869 -1.943803 -2.231272 -1.416069 -0.928497 0.450616 0.671550 0.719573 -0.791533 -0.574117 -0.161420 0.990411 1.707531 0.456692 -0.678249 -1.057394 -0.885667 -0.767024 0.474042 0.407929 -0.728450 -1.068039 -0.622841 0.305615 0.224011 0.798034 -0.221929 -0.317598 -0.427053 -1.130522 -0.944749 -1.021349 -1.498190 -1.366247 -1.020986 -1.290580 0.074238 0.044683 -0.360849 -1.319333 -1.873541 -0.601896 0.139998 0.086168 -1.470393 -1.760884 -1.979981 -0.459340 0.012547 -0.506486 -1.279354 -0.733859 -0.807295 -1.419690 -0.870372 -1.296079 -0.852108 -0.300245 -1.321623 -2.464801 -1.705432 -0.858543 -0.638335 -0.742659 -0.465660 -1.304863 -0.903838 -1.058576 -2.079859 -0.354077 -0.510867 -1.148522 -1.563470 -0.844647 -0.718671 0.685278 -0.412531 -1.920786 -1.108995 -0.342611 -0.889163 -0.196992 -1.759290 -1.879998 -1.574752 -1.959817 -2.177601 -1.021054 -1.197261 -0.757034 -0.316883 -1.056700 0.101442 0.923119 0.572411 0.603672 0.491223 1.756870 2.010358 1.302727 0.797410 0.080275 0.692569 1.155764 0.819543 0.206670 -0.343126 -1.532599 -0.706921 -1.222039 -0.864391 -1.409949 0.331566 0.892935 1.181772 0.465210 0.459939 1.719732 3.153665 2.554993 1.512860 0.968219 