12.81029512186553986908 3.16156126519193358959 6.37780588408313597881 6.37780588408313597881 3.16156126519193358959 9.59405050297433881212 12.81029512186553986908 12.81029512186553986908 6.37780588408313597881 3.16156126519193358959 3.16156126519193358959 3.16156126519193358959 -0.05468335369926827921 3.16156126519193358959 6.37780588408313597881 6.37780588408313597881 6.37780588408313597881 9.59405050297433881212 9.59405050297433881212 6.37780588408313597881 12.81029512186553986908 9.59405050297433881212 9.59405050297433881212 12.81029512186553986908 9.59405050297433881212 9.59405050297433881212 3.16156126519193358959 9.59405050297433881212 3.16156126519193358959 -3.27092797259047030067 9.59405050297433881212 6.37780588408313597881 3.16156126519193358959 9.59405050297433881212 3.16156126519193358959 -0.05468335369926827921 6.37780588408313597881 3.16156126519193358959 9.59405050297433881212 3.16156126519193358959 -0.05468335369926827921 3.16156126519193358959 -0.05468335369926827921 3.16156126519193358959 12.81029512186553986908 6.37780588408313597881 6.37780588408313597881 3.16156126519193358959 -0.05468335369926827921 3.16156126519193358959 3.16156126519193358959 16.02653974075674270239 3.16156126519193358959 3.16156126519193358959 -0.05468335369926827921 6.37780588408313597881 6.37780588408313597881 6.37780588408313597881 -0.05468335369926827921 12.81029512186553986908 3.16156126519193358959 -0.05468335369926827921 12.81029512186553986908 3.16156126519193358959 -0.05468335369926827921 -0.05468335369926827921 -0.05468335369926827921 -0.05468335369926827921 6.37780588408313597881 -0.05468335369926827921 6.37780588408313597881 6.37780588408313597881 -0.05468335369926827921 -0.05468335369926827921 6.37780588408313597881 -3.27092797259047030067 -0.05468335369926827921 3.16156126519193358959 3.16156126519193358959 6.37780588408313597881 -0.05468335369926827921 -0.05468335369926827921 -0.05468335369926827921 -0.05468335369926827921 9.59405050297433881212 -0.05468335369926827921 12.81029512186553986908 -0.05468335369926827921 -0.05468335369926827921 3.16156126519193358959 3.16156126519193358959 6.37780588408313597881 -3.27092797259047030067 -0.05468335369926827921 3.16156126519193358959 -0.05468335369926827921 -0.05468335369926827921 3.16156126519193358959 -0.05468335369926827921 -0.05468335369926827921 -3.27092797259047030067 3.16156126519193358959 3.16156126519193358959 6.37780588408313597881 3.16156126519193358959 3.16156126519193358959 -3.27092797259047030067 -3.27092797259047030067 -0.05468335369926827921 6.37780588408313597881 3.16156126519193358959 -3.27092797259047030067 -0.05468335369926827921 -0.05468335369926827921 12.81029512186553986908 -0.05468335369926827921 3.16156126519193358959 3.16156126519193358959 -3.27092797259047030067 -0.05468335369926827921 3.16156126519193358959 3.16156126519193358959 -6.48717259148167180172 -0.05468335369926827921 -3.27092797259047030067 -0.05468335369926827921 -0.05468335369926827921 -3.27092797259047030067 -0.05468335369926827921 -0.05468335369926827921 3.16156126519193358959 -3.27092797259047030067 -3.27092797259047030067 3.16156126519193358959 -0.05468335369926827921 -0.05468335369926827921 -6.48717259148167180172 -3.27092797259047030067 -0.05468335369926827921 3.16156126519193358959 6.37780588408313597881 3.16156126519193358959 -0.05468335369926827921 -3.27092797259047030067 -9.70341721037287463503 -3.27092797259047030067 -0.05468335369926827921 -0.05468335369926827921 -3.27092797259047030067 -0.05468335369926827921 3.16156126519193358959 -3.27092797259047030067 -0.05468335369926827921 6.37780588408313597881 -0.05468335369926827921 3.16156126519193358959 -6.48717259148167180172 -0.05468335369926827921 -3.27092797259047030067 -0.05468335369926827921 3.16156126519193358959 -0.05468335369926827921 -3.27092797259047030067 -3.27092797259047030067 -0.05468335369926827921 -3.27092797259047030067 -3.27092797259047030067 -0.05468335369926827921 -0.05468335369926827921 3.16156126519193358959 -3.27092797259047030067 -3.27092797259047030067 -0.05468335369926827921 -0.05468335369926827921 -3.27092797259047030067 -0.05468335369926827921 -0.05468335369926827921 -6.48717259148167180172 -9.70341721037287463503 -3.27092797259047030067 -0.05468335369926827921 3.16156126519193358959 3.16156126519193358959 -0.05468335369926827921 -0.05468335369926827921 -3.27092797259047030067 -0.05468335369926827921 -0.05468335369926827921 -0.05468335369926827921 9.59405050297433881212 3.16156126519193358959 -0.05468335369926827921 -6.48717259148167180172 -0.05468335369926827921 -0.05468335369926827921 3.16156126519193358959 3.16156126519193358959 9.59405050297433881212 -0.05468335369926827921 3.16156126519193358959 -0.05468335369926827921 9.59405050297433881212 6.37780588408313597881 9.59405050297433881212 3.16156126519193358959 -0.05468335369926827921 9.59405050297433881212 6.37780588408313597881 3.16156126519193358959 3.16156126519193358959 3.16156126519193358959 9.59405050297433881212 9.59405050297433881212 6.37780588408313597881 12.81029512186553986908 6.37780588408313597881 9.59405050297433881212 6.37780588408313597881 9.59405050297433881212 6.37780588408313597881 -0.05468335369926827921 6.37780588408313597881 9.59405050297433881212 3.16156126519193358959 16.02653974075674270239 6.37780588408313597881 9.59405050297433881212 12.81029512186553986908 9.59405050297433881212 6.37780588408313597881 6.37780588408313597881 6.37780588408313597881 3.16156126519193358959 9.59405050297433881212 12.81029512186553986908 9.59405050297433881212 16.02653974075674270239 9.59405050297433881212 9.59405050297433881212 9.59405050297433881212 9.59405050297433881212 12.81029512186553986908 12.81029512186553986908 9.59405050297433881212 12.81029512186553986908 9.59405050297433881212 12.81029512186553986908 9.59405050297433881212 12.81029512186553986908 19.24278435964794553570 12.81029512186553986908 6.37780588408313597881 9.59405050297433881212 6.37780588408313597881 9.59405050297433881212 6.37780588408313597881 16.02653974075674270239 12.81029512186553986908 6.37780588408313597881 6.37780588408313597881 3.16156126519193358959 16.02653974075674270239 6.37780588408313597881 12.81029512186553986908 19.24278435964794553570 6.37780588408313597881 9.59405050297433881212 12.81029512186553986908 6.37780588408313597881 9.59405050297433881212 9.59405050297433881212 3.16156126519193358959 3.16156126519193358959 3.16156126519193358959 -0.05468335369926827921 3.16156126519193358959 6.37780588408313597881 9.59405050297433881212 3.16156126519193358959 3.16156126519193358959 9.59405050297433881212 -0.05468335369926827921 3.16156126519193358959 3.16156126519193358959 3.16156126519193358959 12.81029512186553986908 3.16156126519193358959 3.16156126519193358959 6.37780588408313597881 -0.05468335369926827921 -0.05468335369926827921 3.16156126519193358959 -0.05468335369926827921 3.16156126519193358959 6.37780588408313597881 -0.05468335369926827921 3.16156126519193358959 -0.05468335369926827921 -6.48717259148167180172 -0.05468335369926827921 -3.27092797259047030067 -3.27092797259047030067 -3.27092797259047030067 -3.27092797259047030067 -6.48717259148167180172 -3.27092797259047030067 -0.05468335369926827921 -0.05468335369926827921 -0.05468335369926827921 -0.05468335369926827921 -6.48717259148167180172 -3.27092797259047030067 -6.48717259148167180172 3.16156126519193358959 -0.05468335369926827921 -3.27092797259047030067 -3.27092797259047030067 -0.05468335369926827921 3.16156126519193358959 3.16156126519193358959 3.16156126519193358959 -0.05468335369926827921 -6.48717259148167180172 -6.48717259148167180172 3.16156126519193358959 3.16156126519193358959 6.37780588408313597881 3.16156126519193358959 -3.27092797259047030067 -0.05468335369926827921 -3.27092797259047030067 9.59405050297433881212 -0.05468335369926827921 3.16156126519193358959 3.16156126519193358959 -0.05468335369926827921 -0.05468335369926827921 -0.05468335369926827921 9.59405050297433881212 6.37780588408313597881 6.37780588408313597881 3.16156126519193358959 6.37780588408313597881 -3.27092797259047030067 -0.05468335369926827921 -0.05468335369926827921 3.16156126519193358959 6.37780588408313597881 3.16156126519193358959 3.16156126519193358959 3.16156126519193358959 6.37780588408313597881 -0.05468335369926827921 6.37780588408313597881 3.16156126519193358959 -0.05468335369926827921 -0.05468335369926827921 3.16156126519193358959 6.37780588408313597881 3.16156126519193358959 3.16156126519193358959 6.37780588408313597881 -0.05468335369926827921 3.16156126519193358959 9.59405050297433881212 9.59405050297433881212 -0.05468335369926827921 -3.27092797259047030067 -6.48717259148167180172 6.37780588408313597881 -3.27092797259047030067 -3.27092797259047030067 6.37780588408313597881 -3.27092797259047030067 -0.05468335369926827921 -0.05468335369926827921 -0.05468335369926827921 -0.05468335369926827921 3.16156126519193358959 3.16156126519193358959 3.16156126519193358959 3.16156126519193358959 3.16156126519193358959 -3.27092797259047030067 -0.05468335369926827921 -0.05468335369926827921 6.37780588408313597881 -0.05468335369926827921 -0.05468335369926827921 -6.48717259148167180172 -6.48717259148167180172 3.16156126519193358959 -0.05468335369926827921 -0.05468335369926827921 -0.05468335369926827921 -3.27092797259047030067 -3.27092797259047030067 -0.05468335369926827921 -6.48717259148167180172 -3.27092797259047030067 -3.27092797259047030067 -6.48717259148167180172 -3.27092797259047030067 -3.27092797259047030067 -3.27092797259047030067 3.16156126519193358959 -3.27092797259047030067 -3.27092797259047030067 -3.27092797259047030067 -3.27092797259047030067 -6.48717259148167180172 3.16156126519193358959 -0.05468335369926827921 -0.05468335369926827921 -9.70341721037287463503 -9.70341721037287463503 -9.70341721037287463503 -6.48717259148167180172 -0.05468335369926827921 -3.27092797259047030067 -3.27092797259047030067 -6.48717259148167180172 -6.48717259148167180172 -6.48717259148167180172 -6.48717259148167180172 3.16156126519193358959 -3.27092797259047030067 -0.05468335369926827921 -3.27092797259047030067 -6.48717259148167180172 -6.48717259148167180172 -9.70341721037287463503 -6.48717259148167180172 -0.05468335369926827921 -0.05468335369926827921 -6.48717259148167180172 -9.70341721037287463503 -6.48717259148167180172 -3.27092797259047030067 -6.48717259148167180172 -3.27092797259047030067 -3.27092797259047030067 -6.48717259148167180172 -9.70341721037287463503 -9.70341721037287463503 -3.27092797259047030067 -3.27092797259047030067 -3.27092797259047030067 -3.27092797259047030067 -6.48717259148167180172 -6.48717259148167180172 -0.05468335369926827921 -3.27092797259047030067 -3.27092797259047030067 -6.48717259148167180172 -9.70341721037287463503 -6.48717259148167180172 -9.70341721037287463503 -6.48717259148167180172 -3.27092797259047030067 -6.48717259148167180172 -3.27092797259047030067 -6.48717259148167180172 -3.27092797259047030067 -6.48717259148167180172 -3.27092797259047030067 -9.70341721037287463503 3.16156126519193358959 -6.48717259148167180172 -0.05468335369926827921 -3.27092797259047030067 -3.27092797259047030067 -9.70341721037287463503 -6.48717259148167180172 -0.05468335369926827921 -6.48717259148167180172 -0.05468335369926827921 -6.48717259148167180172 -9.70341721037287463503 -9.70341721037287463503 -6.48717259148167180172 -0.05468335369926827921 -3.27092797259047030067 -3.27092797259047030067 -3.27092797259047030067 -3.27092797259047030067 -3.27092797259047030067 -6.48717259148167180172 -3.27092797259047030067 -0.05468335369926827921 -0.05468335369926827921 -0.05468335369926827921 -3.27092797259047030067 -6.48717259148167180172 -0.05468335369926827921 6.37780588408313597881 -3.27092797259047030067 -3.27092797259047030067 -0.05468335369926827921 -0.05468335369926827921 -0.05468335369926827921 -0.05468335369926827921 6.37780588408313597881 -3.27092797259047030067 3.16156126519193358959 -3.27092797259047030067 -3.27092797259047030067 -6.48717259148167180172 -0.05468335369926827921 -3.27092797259047030067 -3.27092797259047030067 -3.27092797259047030067 -0.05468335369926827921 -9.70341721037287463503 -6.48717259148167180172 -0.05468335369926827921 3.16156126519193358959 9.59405050297433881212 3.16156126519193358959 -0.05468335369926827921 -0.05468335369926827921 -3.27092797259047030067 -3.27092797259047030067 3.16156126519193358959 -0.05468335369926827921 -0.05468335369926827921 -0.05468335369926827921 -0.05468335369926827921 -0.05468335369926827921 3.16156126519193358959 -0.05468335369926827921 -0.05468335369926827921 3.16156126519193358959 -0.05468335369926827921 -0.05468335369926827921 -6.48717259148167180172 -0.05468335369926827921 6.37780588408313597881 3.16156126519193358959 -0.05468335369926827921 -0.05468335369926827921 -0.05468335369926827921 -6.48717259148167180172 -0.05468335369926827921 3.16156126519193358959 -0.05468335369926827921 3.16156126519193358959 -6.48717259148167180172 -6.48717259148167180172 -6.48717259148167180172 6.37780588408313597881 6.37780588408313597881 6.37780588408313597881 3.16156126519193358959 -3.27092797259047030067 -3.27092797259047030067 9.59405050297433881212 -0.05468335369926827921 -3.27092797259047030067 -0.05468335369926827921 3.16156126519193358959 -0.05468335369926827921 -0.05468335369926827921 6.37780588408313597881 3.16156126519193358959 3.16156126519193358959 3.16156126519193358959 6.37780588408313597881 -6.48717259148167180172 3.16156126519193358959 3.16156126519193358959 9.59405050297433881212 -0.05468335369926827921 -0.05468335369926827921 -3.27092797259047030067 -3.27092797259047030067 -3.27092797259047030067 -0.05468335369926827921 6.37780588408313597881 3.16156126519193358959 -3.27092797259047030067 -3.27092797259047030067 -3.27092797259047030067 3.16156126519193358959 -0.05468335369926827921 -0.05468335369926827921 -0.05468335369926827921 -3.27092797259047030067 -3.27092797259047030067 -6.48717259148167180172 -3.27092797259047030067 -3.27092797259047030067 -3.27092797259047030067 -6.48717259148167180172 -6.48717259148167180172 -3.27092797259047030067 -9.70341721037287463503 -3.27092797259047030067 -6.48717259148167180172 -0.05468335369926827921 -6.48717259148167180172 -0.05468335369926827921 -9.70341721037287463503 -3.27092797259047030067 -6.48717259148167180172 -6.48717259148167180172 -3.27092797259047030067 -3.27092797259047030067 -16.13590644815527852529 -6.48717259148167180172 -3.27092797259047030067 -6.48717259148167180172 -0.05468335369926827921 3.16156126519193358959 -6.48717259148167180172 -6.48717259148167180172 -0.05468335369926827921 -0.05468335369926827921 -6.48717259148167180172 -0.05468335369926827921 -0.05468335369926827921 -6.48717259148167180172 -6.48717259148167180172 -0.05468335369926827921 -0.05468335369926827921 -6.48717259148167180172 -0.05468335369926827921 3.16156126519193358959 -3.27092797259047030067 -9.70341721037287463503 -6.48717259148167180172 -3.27092797259047030067 3.16156126519193358959 -3.27092797259047030067 -3.27092797259047030067 -3.27092797259047030067 -3.27092797259047030067 -3.27092797259047030067 3.16156126519193358959 -3.27092797259047030067 -3.27092797259047030067 -6.48717259148167180172 -3.27092797259047030067 -0.05468335369926827921 3.16156126519193358959 -3.27092797259047030067 -0.05468335369926827921 -0.05468335369926827921 -3.27092797259047030067 -0.05468335369926827921 3.16156126519193358959 6.37780588408313597881 3.16156126519193358959 -3.27092797259047030067 3.16156126519193358959 -3.27092797259047030067 -6.48717259148167180172 -0.05468335369926827921 3.16156126519193358959 3.16156126519193358959 -3.27092797259047030067 -3.27092797259047030067 -3.27092797259047030067 -3.27092797259047030067 -3.27092797259047030067 3.16156126519193358959 -6.48717259148167180172 -0.05468335369926827921 -3.27092797259047030067 -0.05468335369926827921 -3.27092797259047030067 -3.27092797259047030067 -0.05468335369926827921 -3.27092797259047030067 -0.05468335369926827921 -6.48717259148167180172 -9.70341721037287463503 -6.48717259148167180172 -0.05468335369926827921 3.16156126519193358959 6.37780588408313597881 -0.05468335369926827921 -3.27092797259047030067 -0.05468335369926827921 -6.48717259148167180172 -6.48717259148167180172 -0.05468335369926827921 -3.27092797259047030067 -3.27092797259047030067 -0.05468335369926827921 -6.48717259148167180172 -6.48717259148167180172 -3.27092797259047030067 -9.70341721037287463503 -0.05468335369926827921 -6.48717259148167180172 -9.70341721037287463503 -0.05468335369926827921 -9.70341721037287463503 -9.70341721037287463503 -0.05468335369926827921 -9.70341721037287463503 -0.05468335369926827921 -9.70341721037287463503 -6.48717259148167180172 -0.05468335369926827921 -3.27092797259047030067 -3.27092797259047030067 -0.05468335369926827921 -0.05468335369926827921 -3.27092797259047030067 -6.48717259148167180172 -3.27092797259047030067 3.16156126519193358959 3.16156126519193358959 3.16156126519193358959 -6.48717259148167180172 -6.48717259148167180172 -0.05468335369926827921 3.16156126519193358959 6.37780588408313597881 -0.05468335369926827921 3.16156126519193358959 3.16156126519193358959 9.59405050297433881212 -0.05468335369926827921 6.37780588408313597881 3.16156126519193358959 9.59405050297433881212 6.37780588408313597881 6.37780588408313597881 -3.27092797259047030067 3.16156126519193358959 6.37780588408313597881 3.16156126519193358959 6.37780588408313597881 -3.27092797259047030067 3.16156126519193358959 6.37780588408313597881 -0.05468335369926827921 6.37780588408313597881 6.37780588408313597881 3.16156126519193358959 6.37780588408313597881 3.16156126519193358959 12.81029512186553986908 6.37780588408313597881 3.16156126519193358959 3.16156126519193358959 -0.05468335369926827921 -3.27092797259047030067 3.16156126519193358959 9.59405050297433881212 12.81029512186553986908 6.37780588408313597881 3.16156126519193358959 3.16156126519193358959 3.16156126519193358959 6.37780588408313597881 16.02653974075674270239 3.16156126519193358959 6.37780588408313597881 6.37780588408313597881 3.16156126519193358959 3.16156126519193358959 9.59405050297433881212 3.16156126519193358959 9.59405050297433881212 9.59405050297433881212 3.16156126519193358959 3.16156126519193358959 3.16156126519193358959 9.59405050297433881212 6.37780588408313597881 6.37780588408313597881 9.59405050297433881212 3.16156126519193358959 3.16156126519193358959 9.59405050297433881212 6.37780588408313597881 3.16156126519193358959 3.16156126519193358959 3.16156126519193358959 9.59405050297433881212 6.37780588408313597881 3.16156126519193358959 3.16156126519193358959 -0.05468335369926827921 6.37780588408313597881 3.16156126519193358959 -3.27092797259047030067 -0.05468335369926827921 3.16156126519193358959 6.37780588408313597881 6.37780588408313597881 -0.05468335369926827921 -0.05468335369926827921 6.37780588408313597881 -0.05468335369926827921 3.16156126519193358959 6.37780588408313597881 -6.48717259148167180172 3.16156126519193358959 -3.27092797259047030067 -0.05468335369926827921 3.16156126519193358959 -0.05468335369926827921 3.16156126519193358959 3.16156126519193358959 3.16156126519193358959 -3.27092797259047030067 6.37780588408313597881 6.37780588408313597881 6.37780588408313597881 3.16156126519193358959 6.37780588408313597881 -0.05468335369926827921 -0.05468335369926827921 3.16156126519193358959 6.37780588408313597881 3.16156126519193358959 3.16156126519193358959 -0.05468335369926827921 -0.05468335369926827921 3.16156126519193358959 -0.05468335369926827921 6.37780588408313597881 6.37780588408313597881 3.16156126519193358959 3.16156126519193358959 6.37780588408313597881 -3.27092797259047030067 9.59405050297433881212 -0.05468335369926827921 9.59405050297433881212 3.16156126519193358959 -3.27092797259047030067 3.16156126519193358959 6.37780588408313597881 -0.05468335369926827921 3.16156126519193358959 6.37780588408313597881 -0.05468335369926827921 -0.05468335369926827921 -3.27092797259047030067 3.16156126519193358959 3.16156126519193358959 -0.05468335369926827921 3.16156126519193358959 -0.05468335369926827921 -0.05468335369926827921 6.37780588408313597881 -0.05468335369926827921 -3.27092797259047030067 -0.05468335369926827921 6.37780588408313597881 3.16156126519193358959 -0.05468335369926827921 -0.05468335369926827921 -0.05468335369926827921 -6.48717259148167180172 -3.27092797259047030067 -3.27092797259047030067 -3.27092797259047030067 -3.27092797259047030067 -3.27092797259047030067 3.16156126519193358959 3.16156126519193358959 -0.05468335369926827921 -6.48717259148167180172 -0.05468335369926827921 -3.27092797259047030067 3.16156126519193358959 3.16156126519193358959 3.16156126519193358959 3.16156126519193358959 3.16156126519193358959 3.16156126519193358959 -3.27092797259047030067 -3.27092797259047030067 3.16156126519193358959 3.16156126519193358959 3.16156126519193358959 3.16156126519193358959 -3.27092797259047030067 -6.48717259148167180172 -3.27092797259047030067 3.16156126519193358959 3.16156126519193358959 3.16156126519193358959 3.16156126519193358959 3.16156126519193358959 -0.05468335369926827921 -3.27092797259047030067 -0.05468335369926827921 6.37780588408313597881 6.37780588408313597881 3.16156126519193358959 -0.05468335369926827921 -3.27092797259047030067 -0.05468335369926827921 -0.05468335369926827921 -0.05468335369926827921 -3.27092797259047030067 3.16156126519193358959 -0.05468335369926827921 6.37780588408313597881 -6.48717259148167180172 -0.05468335369926827921 -3.27092797259047030067 -0.05468335369926827921 -0.05468335369926827921 -0.05468335369926827921 -0.05468335369926827921 9.59405050297433881212 6.37780588408313597881 6.37780588408313597881 6.37780588408313597881 3.16156126519193358959 -0.05468335369926827921 9.59405050297433881212 12.81029512186553986908 9.59405050297433881212 6.37780588408313597881 -3.27092797259047030067 -0.05468335369926827921 3.16156126519193358959 3.16156126519193358959 -0.05468335369926827921 -0.05468335369926827921 -0.05468335369926827921 -0.05468335369926827921 -3.27092797259047030067 9.59405050297433881212 6.37780588408313597881 6.37780588408313597881 6.37780588408313597881 9.59405050297433881212 3.16156126519193358959 3.16156126519193358959 -3.27092797259047030067 -0.05468335369926827921 3.16156126519193358959 3.16156126519193358959 3.16156126519193358959 3.16156126519193358959 3.16156126519193358959 3.16156126519193358959 -0.05468335369926827921 3.16156126519193358959 9.59405050297433881212 -0.05468335369926827921 -0.05468335369926827921 6.37780588408313597881 6.37780588408313597881 -0.05468335369926827921 -0.05468335369926827921 3.16156126519193358959 3.16156126519193358959 3.16156126519193358959 6.37780588408313597881 6.37780588408313597881 -0.05468335369926827921 -6.48717259148167180172 -0.05468335369926827921 -0.05468335369926827921 9.59405050297433881212 -0.05468335369926827921 -0.05468335369926827921 6.37780588408313597881 -6.48717259148167180172 3.16156126519193358959 3.16156126519193358959 -3.27092797259047030067 3.16156126519193358959 6.37780588408313597881 3.16156126519193358959 -0.05468335369926827921 -6.48717259148167180172 -3.27092797259047030067 -3.27092797259047030067 3.16156126519193358959 -0.05468335369926827921 3.16156126519193358959 -0.05468335369926827921 3.16156126519193358959 -0.05468335369926827921 -0.05468335369926827921 -3.27092797259047030067 -0.05468335369926827921 -3.27092797259047030067 -3.27092797259047030067 -0.05468335369926827921 -0.05468335369926827921 -0.05468335369926827921 -3.27092797259047030067 -3.27092797259047030067 -6.48717259148167180172 -3.27092797259047030067 -3.27092797259047030067 -0.05468335369926827921 3.16156126519193358959 -3.27092797259047030067 -6.48717259148167180172 -6.48717259148167180172 -6.48717259148167180172 -6.48717259148167180172 -0.05468335369926827921 6.37780588408313597881 -3.27092797259047030067 -6.48717259148167180172 -3.27092797259047030067 -6.48717259148167180172 -3.27092797259047030067 -3.27092797259047030067 -3.27092797259047030067 -0.05468335369926827921 -3.27092797259047030067 -3.27092797259047030067 -9.70341721037287463503 -9.70341721037287463503 -3.27092797259047030067 3.16156126519193358959 3.16156126519193358959 3.16156126519193358959 3.16156126519193358959 -0.05468335369926827921 3.16156126519193358959 -6.48717259148167180172 3.16156126519193358959 3.16156126519193358959 -0.05468335369926827921 3.16156126519193358959 -3.27092797259047030067 -0.05468335369926827921 6.37780588408313597881 -3.27092797259047030067 3.16156126519193358959 3.16156126519193358959 3.16156126519193358959 -0.05468335369926827921 -0.05468335369926827921 -6.48717259148167180172 3.16156126519193358959 -0.05468335369926827921 -0.05468335369926827921 -3.27092797259047030067 -3.27092797259047030067 -0.05468335369926827921 6.37780588408313597881 -3.27092797259047030067 -0.05468335369926827921 3.16156126519193358959 3.16156126519193358959 3.16156126519193358959 -3.27092797259047030067 3.16156126519193358959 -3.27092797259047030067 6.37780588408313597881 -3.27092797259047030067 6.37780588408313597881 -0.05468335369926827921 -0.05468335369926827921 3.16156126519193358959 -0.05468335369926827921 -0.05468335369926827921 -0.05468335369926827921 -0.05468335369926827921 -0.05468335369926827921 -6.48717259148167180172 -0.05468335369926827921 -0.05468335369926827921 3.16156126519193358959 -0.05468335369926827921 -0.05468335369926827921 3.16156126519193358959 -3.27092797259047030067 -6.48717259148167180172 -0.05468335369926827921 -0.05468335369926827921 3.16156126519193358959 3.16156126519193358959 -0.05468335369926827921 -0.05468335369926827921 3.16156126519193358959 -3.27092797259047030067 -0.05468335369926827921 6.37780588408313597881 -0.05468335369926827921 3.16156126519193358959 -0.05468335369926827921 3.16156126519193358959 3.16156126519193358959 3.16156126519193358959 -0.05468335369926827921 3.16156126519193358959 6.37780588408313597881 -0.05468335369926827921 -0.05468335369926827921 6.37780588408313597881 3.16156126519193358959 -0.05468335369926827921 3.16156126519193358959 3.16156126519193358959 3.16156126519193358959 6.37780588408313597881 3.16156126519193358959 3.16156126519193358959 -0.05468335369926827921 6.37780588408313597881 9.59405050297433881212 -0.05468335369926827921 -3.27092797259047030067 -0.05468335369926827921 -0.05468335369926827921 3.16156126519193358959 6.37780588408313597881 -0.05468335369926827921 -0.05468335369926827921 -3.27092797259047030067 -0.05468335369926827921 -0.05468335369926827921 -0.05468335369926827921 -0.05468335369926827921 -0.05468335369926827921 -0.05468335369926827921 3.16156126519193358959 3.16156126519193358959 3.16156126519193358959 6.37780588408313597881 6.37780588408313597881 -0.05468335369926827921 -6.48717259148167180172 3.16156126519193358959 3.16156126519193358959 -0.05468335369926827921 6.37780588408313597881 -6.48717259148167180172 6.37780588408313597881 -6.48717259148167180172 3.16156126519193358959 -0.05468335369926827921 -0.05468335369926827921 9.59405050297433881212 3.16156126519193358959 -0.05468335369926827921 -0.05468335369926827921 6.37780588408313597881 -0.05468335369926827921 -3.27092797259047030067 3.16156126519193358959 -3.27092797259047030067 -3.27092797259047030067 -0.05468335369926827921 -0.05468335369926827921 3.16156126519193358959 3.16156126519193358959 -3.27092797259047030067 3.16156126519193358959 6.37780588408313597881 6.37780588408313597881 6.37780588408313597881 3.16156126519193358959 6.37780588408313597881 3.16156126519193358959 6.37780588408313597881 3.16156126519193358959 6.37780588408313597881 6.37780588408313597881 6.37780588408313597881 3.16156126519193358959 3.16156126519193358959 -0.05468335369926827921 -0.05468335369926827921 6.37780588408313597881 3.16156126519193358959 6.37780588408313597881 -0.05468335369926827921 -0.05468335369926827921 -3.27092797259047030067 -0.05468335369926827921 -0.05468335369926827921 3.16156126519193358959 -0.05468335369926827921 3.16156126519193358959 -3.27092797259047030067 3.16156126519193358959 -3.27092797259047030067 -0.05468335369926827921 3.16156126519193358959 -3.27092797259047030067 -0.05468335369926827921 -6.48717259148167180172 -3.27092797259047030067 -3.27092797259047030067 -6.48717259148167180172 -3.27092797259047030067 -6.48717259148167180172 -0.05468335369926827921 -6.48717259148167180172 -3.27092797259047030067 -0.05468335369926827921 -3.27092797259047030067 -9.70341721037287463503 -6.48717259148167180172 -12.91966182926407569198 -3.27092797259047030067 -6.48717259148167180172 -3.27092797259047030067 -6.48717259148167180172 -3.27092797259047030067 -0.05468335369926827921 -3.27092797259047030067 -12.91966182926407569198 -3.27092797259047030067 -0.05468335369926827921 -3.27092797259047030067 -6.48717259148167180172 -6.48717259148167180172 -12.91966182926407569198 -9.70341721037287463503 -6.48717259148167180172 -9.70341721037287463503 -3.27092797259047030067 -6.48717259148167180172 -6.48717259148167180172 -9.70341721037287463503 -6.48717259148167180172 -9.70341721037287463503 -0.05468335369926827921 -6.48717259148167180172 -0.05468335369926827921 -9.70341721037287463503 -9.70341721037287463503 -6.48717259148167180172 -9.70341721037287463503 -3.27092797259047030067 -6.48717259148167180172 -6.48717259148167180172 -0.05468335369926827921 -3.27092797259047030067 -12.91966182926407569198 -3.27092797259047030067 -6.48717259148167180172 3.16156126519193358959 -6.48717259148167180172 -9.70341721037287463503 -6.48717259148167180172 -3.27092797259047030067 -0.05468335369926827921 -6.48717259148167180172 -3.27092797259047030067 -0.05468335369926827921 -6.48717259148167180172 3.16156126519193358959 -3.27092797259047030067 -3.27092797259047030067 -3.27092797259047030067 -3.27092797259047030067 -6.48717259148167180172 -6.48717259148167180172 3.16156126519193358959 -0.05468335369926827921 -0.05468335369926827921 3.16156126519193358959 -0.05468335369926827921 -3.27092797259047030067 -6.48717259148167180172 3.16156126519193358959 6.37780588408313597881 -3.27092797259047030067 6.37780588408313597881 3.16156126519193358959 -3.27092797259047030067 3.16156126519193358959 6.37780588408313597881 3.16156126519193358959 -0.05468335369926827921 -6.48717259148167180172 -3.27092797259047030067 -3.27092797259047030067 -0.05468335369926827921 -0.05468335369926827921 -0.05468335369926827921 3.16156126519193358959 -0.05468335369926827921 -0.05468335369926827921 3.16156126519193358959 6.37780588408313597881 6.37780588408313597881 -0.05468335369926827921 -3.27092797259047030067 3.16156126519193358959 3.16156126519193358959 -0.05468335369926827921 3.16156126519193358959 -0.05468335369926827921 -6.48717259148167180172 3.16156126519193358959 -3.27092797259047030067 -0.05468335369926827921 -0.05468335369926827921 9.59405050297433881212 -3.27092797259047030067 6.37780588408313597881 3.16156126519193358959 -0.05468335369926827921 -0.05468335369926827921 -0.05468335369926827921 3.16156126519193358959 6.37780588408313597881 6.37780588408313597881 -0.05468335369926827921 3.16156126519193358959 -0.05468335369926827921 -0.05468335369926827921 3.16156126519193358959 3.16156126519193358959 3.16156126519193358959 -0.05468335369926827921 -6.48717259148167180172 3.16156126519193358959 -0.05468335369926827921 3.16156126519193358959 6.37780588408313597881 -3.27092797259047030067 -0.05468335369926827921 -9.70341721037287463503 -3.27092797259047030067 -0.05468335369926827921 -0.05468335369926827921 3.16156126519193358959 -6.48717259148167180172 -0.05468335369926827921 -9.70341721037287463503 3.16156126519193358959 -0.05468335369926827921 -3.27092797259047030067 -3.27092797259047030067 -9.70341721037287463503 -3.27092797259047030067 -3.27092797259047030067 -3.27092797259047030067 -3.27092797259047030067 -3.27092797259047030067 -3.27092797259047030067 -3.27092797259047030067 -3.27092797259047030067 -6.48717259148167180172 -6.48717259148167180172 -3.27092797259047030067 -0.05468335369926827921 -6.48717259148167180172 -3.27092797259047030067 -3.27092797259047030067 -3.27092797259047030067 -0.05468335369926827921 -3.27092797259047030067 3.16156126519193358959 -3.27092797259047030067 3.16156126519193358959 -3.27092797259047030067 -0.05468335369926827921 -0.05468335369926827921 -0.05468335369926827921 -9.70341721037287463503 -0.05468335369926827921 -0.05468335369926827921 -6.48717259148167180172 -0.05468335369926827921 3.16156126519193358959 3.16156126519193358959 -3.27092797259047030067 -6.48717259148167180172 -0.05468335369926827921 3.16156126519193358959 3.16156126519193358959 6.37780588408313597881 3.16156126519193358959 3.16156126519193358959 -3.27092797259047030067 6.37780588408313597881 3.16156126519193358959 -0.05468335369926827921 3.16156126519193358959 -0.05468335369926827921 3.16156126519193358959 -0.05468335369926827921 3.16156126519193358959 3.16156126519193358959 6.37780588408313597881 9.59405050297433881212 6.37780588408313597881 6.37780588408313597881 -3.27092797259047030067 6.37780588408313597881 3.16156126519193358959 6.37780588408313597881 6.37780588408313597881 9.59405050297433881212 16.02653974075674270239 -0.05468335369926827921 6.37780588408313597881 3.16156126519193358959 12.81029512186553986908 3.16156126519193358959 9.59405050297433881212 9.59405050297433881212 3.16156126519193358959 9.59405050297433881212 9.59405050297433881212 6.37780588408313597881 9.59405050297433881212 9.59405050297433881212 6.37780588408313597881 3.16156126519193358959 3.16156126519193358959 12.81029512186553986908 6.37780588408313597881 3.16156126519193358959 6.37780588408313597881 3.16156126519193358959 3.16156126519193358959 3.16156126519193358959 6.37780588408313597881 3.16156126519193358959 -0.05468335369926827921 -3.27092797259047030067 3.16156126519193358959 -0.05468335369926827921 6.37780588408313597881 3.16156126519193358959 -0.05468335369926827921 -0.05468335369926827921 -0.05468335369926827921 6.37780588408313597881 6.37780588408313597881 6.37780588408313597881 3.16156126519193358959 3.16156126519193358959 3.16156126519193358959 6.37780588408313597881 3.16156126519193358959 9.59405050297433881212 3.16156126519193358959 6.37780588408313597881 -0.05468335369926827921 -0.05468335369926827921 6.37780588408313597881 9.59405050297433881212 6.37780588408313597881 6.37780588408313597881 -0.05468335369926827921 6.37780588408313597881 6.37780588408313597881 3.16156126519193358959 3.16156126519193358959 3.16156126519193358959 -0.05468335369926827921 -0.05468335369926827921 6.37780588408313597881 -0.05468335369926827921 3.16156126519193358959 3.16156126519193358959 -6.48717259148167180172 -3.27092797259047030067 -0.05468335369926827921 3.16156126519193358959 6.37780588408313597881 -6.48717259148167180172 -0.05468335369926827921 -0.05468335369926827921 -6.48717259148167180172 -0.05468335369926827921 3.16156126519193358959 -0.05468335369926827921 -3.27092797259047030067 -6.48717259148167180172 -0.05468335369926827921 -9.70341721037287463503 -3.27092797259047030067 -3.27092797259047030067 -3.27092797259047030067 -3.27092797259047030067 -0.05468335369926827921 -9.70341721037287463503 -3.27092797259047030067 -9.70341721037287463503 3.16156126519193358959 -0.05468335369926827921 -3.27092797259047030067 -3.27092797259047030067 -0.05468335369926827921 -0.05468335369926827921 -6.48717259148167180172 -3.27092797259047030067 -3.27092797259047030067 -3.27092797259047030067 3.16156126519193358959 -0.05468335369926827921 3.16156126519193358959 -0.05468335369926827921 -0.05468335369926827921 -0.05468335369926827921 3.16156126519193358959 -3.27092797259047030067 -0.05468335369926827921 -0.05468335369926827921 -3.27092797259047030067 -0.05468335369926827921 -6.48717259148167180172 -6.48717259148167180172 -3.27092797259047030067 -0.05468335369926827921 -0.05468335369926827921 3.16156126519193358959 -0.05468335369926827921 -0.05468335369926827921 3.16156126519193358959 -3.27092797259047030067 -6.48717259148167180172 -0.05468335369926827921 -6.48717259148167180172 3.16156126519193358959 -0.05468335369926827921 -3.27092797259047030067 3.16156126519193358959 3.16156126519193358959 -3.27092797259047030067 -3.27092797259047030067 -3.27092797259047030067 3.16156126519193358959 6.37780588408313597881 3.16156126519193358959 -3.27092797259047030067 -3.27092797259047030067 -0.05468335369926827921 -3.27092797259047030067 6.37780588408313597881 6.37780588408313597881 6.37780588408313597881 -0.05468335369926827921 -3.27092797259047030067 -0.05468335369926827921 -6.48717259148167180172 3.16156126519193358959 -0.05468335369926827921 -0.05468335369926827921 -3.27092797259047030067 -3.27092797259047030067 3.16156126519193358959 6.37780588408313597881 -0.05468335369926827921 -0.05468335369926827921 -6.48717259148167180172 -6.48717259148167180172 3.16156126519193358959 9.59405050297433881212 -0.05468335369926827921 -0.05468335369926827921 -3.27092797259047030067 -6.48717259148167180172 -3.27092797259047030067 -3.27092797259047030067 -0.05468335369926827921 -0.05468335369926827921 -0.05468335369926827921 -0.05468335369926827921 -3.27092797259047030067 -6.48717259148167180172 -0.05468335369926827921 -3.27092797259047030067 6.37780588408313597881 3.16156126519193358959 -3.27092797259047030067 -9.70341721037287463503 -6.48717259148167180172 -3.27092797259047030067 -3.27092797259047030067 -3.27092797259047030067 3.16156126519193358959 -6.48717259148167180172 -9.70341721037287463503 -12.91966182926407569198 -6.48717259148167180172 -3.27092797259047030067 -0.05468335369926827921 -0.05468335369926827921 -9.70341721037287463503 -16.13590644815527852529 -9.70341721037287463503 -9.70341721037287463503 -9.70341721037287463503 -3.27092797259047030067 -6.48717259148167180172 -9.70341721037287463503 -6.48717259148167180172 -6.48717259148167180172 -6.48717259148167180172 -6.48717259148167180172 -6.48717259148167180172 -6.48717259148167180172 -12.91966182926407569198 -9.70341721037287463503 -12.91966182926407569198 -9.70341721037287463503 -6.48717259148167180172 -12.91966182926407569198 -6.48717259148167180172 -3.27092797259047030067 -9.70341721037287463503 -3.27092797259047030067 -6.48717259148167180172 -9.70341721037287463503 -0.05468335369926827921 -9.70341721037287463503 -6.48717259148167180172 -6.48717259148167180172 -9.70341721037287463503 -9.70341721037287463503 -9.70341721037287463503 -9.70341721037287463503 -6.48717259148167180172 -3.27092797259047030067 -6.48717259148167180172 -9.70341721037287463503 -9.70341721037287463503 -6.48717259148167180172 -6.48717259148167180172 -6.48717259148167180172 -3.27092797259047030067 -6.48717259148167180172 -3.27092797259047030067 -9.70341721037287463503 -9.70341721037287463503 -9.70341721037287463503 -3.27092797259047030067 -6.48717259148167180172 -3.27092797259047030067 -0.05468335369926827921 -9.70341721037287463503 -6.48717259148167180172 -6.48717259148167180172 -0.05468335369926827921 -3.27092797259047030067 -3.27092797259047030067 -0.05468335369926827921 -3.27092797259047030067 -3.27092797259047030067 -6.48717259148167180172 -3.27092797259047030067 3.16156126519193358959 -0.05468335369926827921 -3.27092797259047030067 -0.05468335369926827921 -0.05468335369926827921 3.16156126519193358959 3.16156126519193358959 -3.27092797259047030067 3.16156126519193358959 6.37780588408313597881 3.16156126519193358959 -0.05468335369926827921 3.16156126519193358959 9.59405050297433881212 -0.05468335369926827921 6.37780588408313597881 -0.05468335369926827921 -6.48717259148167180172 3.16156126519193358959 3.16156126519193358959 3.16156126519193358959 -0.05468335369926827921 -3.27092797259047030067 -0.05468335369926827921 3.16156126519193358959 6.37780588408313597881 3.16156126519193358959 -0.05468335369926827921 -0.05468335369926827921 3.16156126519193358959 -0.05468335369926827921 6.37780588408313597881 9.59405050297433881212 9.59405050297433881212 -0.05468335369926827921 -0.05468335369926827921 3.16156126519193358959 -3.27092797259047030067 -0.05468335369926827921 3.16156126519193358959 -0.05468335369926827921 6.37780588408313597881 3.16156126519193358959 -0.05468335369926827921 -0.05468335369926827921 6.37780588408313597881 6.37780588408313597881 6.37780588408313597881 9.59405050297433881212 -6.48717259148167180172 3.16156126519193358959 -0.05468335369926827921 3.16156126519193358959 -0.05468335369926827921 -0.05468335369926827921 -0.05468335369926827921 3.16156126519193358959 -9.70341721037287463503 -3.27092797259047030067 -6.48717259148167180172 -3.27092797259047030067 -3.27092797259047030067 -0.05468335369926827921 -9.70341721037287463503 -6.48717259148167180172 -3.27092797259047030067 -3.27092797259047030067 3.16156126519193358959 -0.05468335369926827921 -3.27092797259047030067 -9.70341721037287463503 -0.05468335369926827921 -0.05468335369926827921 3.16156126519193358959 -3.27092797259047030067 -6.48717259148167180172 -6.48717259148167180172 -3.27092797259047030067 -3.27092797259047030067 -9.70341721037287463503 -0.05468335369926827921 -3.27092797259047030067 -0.05468335369926827921 -3.27092797259047030067 -6.48717259148167180172 -9.70341721037287463503 -9.70341721037287463503 -0.05468335369926827921 -0.05468335369926827921 -0.05468335369926827921 -6.48717259148167180172 -3.27092797259047030067 -6.48717259148167180172 -9.70341721037287463503 -12.91966182926407569198 -6.48717259148167180172 -0.05468335369926827921 -3.27092797259047030067 -3.27092797259047030067 -6.48717259148167180172 -0.05468335369926827921 -0.05468335369926827921 -3.27092797259047030067 -0.05468335369926827921 -3.27092797259047030067 -3.27092797259047030067 -6.48717259148167180172 -3.27092797259047030067 -0.05468335369926827921 -3.27092797259047030067 -6.48717259148167180172 -3.27092797259047030067 3.16156126519193358959 -6.48717259148167180172 -3.27092797259047030067 -3.27092797259047030067 -3.27092797259047030067 -6.48717259148167180172 -6.48717259148167180172 -3.27092797259047030067 9.59405050297433881212 -0.05468335369926827921 3.16156126519193358959 3.16156126519193358959 -0.05468335369926827921 -3.27092797259047030067 -3.27092797259047030067 -0.05468335369926827921 3.16156126519193358959 9.59405050297433881212 -3.27092797259047030067 -0.05468335369926827921 -0.05468335369926827921 3.16156126519193358959 -6.48717259148167180172 3.16156126519193358959 9.59405050297433881212 -0.05468335369926827921 3.16156126519193358959 6.37780588408313597881 -0.05468335369926827921 9.59405050297433881212 12.81029512186553986908 3.16156126519193358959 6.37780588408313597881 6.37780588408313597881 -0.05468335369926827921 9.59405050297433881212 9.59405050297433881212 3.16156126519193358959 6.37780588408313597881 3.16156126519193358959 9.59405050297433881212 12.81029512186553986908 6.37780588408313597881 3.16156126519193358959 9.59405050297433881212 9.59405050297433881212 9.59405050297433881212 9.59405050297433881212 9.59405050297433881212 12.81029512186553986908 6.37780588408313597881 6.37780588408313597881 9.59405050297433881212 3.16156126519193358959 3.16156126519193358959 12.81029512186553986908 12.81029512186553986908 12.81029512186553986908 12.81029512186553986908 9.59405050297433881212 3.16156126519193358959 6.37780588408313597881 12.81029512186553986908 16.02653974075674270239 12.81029512186553986908 9.59405050297433881212 9.59405050297433881212 9.59405050297433881212 6.37780588408313597881 12.81029512186553986908 9.59405050297433881212 9.59405050297433881212 12.81029512186553986908 12.81029512186553986908 12.81029512186553986908 12.81029512186553986908 9.59405050297433881212 16.02653974075674270239 12.81029512186553986908 19.24278435964794553570 9.59405050297433881212 6.37780588408313597881 12.81029512186553986908 12.81029512186553986908 9.59405050297433881212 16.02653974075674270239 6.37780588408313597881 6.37780588408313597881 12.81029512186553986908 9.59405050297433881212 9.59405050297433881212 9.59405050297433881212 12.81029512186553986908 16.02653974075674270239 9.59405050297433881212 12.81029512186553986908 9.59405050297433881212 12.81029512186553986908 6.37780588408313597881 3.16156126519193358959 6.37780588408313597881 3.16156126519193358959 16.02653974075674270239 12.81029512186553986908 9.59405050297433881212 9.59405050297433881212 9.59405050297433881212 6.37780588408313597881 9.59405050297433881212 12.81029512186553986908 9.59405050297433881212 6.37780588408313597881 9.59405050297433881212 6.37780588408313597881 9.59405050297433881212 6.37780588408313597881 6.37780588408313597881 3.16156126519193358959 9.59405050297433881212 3.16156126519193358959 3.16156126519193358959 12.81029512186553986908 -0.05468335369926827921 12.81029512186553986908 3.16156126519193358959 9.59405050297433881212 12.81029512186553986908 9.59405050297433881212 6.37780588408313597881 6.37780588408313597881 6.37780588408313597881 -0.05468335369926827921 3.16156126519193358959 3.16156126519193358959 12.81029512186553986908 3.16156126519193358959 6.37780588408313597881 3.16156126519193358959 9.59405050297433881212 9.59405050297433881212 12.81029512186553986908 9.59405050297433881212 9.59405050297433881212 3.16156126519193358959 9.59405050297433881212 6.37780588408313597881 9.59405050297433881212 6.37780588408313597881 3.16156126519193358959 6.37780588408313597881 6.37780588408313597881 9.59405050297433881212 6.37780588408313597881 3.16156126519193358959 6.37780588408313597881 -0.05468335369926827921 6.37780588408313597881 6.37780588408313597881 3.16156126519193358959 3.16156126519193358959 3.16156126519193358959 6.37780588408313597881 9.59405050297433881212 9.59405050297433881212 3.16156126519193358959 6.37780588408313597881 9.59405050297433881212 3.16156126519193358959 6.37780588408313597881 -0.05468335369926827921 6.37780588408313597881 3.16156126519193358959 3.16156126519193358959 3.16156126519193358959 -0.05468335369926827921 3.16156126519193358959 9.59405050297433881212 6.37780588408313597881 -0.05468335369926827921 6.37780588408313597881 -3.27092797259047030067 3.16156126519193358959 6.37780588408313597881 3.16156126519193358959 3.16156126519193358959 -3.27092797259047030067 -0.05468335369926827921 6.37780588408313597881 -3.27092797259047030067 3.16156126519193358959 6.37780588408313597881 3.16156126519193358959 -0.05468335369926827921 -0.05468335369926827921 3.16156126519193358959 -3.27092797259047030067 -6.48717259148167180172 -0.05468335369926827921 -0.05468335369926827921 -3.27092797259047030067 -3.27092797259047030067 -3.27092797259047030067 -3.27092797259047030067 -0.05468335369926827921 -3.27092797259047030067 -3.27092797259047030067 -6.48717259148167180172 -9.70341721037287463503 -3.27092797259047030067 -9.70341721037287463503 -6.48717259148167180172 -0.05468335369926827921 -0.05468335369926827921 6.37780588408313597881 -3.27092797259047030067 -6.48717259148167180172 -6.48717259148167180172 -0.05468335369926827921 -0.05468335369926827921 -0.05468335369926827921 -6.48717259148167180172 -6.48717259148167180172 -6.48717259148167180172 -0.05468335369926827921 -9.70341721037287463503 -3.27092797259047030067 -6.48717259148167180172 -0.05468335369926827921 -3.27092797259047030067 -6.48717259148167180172 -6.48717259148167180172 -6.48717259148167180172 -0.05468335369926827921 -3.27092797259047030067 -3.27092797259047030067 -0.05468335369926827921 -9.70341721037287463503 -9.70341721037287463503 -3.27092797259047030067 -6.48717259148167180172 3.16156126519193358959 -0.05468335369926827921 -3.27092797259047030067 -6.48717259148167180172 -3.27092797259047030067 -6.48717259148167180172 -6.48717259148167180172 -3.27092797259047030067 -3.27092797259047030067 -3.27092797259047030067 -0.05468335369926827921 -3.27092797259047030067 -3.27092797259047030067 -3.27092797259047030067 -6.48717259148167180172 -0.05468335369926827921 -0.05468335369926827921 3.16156126519193358959 -6.48717259148167180172 -9.70341721037287463503 -9.70341721037287463503 -3.27092797259047030067 -3.27092797259047030067 -0.05468335369926827921 -3.27092797259047030067 -3.27092797259047030067 -3.27092797259047030067 3.16156126519193358959 -6.48717259148167180172 3.16156126519193358959 3.16156126519193358959 3.16156126519193358959 -0.05468335369926827921 3.16156126519193358959 -6.48717259148167180172 -6.48717259148167180172 -0.05468335369926827921 3.16156126519193358959 3.16156126519193358959 3.16156126519193358959 -0.05468335369926827921 -3.27092797259047030067 -6.48717259148167180172 -3.27092797259047030067 3.16156126519193358959 3.16156126519193358959 -0.05468335369926827921 3.16156126519193358959 -3.27092797259047030067 -3.27092797259047030067 -6.48717259148167180172 3.16156126519193358959 -3.27092797259047030067 3.16156126519193358959 -3.27092797259047030067 -3.27092797259047030067 -6.48717259148167180172 -9.70341721037287463503 -0.05468335369926827921 3.16156126519193358959 3.16156126519193358959 -0.05468335369926827921 -0.05468335369926827921 -3.27092797259047030067 -3.27092797259047030067 -3.27092797259047030067 -0.05468335369926827921 -3.27092797259047030067 -3.27092797259047030067 -3.27092797259047030067 -0.05468335369926827921 -3.27092797259047030067 -6.48717259148167180172 -0.05468335369926827921 -3.27092797259047030067 -0.05468335369926827921 -6.48717259148167180172 -0.05468335369926827921 -3.27092797259047030067 -9.70341721037287463503 -6.48717259148167180172 3.16156126519193358959 -0.05468335369926827921 3.16156126519193358959 -0.05468335369926827921 -3.27092797259047030067 3.16156126519193358959 -3.27092797259047030067 -0.05468335369926827921 -6.48717259148167180172 -3.27092797259047030067 -3.27092797259047030067 -3.27092797259047030067 3.16156126519193358959 -3.27092797259047030067 3.16156126519193358959 -3.27092797259047030067 -0.05468335369926827921 3.16156126519193358959 -0.05468335369926827921 3.16156126519193358959 -0.05468335369926827921 -0.05468335369926827921 -3.27092797259047030067 -9.70341721037287463503 -3.27092797259047030067 3.16156126519193358959 -0.05468335369926827921 3.16156126519193358959 -0.05468335369926827921 -0.05468335369926827921 -0.05468335369926827921 -3.27092797259047030067 -0.05468335369926827921 3.16156126519193358959 -0.05468335369926827921 9.59405050297433881212 6.37780588408313597881 3.16156126519193358959 -6.48717259148167180172 -0.05468335369926827921 -3.27092797259047030067 -3.27092797259047030067 -3.27092797259047030067 -0.05468335369926827921 -9.70341721037287463503 -6.48717259148167180172 -3.27092797259047030067 -6.48717259148167180172 -0.05468335369926827921 -6.48717259148167180172 -3.27092797259047030067 -6.48717259148167180172 -3.27092797259047030067 -0.05468335369926827921 -9.70341721037287463503 -3.27092797259047030067 -3.27092797259047030067 -6.48717259148167180172 -9.70341721037287463503 -9.70341721037287463503 -6.48717259148167180172 -0.05468335369926827921 -3.27092797259047030067 -6.48717259148167180172 -6.48717259148167180172 -3.27092797259047030067 -6.48717259148167180172 -6.48717259148167180172 -0.05468335369926827921 -3.27092797259047030067 -0.05468335369926827921 -9.70341721037287463503 -6.48717259148167180172 -9.70341721037287463503 -9.70341721037287463503 -9.70341721037287463503 -6.48717259148167180172 -0.05468335369926827921 -6.48717259148167180172 -3.27092797259047030067 -6.48717259148167180172 -0.05468335369926827921 -3.27092797259047030067 -3.27092797259047030067 -6.48717259148167180172 -3.27092797259047030067 -3.27092797259047030067 -6.48717259148167180172 -6.48717259148167180172 -3.27092797259047030067 -3.27092797259047030067 -0.05468335369926827921 -9.70341721037287463503 -3.27092797259047030067 -0.05468335369926827921 -0.05468335369926827921 -6.48717259148167180172 -0.05468335369926827921 6.37780588408313597881 -6.48717259148167180172 -0.05468335369926827921 -3.27092797259047030067 -0.05468335369926827921 -3.27092797259047030067 -3.27092797259047030067 -6.48717259148167180172 -3.27092797259047030067 -0.05468335369926827921 -6.48717259148167180172 -0.05468335369926827921 3.16156126519193358959 -0.05468335369926827921 -6.48717259148167180172 -6.48717259148167180172 -3.27092797259047030067 -0.05468335369926827921 -0.05468335369926827921 -0.05468335369926827921 -3.27092797259047030067 -3.27092797259047030067 -3.27092797259047030067 -6.48717259148167180172 -6.48717259148167180172 -0.05468335369926827921 -3.27092797259047030067 -0.05468335369926827921 -6.48717259148167180172 -9.70341721037287463503 -0.05468335369926827921 -3.27092797259047030067 -0.05468335369926827921 -6.48717259148167180172 -3.27092797259047030067 -6.48717259148167180172 -3.27092797259047030067 -0.05468335369926827921 3.16156126519193358959 -3.27092797259047030067 -0.05468335369926827921 -3.27092797259047030067 -0.05468335369926827921 -3.27092797259047030067 -3.27092797259047030067 -6.48717259148167180172 -3.27092797259047030067 -6.48717259148167180172 -0.05468335369926827921 -6.48717259148167180172 -6.48717259148167180172 -3.27092797259047030067 -3.27092797259047030067 -0.05468335369926827921 -3.27092797259047030067 -9.70341721037287463503 -6.48717259148167180172 -6.48717259148167180172 3.16156126519193358959 -0.05468335369926827921 -0.05468335369926827921 -0.05468335369926827921 -0.05468335369926827921 -6.48717259148167180172 -3.27092797259047030067 3.16156126519193358959 -3.27092797259047030067 3.16156126519193358959 -0.05468335369926827921 -3.27092797259047030067 3.16156126519193358959 -0.05468335369926827921 6.37780588408313597881 3.16156126519193358959 -3.27092797259047030067 -0.05468335369926827921 6.37780588408313597881 -3.27092797259047030067 3.16156126519193358959 -0.05468335369926827921 3.16156126519193358959 3.16156126519193358959 -3.27092797259047030067 -0.05468335369926827921 -0.05468335369926827921 3.16156126519193358959 3.16156126519193358959 6.37780588408313597881 6.37780588408313597881 -0.05468335369926827921 3.16156126519193358959 3.16156126519193358959 9.59405050297433881212 3.16156126519193358959 3.16156126519193358959 -3.27092797259047030067 -0.05468335369926827921 6.37780588408313597881 -0.05468335369926827921 3.16156126519193358959 -0.05468335369926827921 3.16156126519193358959 6.37780588408313597881 -3.27092797259047030067 9.59405050297433881212 -0.05468335369926827921 6.37780588408313597881 -0.05468335369926827921 3.16156126519193358959 -6.48717259148167180172 3.16156126519193358959 3.16156126519193358959 6.37780588408313597881 3.16156126519193358959 -0.05468335369926827921 3.16156126519193358959 3.16156126519193358959 -0.05468335369926827921 3.16156126519193358959 6.37780588408313597881 3.16156126519193358959 9.59405050297433881212 -3.27092797259047030067 -0.05468335369926827921 3.16156126519193358959 -3.27092797259047030067 -0.05468335369926827921 -0.05468335369926827921 -0.05468335369926827921 -3.27092797259047030067 -3.27092797259047030067 -6.48717259148167180172 3.16156126519193358959 -3.27092797259047030067 3.16156126519193358959 3.16156126519193358959 -3.27092797259047030067 -3.27092797259047030067 3.16156126519193358959 -3.27092797259047030067 3.16156126519193358959 6.37780588408313597881 -3.27092797259047030067 -0.05468335369926827921 -6.48717259148167180172 -3.27092797259047030067 3.16156126519193358959 -0.05468335369926827921 -0.05468335369926827921 -0.05468335369926827921 -3.27092797259047030067 -9.70341721037287463503 -12.91966182926407569198 -0.05468335369926827921 -3.27092797259047030067 -0.05468335369926827921 -6.48717259148167180172 -3.27092797259047030067 -6.48717259148167180172 -3.27092797259047030067 -0.05468335369926827921 -3.27092797259047030067 -3.27092797259047030067 -6.48717259148167180172 -3.27092797259047030067 -3.27092797259047030067 -0.05468335369926827921 3.16156126519193358959 -3.27092797259047030067 -0.05468335369926827921 -6.48717259148167180172 -0.05468335369926827921 -0.05468335369926827921 -3.27092797259047030067 -0.05468335369926827921 -0.05468335369926827921 3.16156126519193358959 -6.48717259148167180172 -0.05468335369926827921 -0.05468335369926827921 -0.05468335369926827921 -0.05468335369926827921 -3.27092797259047030067 -3.27092797259047030067 -0.05468335369926827921 -0.05468335369926827921 -0.05468335369926827921 3.16156126519193358959 -3.27092797259047030067 -3.27092797259047030067 -6.48717259148167180172 -0.05468335369926827921 -0.05468335369926827921 3.16156126519193358959 6.37780588408313597881 6.37780588408313597881 -9.70341721037287463503 -0.05468335369926827921 -6.48717259148167180172 3.16156126519193358959 -0.05468335369926827921 -0.05468335369926827921 3.16156126519193358959 3.16156126519193358959 3.16156126519193358959 -6.48717259148167180172 -6.48717259148167180172 -3.27092797259047030067 3.16156126519193358959 6.37780588408313597881 -0.05468335369926827921 -0.05468335369926827921 -9.70341721037287463503 -3.27092797259047030067 -3.27092797259047030067 -0.05468335369926827921 -0.05468335369926827921 3.16156126519193358959 -3.27092797259047030067 -0.05468335369926827921 3.16156126519193358959 -3.27092797259047030067 -0.05468335369926827921 -0.05468335369926827921 -0.05468335369926827921 -3.27092797259047030067 -6.48717259148167180172 -0.05468335369926827921 3.16156126519193358959 6.37780588408313597881 3.16156126519193358959 -0.05468335369926827921 3.16156126519193358959 -0.05468335369926827921 6.37780588408313597881 6.37780588408313597881 3.16156126519193358959 -0.05468335369926827921 -3.27092797259047030067 3.16156126519193358959 6.37780588408313597881 6.37780588408313597881 3.16156126519193358959 -0.05468335369926827921 -0.05468335369926827921 -0.05468335369926827921 -0.05468335369926827921 -0.05468335369926827921 -0.05468335369926827921 9.59405050297433881212 -0.05468335369926827921 -0.05468335369926827921 3.16156126519193358959 -0.05468335369926827921 3.16156126519193358959 -0.05468335369926827921 -0.05468335369926827921 9.59405050297433881212 3.16156126519193358959 -3.27092797259047030067 -0.05468335369926827921 -0.05468335369926827921 -0.05468335369926827921 -3.27092797259047030067 -0.05468335369926827921 -0.05468335369926827921 -6.48717259148167180172 6.37780588408313597881 -0.05468335369926827921 6.37780588408313597881 -0.05468335369926827921 -0.05468335369926827921 3.16156126519193358959 -0.05468335369926827921 -3.27092797259047030067 3.16156126519193358959 -0.05468335369926827921 3.16156126519193358959 -0.05468335369926827921 -0.05468335369926827921 -3.27092797259047030067 3.16156126519193358959 3.16156126519193358959 -3.27092797259047030067 -3.27092797259047030067 3.16156126519193358959 -3.27092797259047030067 -0.05468335369926827921 -9.70341721037287463503 -6.48717259148167180172 -3.27092797259047030067 -3.27092797259047030067 -3.27092797259047030067 -3.27092797259047030067 -6.48717259148167180172 -6.48717259148167180172 -6.48717259148167180172 -0.05468335369926827921 -0.05468335369926827921 -6.48717259148167180172 -6.48717259148167180172 -6.48717259148167180172 -9.70341721037287463503 -6.48717259148167180172 -9.70341721037287463503 -9.70341721037287463503 -9.70341721037287463503 -6.48717259148167180172 -12.91966182926407569198 -6.48717259148167180172 -9.70341721037287463503 -0.05468335369926827921 -0.05468335369926827921 -0.05468335369926827921 -0.05468335369926827921 -9.70341721037287463503 -6.48717259148167180172 -9.70341721037287463503 -3.27092797259047030067 -3.27092797259047030067 -3.27092797259047030067 -0.05468335369926827921 -0.05468335369926827921 -6.48717259148167180172 -6.48717259148167180172 -6.48717259148167180172 -0.05468335369926827921 -9.70341721037287463503 6.37780588408313597881 -3.27092797259047030067 -6.48717259148167180172 -0.05468335369926827921 -0.05468335369926827921 -0.05468335369926827921 -0.05468335369926827921 -0.05468335369926827921 -3.27092797259047030067 -12.91966182926407569198 -6.48717259148167180172 -3.27092797259047030067 -3.27092797259047030067 -0.05468335369926827921 3.16156126519193358959 6.37780588408313597881 -0.05468335369926827921 -3.27092797259047030067 -0.05468335369926827921 -0.05468335369926827921 -0.05468335369926827921 -6.48717259148167180172 -3.27092797259047030067 -0.05468335369926827921 -0.05468335369926827921 -3.27092797259047030067 3.16156126519193358959 3.16156126519193358959 -0.05468335369926827921 -3.27092797259047030067 -0.05468335369926827921 3.16156126519193358959 -0.05468335369926827921 -0.05468335369926827921 3.16156126519193358959 -0.05468335369926827921 -0.05468335369926827921 6.37780588408313597881 3.16156126519193358959 6.37780588408313597881 3.16156126519193358959 3.16156126519193358959 6.37780588408313597881 3.16156126519193358959 3.16156126519193358959 -0.05468335369926827921 3.16156126519193358959 3.16156126519193358959 3.16156126519193358959 -0.05468335369926827921 -0.05468335369926827921 9.59405050297433881212 3.16156126519193358959 -0.05468335369926827921 3.16156126519193358959 3.16156126519193358959 -3.27092797259047030067 -0.05468335369926827921 -0.05468335369926827921 12.81029512186553986908 6.37780588408313597881 6.37780588408313597881 -3.27092797259047030067 3.16156126519193358959 3.16156126519193358959 3.16156126519193358959 6.37780588408313597881 -3.27092797259047030067 3.16156126519193358959 3.16156126519193358959 3.16156126519193358959 12.81029512186553986908 3.16156126519193358959 6.37780588408313597881 -0.05468335369926827921 -0.05468335369926827921 -3.27092797259047030067 -0.05468335369926827921 6.37780588408313597881 6.37780588408313597881 3.16156126519193358959 -0.05468335369926827921 3.16156126519193358959 3.16156126519193358959 3.16156126519193358959 9.59405050297433881212 6.37780588408313597881 -0.05468335369926827921 3.16156126519193358959 -0.05468335369926827921 -0.05468335369926827921 3.16156126519193358959 3.16156126519193358959 3.16156126519193358959 6.37780588408313597881 3.16156126519193358959 -3.27092797259047030067 -0.05468335369926827921 -3.27092797259047030067 -0.05468335369926827921 3.16156126519193358959 9.59405050297433881212 -6.48717259148167180172 3.16156126519193358959 -3.27092797259047030067 -3.27092797259047030067 3.16156126519193358959 3.16156126519193358959 -0.05468335369926827921 -3.27092797259047030067 3.16156126519193358959 -0.05468335369926827921 3.16156126519193358959 -0.05468335369926827921 -0.05468335369926827921 -3.27092797259047030067 -0.05468335369926827921 6.37780588408313597881 3.16156126519193358959 3.16156126519193358959 3.16156126519193358959 -3.27092797259047030067 -6.48717259148167180172 -0.05468335369926827921 -0.05468335369926827921 3.16156126519193358959 -0.05468335369926827921 -3.27092797259047030067 -0.05468335369926827921 -0.05468335369926827921 6.37780588408313597881 -0.05468335369926827921 -0.05468335369926827921 -0.05468335369926827921 -0.05468335369926827921 3.16156126519193358959 3.16156126519193358959 6.37780588408313597881 -3.27092797259047030067 -6.48717259148167180172 6.37780588408313597881 3.16156126519193358959 6.37780588408313597881 6.37780588408313597881 -0.05468335369926827921 3.16156126519193358959 -0.05468335369926827921 -3.27092797259047030067 -0.05468335369926827921 -0.05468335369926827921 6.37780588408313597881 -0.05468335369926827921 -0.05468335369926827921 -6.48717259148167180172 -3.27092797259047030067 -0.05468335369926827921 -0.05468335369926827921 -0.05468335369926827921 -0.05468335369926827921 -3.27092797259047030067 -6.48717259148167180172 -3.27092797259047030067 -0.05468335369926827921 -0.05468335369926827921 -6.48717259148167180172 -9.70341721037287463503 -3.27092797259047030067 -3.27092797259047030067 -0.05468335369926827921 6.37780588408313597881 -3.27092797259047030067 -0.05468335369926827921 -6.48717259148167180172 3.16156126519193358959 -0.05468335369926827921 -9.70341721037287463503 -3.27092797259047030067 -6.48717259148167180172 -3.27092797259047030067 -6.48717259148167180172 -6.48717259148167180172 6.37780588408313597881 -0.05468335369926827921 -6.48717259148167180172 -6.48717259148167180172 -6.48717259148167180172 -6.48717259148167180172 -3.27092797259047030067 3.16156126519193358959 -6.48717259148167180172 -6.48717259148167180172 -9.70341721037287463503 -6.48717259148167180172 -9.70341721037287463503 -6.48717259148167180172 -12.91966182926407569198 -6.48717259148167180172 -6.48717259148167180172 -3.27092797259047030067 -0.05468335369926827921 -6.48717259148167180172 -6.48717259148167180172 -9.70341721037287463503 -3.27092797259047030067 -0.05468335369926827921 -0.05468335369926827921 -3.27092797259047030067 -6.48717259148167180172 -0.05468335369926827921 -9.70341721037287463503 -0.05468335369926827921 -9.70341721037287463503 -3.27092797259047030067 -3.27092797259047030067 -0.05468335369926827921 -0.05468335369926827921 -9.70341721037287463503 -6.48717259148167180172 -9.70341721037287463503 -0.05468335369926827921 -9.70341721037287463503 -0.05468335369926827921 -6.48717259148167180172 -3.27092797259047030067 -12.91966182926407569198 -0.05468335369926827921 -3.27092797259047030067 -6.48717259148167180172 -6.48717259148167180172 -6.48717259148167180172 -6.48717259148167180172 -3.27092797259047030067 -3.27092797259047030067 -9.70341721037287463503 3.16156126519193358959 -6.48717259148167180172 -3.27092797259047030067 -9.70341721037287463503 -0.05468335369926827921 3.16156126519193358959 -3.27092797259047030067 -6.48717259148167180172 -9.70341721037287463503 -6.48717259148167180172 -9.70341721037287463503 -6.48717259148167180172 -3.27092797259047030067 -0.05468335369926827921 -0.05468335369926827921 -3.27092797259047030067 -0.05468335369926827921 -0.05468335369926827921 3.16156126519193358959 -0.05468335369926827921 -6.48717259148167180172 -6.48717259148167180172 -3.27092797259047030067 -0.05468335369926827921 -0.05468335369926827921 -3.27092797259047030067 -3.27092797259047030067 -3.27092797259047030067 -6.48717259148167180172 -3.27092797259047030067 -6.48717259148167180172 -3.27092797259047030067 3.16156126519193358959 3.16156126519193358959 -3.27092797259047030067 3.16156126519193358959 -6.48717259148167180172 -3.27092797259047030067 -0.05468335369926827921 3.16156126519193358959 -0.05468335369926827921 -0.05468335369926827921 -0.05468335369926827921 -0.05468335369926827921 -0.05468335369926827921 -0.05468335369926827921 3.16156126519193358959 -3.27092797259047030067 -0.05468335369926827921 3.16156126519193358959 -3.27092797259047030067 -0.05468335369926827921 -0.05468335369926827921 -3.27092797259047030067 -0.05468335369926827921 -0.05468335369926827921 6.37780588408313597881 3.16156126519193358959 -0.05468335369926827921 -0.05468335369926827921 -3.27092797259047030067 -0.05468335369926827921 -0.05468335369926827921 -0.05468335369926827921 -0.05468335369926827921 -6.48717259148167180172 -0.05468335369926827921 -0.05468335369926827921 3.16156126519193358959 3.16156126519193358959 3.16156126519193358959 -3.27092797259047030067 -0.05468335369926827921 -3.27092797259047030067 3.16156126519193358959 3.16156126519193358959 3.16156126519193358959 -3.27092797259047030067 3.16156126519193358959 -3.27092797259047030067 9.59405050297433881212 3.16156126519193358959 -0.05468335369926827921 3.16156126519193358959 -3.27092797259047030067 9.59405050297433881212 3.16156126519193358959 -0.05468335369926827921 9.59405050297433881212 -0.05468335369926827921 -0.05468335369926827921 6.37780588408313597881 3.16156126519193358959 3.16156126519193358959 3.16156126519193358959 9.59405050297433881212 -3.27092797259047030067 -0.05468335369926827921 6.37780588408313597881 9.59405050297433881212 3.16156126519193358959 -0.05468335369926827921 -0.05468335369926827921 3.16156126519193358959 3.16156126519193358959 9.59405050297433881212 3.16156126519193358959 3.16156126519193358959 3.16156126519193358959 3.16156126519193358959 6.37780588408313597881 -3.27092797259047030067 6.37780588408313597881 -0.05468335369926827921 3.16156126519193358959 3.16156126519193358959 -0.05468335369926827921 -3.27092797259047030067 -0.05468335369926827921 6.37780588408313597881 3.16156126519193358959 3.16156126519193358959 -0.05468335369926827921 -6.48717259148167180172 -0.05468335369926827921 -0.05468335369926827921 3.16156126519193358959 3.16156126519193358959 -3.27092797259047030067 -3.27092797259047030067 -3.27092797259047030067 -3.27092797259047030067 -0.05468335369926827921 3.16156126519193358959 -6.48717259148167180172 3.16156126519193358959 -3.27092797259047030067 3.16156126519193358959 -3.27092797259047030067 -3.27092797259047030067 6.37780588408313597881 3.16156126519193358959 -6.48717259148167180172 -3.27092797259047030067 -6.48717259148167180172 3.16156126519193358959 -3.27092797259047030067 -0.05468335369926827921 -0.05468335369926827921 -0.05468335369926827921 -3.27092797259047030067 -9.70341721037287463503 -0.05468335369926827921 -0.05468335369926827921 -3.27092797259047030067 6.37780588408313597881 3.16156126519193358959 -6.48717259148167180172 -0.05468335369926827921 -3.27092797259047030067 6.37780588408313597881 -3.27092797259047030067 -3.27092797259047030067 -0.05468335369926827921 -3.27092797259047030067 -0.05468335369926827921 -0.05468335369926827921 3.16156126519193358959 3.16156126519193358959 -0.05468335369926827921 -6.48717259148167180172 -3.27092797259047030067 -3.27092797259047030067 -0.05468335369926827921 -3.27092797259047030067 -3.27092797259047030067 -6.48717259148167180172 -6.48717259148167180172 3.16156126519193358959 -0.05468335369926827921 3.16156126519193358959 -3.27092797259047030067 -3.27092797259047030067 -0.05468335369926827921 -3.27092797259047030067 6.37780588408313597881 3.16156126519193358959 -0.05468335369926827921 -0.05468335369926827921 -0.05468335369926827921 -6.48717259148167180172 -3.27092797259047030067 -3.27092797259047030067 3.16156126519193358959 -0.05468335369926827921 -0.05468335369926827921 3.16156126519193358959 -3.27092797259047030067 -3.27092797259047030067 -3.27092797259047030067 -3.27092797259047030067 -0.05468335369926827921 6.37780588408313597881 6.37780588408313597881 -0.05468335369926827921 -0.05468335369926827921 -3.27092797259047030067 -0.05468335369926827921 3.16156126519193358959 -3.27092797259047030067 -3.27092797259047030067 -3.27092797259047030067 3.16156126519193358959 -6.48717259148167180172 -0.05468335369926827921 -3.27092797259047030067 -0.05468335369926827921 -0.05468335369926827921 -0.05468335369926827921 3.16156126519193358959 6.37780588408313597881 -0.05468335369926827921 -0.05468335369926827921 -0.05468335369926827921 3.16156126519193358959 -6.48717259148167180172 -0.05468335369926827921 -6.48717259148167180172 -0.05468335369926827921 -0.05468335369926827921 -3.27092797259047030067 -0.05468335369926827921 -9.70341721037287463503 -3.27092797259047030067 6.37780588408313597881 -3.27092797259047030067 -0.05468335369926827921 -6.48717259148167180172 -6.48717259148167180172 -3.27092797259047030067 -3.27092797259047030067 -3.27092797259047030067 -0.05468335369926827921 -3.27092797259047030067 3.16156126519193358959 -6.48717259148167180172 -3.27092797259047030067 -3.27092797259047030067 3.16156126519193358959 -0.05468335369926827921 3.16156126519193358959 -0.05468335369926827921 -6.48717259148167180172 6.37780588408313597881 3.16156126519193358959 -0.05468335369926827921 -0.05468335369926827921 -0.05468335369926827921 -3.27092797259047030067 -3.27092797259047030067 -0.05468335369926827921 3.16156126519193358959 -3.27092797259047030067 -6.48717259148167180172 -3.27092797259047030067 3.16156126519193358959 6.37780588408313597881 -0.05468335369926827921 3.16156126519193358959 -0.05468335369926827921 -0.05468335369926827921 -0.05468335369926827921 -3.27092797259047030067 -0.05468335369926827921 -0.05468335369926827921 -3.27092797259047030067 -3.27092797259047030067 -3.27092797259047030067 -0.05468335369926827921 3.16156126519193358959 6.37780588408313597881 -0.05468335369926827921 -0.05468335369926827921 -3.27092797259047030067 3.16156126519193358959 -0.05468335369926827921 -3.27092797259047030067 -3.27092797259047030067 -0.05468335369926827921 -0.05468335369926827921 -6.48717259148167180172 -0.05468335369926827921 -0.05468335369926827921 -6.48717259148167180172 -6.48717259148167180172 -3.27092797259047030067 -3.27092797259047030067 -6.48717259148167180172 -0.05468335369926827921 -6.48717259148167180172 -0.05468335369926827921 -9.70341721037287463503 -6.48717259148167180172 -6.48717259148167180172 -3.27092797259047030067 -0.05468335369926827921 -3.27092797259047030067 -6.48717259148167180172 -6.48717259148167180172 -9.70341721037287463503 -9.70341721037287463503 -6.48717259148167180172 -3.27092797259047030067 -6.48717259148167180172 -0.05468335369926827921 -12.91966182926407569198 -6.48717259148167180172 -12.91966182926407569198 -6.48717259148167180172 -6.48717259148167180172 -6.48717259148167180172 -0.05468335369926827921 -6.48717259148167180172 -3.27092797259047030067 -3.27092797259047030067 -9.70341721037287463503 -12.91966182926407569198 -0.05468335369926827921 -6.48717259148167180172 -6.48717259148167180172 -0.05468335369926827921 -6.48717259148167180172 -6.48717259148167180172 -9.70341721037287463503 -3.27092797259047030067 -6.48717259148167180172 -0.05468335369926827921 -0.05468335369926827921 -3.27092797259047030067 -0.05468335369926827921 -0.05468335369926827921 -0.05468335369926827921 -0.05468335369926827921 -3.27092797259047030067 -0.05468335369926827921 -3.27092797259047030067 -0.05468335369926827921 6.37780588408313597881 3.16156126519193358959 -3.27092797259047030067 -3.27092797259047030067 -3.27092797259047030067 3.16156126519193358959 -6.48717259148167180172 -3.27092797259047030067 -3.27092797259047030067 -0.05468335369926827921 -3.27092797259047030067 -3.27092797259047030067 -6.48717259148167180172 -0.05468335369926827921 6.37780588408313597881 -0.05468335369926827921 -3.27092797259047030067 6.37780588408313597881 -0.05468335369926827921 -6.48717259148167180172 3.16156126519193358959 -3.27092797259047030067 6.37780588408313597881 3.16156126519193358959 -3.27092797259047030067 6.37780588408313597881 -3.27092797259047030067 -0.05468335369926827921 3.16156126519193358959 6.37780588408313597881 3.16156126519193358959 6.37780588408313597881 -0.05468335369926827921 -3.27092797259047030067 -3.27092797259047030067 -0.05468335369926827921 3.16156126519193358959 3.16156126519193358959 3.16156126519193358959 -6.48717259148167180172 3.16156126519193358959 -0.05468335369926827921 -0.05468335369926827921 -6.48717259148167180172 -0.05468335369926827921 -0.05468335369926827921 3.16156126519193358959 -0.05468335369926827921 6.37780588408313597881 3.16156126519193358959 3.16156126519193358959 3.16156126519193358959 -0.05468335369926827921 3.16156126519193358959 -0.05468335369926827921 3.16156126519193358959 6.37780588408313597881 -0.05468335369926827921 3.16156126519193358959 3.16156126519193358959 6.37780588408313597881 3.16156126519193358959 3.16156126519193358959 9.59405050297433881212 6.37780588408313597881 -3.27092797259047030067 3.16156126519193358959 -0.05468335369926827921 3.16156126519193358959 3.16156126519193358959 3.16156126519193358959 3.16156126519193358959 -0.05468335369926827921 -0.05468335369926827921 3.16156126519193358959 3.16156126519193358959 3.16156126519193358959 -3.27092797259047030067 -0.05468335369926827921 6.37780588408313597881 -0.05468335369926827921 6.37780588408313597881 6.37780588408313597881 3.16156126519193358959 3.16156126519193358959 -3.27092797259047030067 -0.05468335369926827921 3.16156126519193358959 3.16156126519193358959 -0.05468335369926827921 -3.27092797259047030067 -6.48717259148167180172 -3.27092797259047030067 -6.48717259148167180172 -6.48717259148167180172 -3.27092797259047030067 3.16156126519193358959 -6.48717259148167180172 -3.27092797259047030067 -12.91966182926407569198 -6.48717259148167180172 -0.05468335369926827921 -0.05468335369926827921 -0.05468335369926827921 -3.27092797259047030067 -0.05468335369926827921 -3.27092797259047030067 -0.05468335369926827921 3.16156126519193358959 -6.48717259148167180172 -3.27092797259047030067 -6.48717259148167180172 -6.48717259148167180172 -9.70341721037287463503 -0.05468335369926827921 -0.05468335369926827921 -3.27092797259047030067 -6.48717259148167180172 -0.05468335369926827921 -3.27092797259047030067 3.16156126519193358959 -0.05468335369926827921 3.16156126519193358959 -6.48717259148167180172 -3.27092797259047030067 -0.05468335369926827921 -0.05468335369926827921 -0.05468335369926827921 -0.05468335369926827921 -3.27092797259047030067 -0.05468335369926827921 3.16156126519193358959 3.16156126519193358959 3.16156126519193358959 6.37780588408313597881 3.16156126519193358959 -3.27092797259047030067 -0.05468335369926827921 -3.27092797259047030067 -0.05468335369926827921 -3.27092797259047030067 -0.05468335369926827921 -3.27092797259047030067 3.16156126519193358959 -6.48717259148167180172 -6.48717259148167180172 -0.05468335369926827921 -0.05468335369926827921 3.16156126519193358959 -3.27092797259047030067 -6.48717259148167180172 -3.27092797259047030067 -0.05468335369926827921 -0.05468335369926827921 -3.27092797259047030067 -3.27092797259047030067 6.37780588408313597881 3.16156126519193358959 3.16156126519193358959 6.37780588408313597881 -0.05468335369926827921 -0.05468335369926827921 -0.05468335369926827921 -0.05468335369926827921 6.37780588408313597881 3.16156126519193358959 3.16156126519193358959 3.16156126519193358959 -3.27092797259047030067 3.16156126519193358959 3.16156126519193358959 9.59405050297433881212 3.16156126519193358959 -3.27092797259047030067 3.16156126519193358959 -3.27092797259047030067 -3.27092797259047030067 -0.05468335369926827921 6.37780588408313597881 3.16156126519193358959 3.16156126519193358959 3.16156126519193358959 9.59405050297433881212 -0.05468335369926827921 3.16156126519193358959 -0.05468335369926827921 3.16156126519193358959 -0.05468335369926827921 9.59405050297433881212 -0.05468335369926827921 3.16156126519193358959 3.16156126519193358959 -3.27092797259047030067 6.37780588408313597881 6.37780588408313597881 -3.27092797259047030067 -3.27092797259047030067 -0.05468335369926827921 -3.27092797259047030067 -0.05468335369926827921 -3.27092797259047030067 -6.48717259148167180172 3.16156126519193358959 -6.48717259148167180172 -3.27092797259047030067 -3.27092797259047030067 -6.48717259148167180172 -3.27092797259047030067 -3.27092797259047030067 -0.05468335369926827921 -3.27092797259047030067 -3.27092797259047030067 -3.27092797259047030067 -0.05468335369926827921 -6.48717259148167180172 -0.05468335369926827921 -0.05468335369926827921 -3.27092797259047030067 -3.27092797259047030067 -6.48717259148167180172 -3.27092797259047030067 -0.05468335369926827921 -0.05468335369926827921 -6.48717259148167180172 -6.48717259148167180172 -3.27092797259047030067 -3.27092797259047030067 -9.70341721037287463503 -0.05468335369926827921 -0.05468335369926827921 -6.48717259148167180172 -3.27092797259047030067 -9.70341721037287463503 -12.91966182926407569198 -3.27092797259047030067 -0.05468335369926827921 3.16156126519193358959 -3.27092797259047030067 -9.70341721037287463503 -9.70341721037287463503 -6.48717259148167180172 -6.48717259148167180172 -9.70341721037287463503 -0.05468335369926827921 -3.27092797259047030067 -3.27092797259047030067 -9.70341721037287463503 -6.48717259148167180172 -9.70341721037287463503 -6.48717259148167180172 -3.27092797259047030067 3.16156126519193358959 -6.48717259148167180172 -0.05468335369926827921 -3.27092797259047030067 -0.05468335369926827921 -3.27092797259047030067 -6.48717259148167180172 -3.27092797259047030067 -0.05468335369926827921 -0.05468335369926827921 9.59405050297433881212 3.16156126519193358959 3.16156126519193358959 3.16156126519193358959 3.16156126519193358959 3.16156126519193358959 6.37780588408313597881 3.16156126519193358959 3.16156126519193358959 -3.27092797259047030067 -0.05468335369926827921 -3.27092797259047030067 3.16156126519193358959 -0.05468335369926827921 3.16156126519193358959 3.16156126519193358959 -0.05468335369926827921 6.37780588408313597881 9.59405050297433881212 -0.05468335369926827921 -3.27092797259047030067 -0.05468335369926827921 3.16156126519193358959 -3.27092797259047030067 3.16156126519193358959 -0.05468335369926827921 6.37780588408313597881 3.16156126519193358959 -0.05468335369926827921 -0.05468335369926827921 -0.05468335369926827921 -0.05468335369926827921 3.16156126519193358959 3.16156126519193358959 -0.05468335369926827921 -6.48717259148167180172 -0.05468335369926827921 -0.05468335369926827921 -0.05468335369926827921 -0.05468335369926827921 -6.48717259148167180172 -0.05468335369926827921 3.16156126519193358959 -0.05468335369926827921 3.16156126519193358959 -0.05468335369926827921 3.16156126519193358959 -0.05468335369926827921 -0.05468335369926827921 -3.27092797259047030067 -0.05468335369926827921 -3.27092797259047030067 -0.05468335369926827921 -6.48717259148167180172 -3.27092797259047030067 -6.48717259148167180172 -0.05468335369926827921 3.16156126519193358959 -3.27092797259047030067 -6.48717259148167180172 -9.70341721037287463503 -9.70341721037287463503 -9.70341721037287463503 3.16156126519193358959 -0.05468335369926827921 -9.70341721037287463503 -16.13590644815527852529 -9.70341721037287463503 -6.48717259148167180172 -6.48717259148167180172 -0.05468335369926827921 -9.70341721037287463503 -12.91966182926407569198 -6.48717259148167180172 -3.27092797259047030067 -6.48717259148167180172 -0.05468335369926827921 -0.05468335369926827921 -3.27092797259047030067 -3.27092797259047030067 -6.48717259148167180172 -3.27092797259047030067 -3.27092797259047030067 -3.27092797259047030067 -6.48717259148167180172 -6.48717259148167180172 3.16156126519193358959 -6.48717259148167180172 -0.05468335369926827921 -3.27092797259047030067 -6.48717259148167180172 -6.48717259148167180172 -9.70341721037287463503 -3.27092797259047030067 -3.27092797259047030067 -6.48717259148167180172 -6.48717259148167180172 -3.27092797259047030067 -6.48717259148167180172 -6.48717259148167180172 -6.48717259148167180172 3.16156126519193358959 -0.05468335369926827921 -6.48717259148167180172 -3.27092797259047030067 -3.27092797259047030067 -9.70341721037287463503 -6.48717259148167180172 -3.27092797259047030067 -6.48717259148167180172 -6.48717259148167180172 -0.05468335369926827921 -0.05468335369926827921 -6.48717259148167180172 -6.48717259148167180172 -12.91966182926407569198 -0.05468335369926827921 -0.05468335369926827921 -0.05468335369926827921 -0.05468335369926827921 -0.05468335369926827921 -12.91966182926407569198 -6.48717259148167180172 -0.05468335369926827921 -3.27092797259047030067 -3.27092797259047030067 -6.48717259148167180172 -9.70341721037287463503 -9.70341721037287463503 -6.48717259148167180172 -9.70341721037287463503 -6.48717259148167180172 -6.48717259148167180172 -3.27092797259047030067 -3.27092797259047030067 -6.48717259148167180172 3.16156126519193358959 3.16156126519193358959 -6.48717259148167180172 -0.05468335369926827921 -3.27092797259047030067 -6.48717259148167180172 -6.48717259148167180172 3.16156126519193358959 -0.05468335369926827921 -3.27092797259047030067 -0.05468335369926827921 -3.27092797259047030067 -6.48717259148167180172 -3.27092797259047030067 -3.27092797259047030067 -6.48717259148167180172 -3.27092797259047030067 3.16156126519193358959 -6.48717259148167180172 -3.27092797259047030067 -0.05468335369926827921 -6.48717259148167180172 3.16156126519193358959 -0.05468335369926827921 -3.27092797259047030067 -9.70341721037287463503 -6.48717259148167180172 -6.48717259148167180172 -0.05468335369926827921 -6.48717259148167180172 -9.70341721037287463503 -3.27092797259047030067 3.16156126519193358959 -6.48717259148167180172 -3.27092797259047030067 -3.27092797259047030067 -3.27092797259047030067 -9.70341721037287463503 -6.48717259148167180172 -3.27092797259047030067 -3.27092797259047030067 -6.48717259148167180172 -0.05468335369926827921 -6.48717259148167180172 -3.27092797259047030067 -0.05468335369926827921 3.16156126519193358959 -0.05468335369926827921 -6.48717259148167180172 -6.48717259148167180172 -6.48717259148167180172 -0.05468335369926827921 3.16156126519193358959 6.37780588408313597881 3.16156126519193358959 -0.05468335369926827921 -3.27092797259047030067 -3.27092797259047030067 -0.05468335369926827921 -3.27092797259047030067 -0.05468335369926827921 -3.27092797259047030067 3.16156126519193358959 -0.05468335369926827921 -6.48717259148167180172 -6.48717259148167180172 -3.27092797259047030067 -3.27092797259047030067 -0.05468335369926827921 -0.05468335369926827921 -3.27092797259047030067 -0.05468335369926827921 -0.05468335369926827921 -6.48717259148167180172 -9.70341721037287463503 3.16156126519193358959 -3.27092797259047030067 -6.48717259148167180172 -6.48717259148167180172 3.16156126519193358959 -6.48717259148167180172 -0.05468335369926827921 -6.48717259148167180172 -3.27092797259047030067 -3.27092797259047030067 3.16156126519193358959 -3.27092797259047030067 -0.05468335369926827921 6.37780588408313597881 -3.27092797259047030067 -6.48717259148167180172 -3.27092797259047030067 -6.48717259148167180172 -6.48717259148167180172 -0.05468335369926827921 -3.27092797259047030067 -3.27092797259047030067 -3.27092797259047030067 -3.27092797259047030067 -9.70341721037287463503 6.37780588408313597881 -9.70341721037287463503 -3.27092797259047030067 -0.05468335369926827921 -0.05468335369926827921 -6.48717259148167180172 -6.48717259148167180172 -6.48717259148167180172 -9.70341721037287463503 -3.27092797259047030067 -3.27092797259047030067 -6.48717259148167180172 -3.27092797259047030067 -6.48717259148167180172 -0.05468335369926827921 -6.48717259148167180172 -6.48717259148167180172 -6.48717259148167180172 -6.48717259148167180172 -3.27092797259047030067 -3.27092797259047030067 -12.91966182926407569198 -6.48717259148167180172 -0.05468335369926827921 -3.27092797259047030067 -3.27092797259047030067 -0.05468335369926827921 -6.48717259148167180172 -6.48717259148167180172 -3.27092797259047030067 -0.05468335369926827921 -0.05468335369926827921 -3.27092797259047030067 3.16156126519193358959 -0.05468335369926827921 -3.27092797259047030067 3.16156126519193358959 -3.27092797259047030067 -3.27092797259047030067 3.16156126519193358959 -3.27092797259047030067 -3.27092797259047030067 -3.27092797259047030067 -0.05468335369926827921 3.16156126519193358959 -0.05468335369926827921 -3.27092797259047030067 -3.27092797259047030067 -9.70341721037287463503 6.37780588408313597881 -0.05468335369926827921 3.16156126519193358959 -0.05468335369926827921 -0.05468335369926827921 -3.27092797259047030067 -3.27092797259047030067 6.37780588408313597881 3.16156126519193358959 3.16156126519193358959 3.16156126519193358959 -3.27092797259047030067 3.16156126519193358959 6.37780588408313597881 6.37780588408313597881 3.16156126519193358959 3.16156126519193358959 -0.05468335369926827921 3.16156126519193358959 -6.48717259148167180172 3.16156126519193358959 3.16156126519193358959 3.16156126519193358959 3.16156126519193358959 6.37780588408313597881 -0.05468335369926827921 -6.48717259148167180172 -0.05468335369926827921 -3.27092797259047030067 -0.05468335369926827921 -0.05468335369926827921 -0.05468335369926827921 -3.27092797259047030067 -6.48717259148167180172 -0.05468335369926827921 -0.05468335369926827921 -3.27092797259047030067 -0.05468335369926827921 6.37780588408313597881 3.16156126519193358959 -3.27092797259047030067 -0.05468335369926827921 3.16156126519193358959 -3.27092797259047030067 -0.05468335369926827921 -3.27092797259047030067 -9.70341721037287463503 -0.05468335369926827921 -3.27092797259047030067 -0.05468335369926827921 -0.05468335369926827921 -3.27092797259047030067 -6.48717259148167180172 3.16156126519193358959 -3.27092797259047030067 3.16156126519193358959 -0.05468335369926827921 3.16156126519193358959 -6.48717259148167180172 -3.27092797259047030067 -0.05468335369926827921 -3.27092797259047030067 -3.27092797259047030067 3.16156126519193358959 3.16156126519193358959 -0.05468335369926827921 -6.48717259148167180172 -0.05468335369926827921 3.16156126519193358959 -0.05468335369926827921 -3.27092797259047030067 3.16156126519193358959 3.16156126519193358959 6.37780588408313597881 3.16156126519193358959 6.37780588408313597881 3.16156126519193358959 3.16156126519193358959 -0.05468335369926827921 3.16156126519193358959 3.16156126519193358959 -0.05468335369926827921 6.37780588408313597881 3.16156126519193358959 -6.48717259148167180172 -0.05468335369926827921 -0.05468335369926827921 -3.27092797259047030067 9.59405050297433881212 3.16156126519193358959 3.16156126519193358959 3.16156126519193358959 -0.05468335369926827921 -0.05468335369926827921 -0.05468335369926827921 3.16156126519193358959 -0.05468335369926827921 3.16156126519193358959 -0.05468335369926827921 3.16156126519193358959 -3.27092797259047030067 3.16156126519193358959 3.16156126519193358959 -0.05468335369926827921 6.37780588408313597881 6.37780588408313597881 6.37780588408313597881 -3.27092797259047030067 3.16156126519193358959 6.37780588408313597881 6.37780588408313597881 3.16156126519193358959 -0.05468335369926827921 -0.05468335369926827921 -0.05468335369926827921 -0.05468335369926827921 3.16156126519193358959 6.37780588408313597881 -0.05468335369926827921 -3.27092797259047030067 3.16156126519193358959 -0.05468335369926827921 3.16156126519193358959 3.16156126519193358959 3.16156126519193358959 3.16156126519193358959 6.37780588408313597881 3.16156126519193358959 -6.48717259148167180172 -0.05468335369926827921 3.16156126519193358959 3.16156126519193358959 3.16156126519193358959 -3.27092797259047030067 -3.27092797259047030067 -3.27092797259047030067 12.81029512186553986908 9.59405050297433881212 9.59405050297433881212 6.37780588408313597881 3.16156126519193358959 3.16156126519193358959 -0.05468335369926827921 3.16156126519193358959 -0.05468335369926827921 9.59405050297433881212 -3.27092797259047030067 -0.05468335369926827921 3.16156126519193358959 -0.05468335369926827921 3.16156126519193358959 -0.05468335369926827921 3.16156126519193358959 -0.05468335369926827921 -0.05468335369926827921 -0.05468335369926827921 -3.27092797259047030067 -3.27092797259047030067 -0.05468335369926827921 6.37780588408313597881 -0.05468335369926827921 -0.05468335369926827921 -6.48717259148167180172 -3.27092797259047030067 9.59405050297433881212 6.37780588408313597881 6.37780588408313597881 3.16156126519193358959 -0.05468335369926827921 3.16156126519193358959 12.81029512186553986908 9.59405050297433881212 6.37780588408313597881 3.16156126519193358959 6.37780588408313597881 9.59405050297433881212 3.16156126519193358959 6.37780588408313597881 3.16156126519193358959 6.37780588408313597881 6.37780588408313597881 9.59405050297433881212 3.16156126519193358959 16.02653974075674270239 6.37780588408313597881 9.59405050297433881212 6.37780588408313597881 6.37780588408313597881 6.37780588408313597881 9.59405050297433881212 9.59405050297433881212 3.16156126519193358959 3.16156126519193358959 3.16156126519193358959 9.59405050297433881212 6.37780588408313597881 9.59405050297433881212 6.37780588408313597881 6.37780588408313597881 9.59405050297433881212 6.37780588408313597881 3.16156126519193358959 9.59405050297433881212 3.16156126519193358959 9.59405050297433881212 12.81029512186553986908 12.81029512186553986908 6.37780588408313597881 9.59405050297433881212 6.37780588408313597881 3.16156126519193358959 3.16156126519193358959 -0.05468335369926827921 -0.05468335369926827921 6.37780588408313597881 9.59405050297433881212 6.37780588408313597881 6.37780588408313597881 -3.27092797259047030067 -0.05468335369926827921 -0.05468335369926827921 6.37780588408313597881 -0.05468335369926827921 -0.05468335369926827921 6.37780588408313597881 3.16156126519193358959 -0.05468335369926827921 3.16156126519193358959 -0.05468335369926827921 -0.05468335369926827921 6.37780588408313597881 -0.05468335369926827921 -0.05468335369926827921 3.16156126519193358959 -6.48717259148167180172 -0.05468335369926827921 3.16156126519193358959 -0.05468335369926827921 -3.27092797259047030067 3.16156126519193358959 6.37780588408313597881 -3.27092797259047030067 3.16156126519193358959 -3.27092797259047030067 -3.27092797259047030067 3.16156126519193358959 6.37780588408313597881 3.16156126519193358959 -6.48717259148167180172 -3.27092797259047030067 -0.05468335369926827921 -0.05468335369926827921 -3.27092797259047030067 -0.05468335369926827921 -0.05468335369926827921 -3.27092797259047030067 3.16156126519193358959 -0.05468335369926827921 -0.05468335369926827921 -0.05468335369926827921 -3.27092797259047030067 -0.05468335369926827921 -0.05468335369926827921 -0.05468335369926827921 -0.05468335369926827921 3.16156126519193358959 -0.05468335369926827921 -0.05468335369926827921 3.16156126519193358959 3.16156126519193358959 -3.27092797259047030067 -0.05468335369926827921 6.37780588408313597881 -0.05468335369926827921 -3.27092797259047030067 -3.27092797259047030067 -3.27092797259047030067 -0.05468335369926827921 -0.05468335369926827921 9.59405050297433881212 3.16156126519193358959 -0.05468335369926827921 -0.05468335369926827921 3.16156126519193358959 -3.27092797259047030067 3.16156126519193358959 9.59405050297433881212 3.16156126519193358959 -3.27092797259047030067 3.16156126519193358959 -0.05468335369926827921 3.16156126519193358959 -0.05468335369926827921 3.16156126519193358959 3.16156126519193358959 3.16156126519193358959 -3.27092797259047030067 -3.27092797259047030067 -3.27092797259047030067 -0.05468335369926827921 3.16156126519193358959 -0.05468335369926827921 3.16156126519193358959 3.16156126519193358959 -0.05468335369926827921 -0.05468335369926827921 3.16156126519193358959 -0.05468335369926827921 -0.05468335369926827921 -0.05468335369926827921 6.37780588408313597881 -0.05468335369926827921 -0.05468335369926827921 -0.05468335369926827921 -0.05468335369926827921 3.16156126519193358959 3.16156126519193358959 -0.05468335369926827921 6.37780588408313597881 -0.05468335369926827921 6.37780588408313597881 -3.27092797259047030067 -6.48717259148167180172 -3.27092797259047030067 -0.05468335369926827921 3.16156126519193358959 -0.05468335369926827921 3.16156126519193358959 -0.05468335369926827921 -6.48717259148167180172 3.16156126519193358959 -0.05468335369926827921 6.37780588408313597881 3.16156126519193358959 -0.05468335369926827921 3.16156126519193358959 -3.27092797259047030067 3.16156126519193358959 -3.27092797259047030067 3.16156126519193358959 3.16156126519193358959 -3.27092797259047030067 3.16156126519193358959 -0.05468335369926827921 -6.48717259148167180172 -0.05468335369926827921 -3.27092797259047030067 -3.27092797259047030067 -0.05468335369926827921 -3.27092797259047030067 -0.05468335369926827921 3.16156126519193358959 -0.05468335369926827921 -9.70341721037287463503 -3.27092797259047030067 -6.48717259148167180172 -0.05468335369926827921 -0.05468335369926827921 -3.27092797259047030067 3.16156126519193358959 3.16156126519193358959 -3.27092797259047030067 -0.05468335369926827921 -0.05468335369926827921 -6.48717259148167180172 -3.27092797259047030067 -0.05468335369926827921 3.16156126519193358959 6.37780588408313597881 -0.05468335369926827921 -6.48717259148167180172 -0.05468335369926827921 -3.27092797259047030067 3.16156126519193358959 3.16156126519193358959 -3.27092797259047030067 -0.05468335369926827921 -3.27092797259047030067 -6.48717259148167180172 3.16156126519193358959 6.37780588408313597881 -0.05468335369926827921 -3.27092797259047030067 -0.05468335369926827921 -3.27092797259047030067 -0.05468335369926827921 -0.05468335369926827921 -6.48717259148167180172 3.16156126519193358959 -3.27092797259047030067 -0.05468335369926827921 -3.27092797259047030067 -3.27092797259047030067 -0.05468335369926827921 -3.27092797259047030067 -0.05468335369926827921 3.16156126519193358959 3.16156126519193358959 3.16156126519193358959 3.16156126519193358959 -0.05468335369926827921 3.16156126519193358959 3.16156126519193358959 12.81029512186553986908 3.16156126519193358959 6.37780588408313597881 -0.05468335369926827921 -0.05468335369926827921 -3.27092797259047030067 -3.27092797259047030067 9.59405050297433881212 -0.05468335369926827921 3.16156126519193358959 3.16156126519193358959 -0.05468335369926827921 -0.05468335369926827921 3.16156126519193358959 -0.05468335369926827921 3.16156126519193358959 3.16156126519193358959 -0.05468335369926827921 3.16156126519193358959 -0.05468335369926827921 6.37780588408313597881 -0.05468335369926827921 9.59405050297433881212 -0.05468335369926827921 -0.05468335369926827921 -0.05468335369926827921 -3.27092797259047030067 -6.48717259148167180172 6.37780588408313597881 -3.27092797259047030067 3.16156126519193358959 -3.27092797259047030067 -6.48717259148167180172 -3.27092797259047030067 -6.48717259148167180172 -3.27092797259047030067 -3.27092797259047030067 -0.05468335369926827921 -9.70341721037287463503 -6.48717259148167180172 -3.27092797259047030067 -0.05468335369926827921 -0.05468335369926827921 -6.48717259148167180172 -3.27092797259047030067 -3.27092797259047030067 -9.70341721037287463503 -6.48717259148167180172 -12.91966182926407569198 -12.91966182926407569198 -3.27092797259047030067 -9.70341721037287463503 -0.05468335369926827921 -6.48717259148167180172 -6.48717259148167180172 -3.27092797259047030067 -9.70341721037287463503 -9.70341721037287463503 3.16156126519193358959 -3.27092797259047030067 -3.27092797259047030067 -6.48717259148167180172 -9.70341721037287463503 -9.70341721037287463503 -3.27092797259047030067 -3.27092797259047030067 -0.05468335369926827921 -0.05468335369926827921 -6.48717259148167180172 -3.27092797259047030067 -6.48717259148167180172 -3.27092797259047030067 -3.27092797259047030067 -6.48717259148167180172 -3.27092797259047030067 -6.48717259148167180172 -6.48717259148167180172 -3.27092797259047030067 -6.48717259148167180172 -6.48717259148167180172 -0.05468335369926827921 3.16156126519193358959 -0.05468335369926827921 -0.05468335369926827921 6.37780588408313597881 3.16156126519193358959 -0.05468335369926827921 -0.05468335369926827921 -0.05468335369926827921 -0.05468335369926827921 6.37780588408313597881 3.16156126519193358959 3.16156126519193358959 -0.05468335369926827921 -6.48717259148167180172 -0.05468335369926827921 -0.05468335369926827921 6.37780588408313597881 -0.05468335369926827921 -3.27092797259047030067 3.16156126519193358959 -0.05468335369926827921 -0.05468335369926827921 3.16156126519193358959 3.16156126519193358959 3.16156126519193358959 -9.70341721037287463503 6.37780588408313597881 -0.05468335369926827921 -0.05468335369926827921 6.37780588408313597881 -0.05468335369926827921 -0.05468335369926827921 -0.05468335369926827921 3.16156126519193358959 -0.05468335369926827921 -3.27092797259047030067 -3.27092797259047030067 -6.48717259148167180172 -0.05468335369926827921 -6.48717259148167180172 -0.05468335369926827921 3.16156126519193358959 6.37780588408313597881 3.16156126519193358959 -3.27092797259047030067 -6.48717259148167180172 -3.27092797259047030067 3.16156126519193358959 3.16156126519193358959 -3.27092797259047030067 -3.27092797259047030067 -3.27092797259047030067 -0.05468335369926827921 3.16156126519193358959 -0.05468335369926827921 -3.27092797259047030067 -9.70341721037287463503 -9.70341721037287463503 -0.05468335369926827921 -3.27092797259047030067 -0.05468335369926827921 -3.27092797259047030067 -3.27092797259047030067 -0.05468335369926827921 -6.48717259148167180172 3.16156126519193358959 -9.70341721037287463503 -0.05468335369926827921 -6.48717259148167180172 -6.48717259148167180172 -9.70341721037287463503 -3.27092797259047030067 -3.27092797259047030067 6.37780588408313597881 -6.48717259148167180172 -3.27092797259047030067 -12.91966182926407569198 -6.48717259148167180172 -6.48717259148167180172 -3.27092797259047030067 -3.27092797259047030067 -6.48717259148167180172 -3.27092797259047030067 -9.70341721037287463503 -3.27092797259047030067 -6.48717259148167180172 -6.48717259148167180172 -3.27092797259047030067 -9.70341721037287463503 -3.27092797259047030067 -0.05468335369926827921 -6.48717259148167180172 -6.48717259148167180172 -6.48717259148167180172 -6.48717259148167180172 -0.05468335369926827921 -3.27092797259047030067 -0.05468335369926827921 -3.27092797259047030067 -6.48717259148167180172 -3.27092797259047030067 -6.48717259148167180172 -0.05468335369926827921 -3.27092797259047030067 -6.48717259148167180172 3.16156126519193358959 -3.27092797259047030067 -0.05468335369926827921 -0.05468335369926827921 -3.27092797259047030067 -0.05468335369926827921 -6.48717259148167180172 3.16156126519193358959 -3.27092797259047030067 -0.05468335369926827921 -0.05468335369926827921 -0.05468335369926827921 -0.05468335369926827921 -0.05468335369926827921 -3.27092797259047030067 3.16156126519193358959 -6.48717259148167180172 -0.05468335369926827921 -3.27092797259047030067 3.16156126519193358959 -0.05468335369926827921 -0.05468335369926827921 3.16156126519193358959 6.37780588408313597881 3.16156126519193358959 -3.27092797259047030067 -0.05468335369926827921 -0.05468335369926827921 -0.05468335369926827921 -3.27092797259047030067 -0.05468335369926827921 3.16156126519193358959 6.37780588408313597881 -0.05468335369926827921 3.16156126519193358959 -3.27092797259047030067 -0.05468335369926827921 -6.48717259148167180172 -0.05468335369926827921 -0.05468335369926827921 -0.05468335369926827921 -0.05468335369926827921 6.37780588408313597881 -3.27092797259047030067 -3.27092797259047030067 3.16156126519193358959 3.16156126519193358959 3.16156126519193358959 3.16156126519193358959 6.37780588408313597881 -0.05468335369926827921 3.16156126519193358959 6.37780588408313597881 -0.05468335369926827921 3.16156126519193358959 9.59405050297433881212 -0.05468335369926827921 3.16156126519193358959 3.16156126519193358959 6.37780588408313597881 3.16156126519193358959 3.16156126519193358959 -3.27092797259047030067 -0.05468335369926827921 3.16156126519193358959 6.37780588408313597881 6.37780588408313597881 6.37780588408313597881 -0.05468335369926827921 -0.05468335369926827921 -0.05468335369926827921 3.16156126519193358959 -3.27092797259047030067 -0.05468335369926827921 6.37780588408313597881 6.37780588408313597881 3.16156126519193358959 3.16156126519193358959 6.37780588408313597881 -0.05468335369926827921 6.37780588408313597881 6.37780588408313597881 -0.05468335369926827921 3.16156126519193358959 6.37780588408313597881 3.16156126519193358959 3.16156126519193358959 3.16156126519193358959 -3.27092797259047030067 -3.27092797259047030067 -0.05468335369926827921 -0.05468335369926827921 6.37780588408313597881 -0.05468335369926827921 -0.05468335369926827921 -3.27092797259047030067 -0.05468335369926827921 -0.05468335369926827921 -0.05468335369926827921 -0.05468335369926827921 -0.05468335369926827921 -3.27092797259047030067 3.16156126519193358959 -3.27092797259047030067 -3.27092797259047030067 -3.27092797259047030067 -3.27092797259047030067 -6.48717259148167180172 -0.05468335369926827921 6.37780588408313597881 3.16156126519193358959 3.16156126519193358959 -0.05468335369926827921 -0.05468335369926827921 -3.27092797259047030067 6.37780588408313597881 -3.27092797259047030067 6.37780588408313597881 3.16156126519193358959 -3.27092797259047030067 -3.27092797259047030067 6.37780588408313597881 6.37780588408313597881 -3.27092797259047030067 -0.05468335369926827921 -6.48717259148167180172 -0.05468335369926827921 6.37780588408313597881 3.16156126519193358959 6.37780588408313597881 -0.05468335369926827921 3.16156126519193358959 -6.48717259148167180172 -0.05468335369926827921 -0.05468335369926827921 6.37780588408313597881 3.16156126519193358959 -0.05468335369926827921 -0.05468335369926827921 -3.27092797259047030067 3.16156126519193358959 -0.05468335369926827921 3.16156126519193358959 -3.27092797259047030067 -0.05468335369926827921 -6.48717259148167180172 3.16156126519193358959 -0.05468335369926827921 -0.05468335369926827921 -0.05468335369926827921 6.37780588408313597881 -0.05468335369926827921 3.16156126519193358959 3.16156126519193358959 6.37780588408313597881 3.16156126519193358959 -3.27092797259047030067 3.16156126519193358959 3.16156126519193358959 -0.05468335369926827921 -3.27092797259047030067 -0.05468335369926827921 3.16156126519193358959 -0.05468335369926827921 -0.05468335369926827921 -3.27092797259047030067 -0.05468335369926827921 3.16156126519193358959 3.16156126519193358959 -0.05468335369926827921 -0.05468335369926827921 -6.48717259148167180172 9.59405050297433881212 3.16156126519193358959 -6.48717259148167180172 3.16156126519193358959 -0.05468335369926827921 -0.05468335369926827921 6.37780588408313597881 3.16156126519193358959 -3.27092797259047030067 3.16156126519193358959 -0.05468335369926827921 -3.27092797259047030067 3.16156126519193358959 3.16156126519193358959 9.59405050297433881212 6.37780588408313597881 9.59405050297433881212 -0.05468335369926827921 3.16156126519193358959 3.16156126519193358959 3.16156126519193358959 -0.05468335369926827921 3.16156126519193358959 -0.05468335369926827921 -0.05468335369926827921 9.59405050297433881212 9.59405050297433881212 3.16156126519193358959 6.37780588408313597881 6.37780588408313597881 -0.05468335369926827921 9.59405050297433881212 3.16156126519193358959 3.16156126519193358959 3.16156126519193358959 -0.05468335369926827921 3.16156126519193358959 -0.05468335369926827921 3.16156126519193358959 6.37780588408313597881 9.59405050297433881212 3.16156126519193358959 3.16156126519193358959 3.16156126519193358959 6.37780588408313597881 3.16156126519193358959 9.59405050297433881212 6.37780588408313597881 3.16156126519193358959 3.16156126519193358959 6.37780588408313597881 6.37780588408313597881 -0.05468335369926827921 3.16156126519193358959 -0.05468335369926827921 -3.27092797259047030067 -0.05468335369926827921 3.16156126519193358959 6.37780588408313597881 3.16156126519193358959 9.59405050297433881212 3.16156126519193358959 6.37780588408313597881 -0.05468335369926827921 9.59405050297433881212 6.37780588408313597881 6.37780588408313597881 -0.05468335369926827921 3.16156126519193358959 3.16156126519193358959 -3.27092797259047030067 -3.27092797259047030067 