8.85854280617947331677 13.32822578474287666950 8.85854280617947331677 8.85854280617947331677 4.38885982761607174041 4.38885982761607174041 6.62370131689777341677 6.62370131689777341677 8.85854280617947331677 6.62370131689777341677 8.85854280617947331677 8.85854280617947331677 8.85854280617947331677 17.79790876330627824586 15.56306727402457745768 15.56306727402457745768 11.09338429546117588131 13.32822578474287666950 13.32822578474287666950 15.56306727402457745768 20.03275025258798081040 17.79790876330627824586 17.79790876330627824586 20.03275025258798081040 17.79790876330627824586 8.85854280617947331677 11.09338429546117588131 11.09338429546117588131 13.32822578474287666950 11.09338429546117588131 13.32822578474287666950 11.09338429546117588131 11.09338429546117588131 11.09338429546117588131 8.85854280617947331677 4.38885982761607174041 6.62370131689777341677 8.85854280617947331677 8.85854280617947331677 15.56306727402457745768 6.62370131689777341677 8.85854280617947331677 4.38885982761607174041 11.09338429546117588131 13.32822578474287666950 8.85854280617947331677 8.85854280617947331677 8.85854280617947331677 11.09338429546117588131 6.62370131689777341677 11.09338429546117588131 8.85854280617947331677 11.09338429546117588131 8.85854280617947331677 6.62370131689777341677 2.15401833833437095223 4.38885982761607174041 8.85854280617947331677 11.09338429546117588131 8.85854280617947331677 8.85854280617947331677 8.85854280617947331677 6.62370131689777341677 6.62370131689777341677 2.15401833833437095223 13.32822578474287666950 6.62370131689777341677 6.62370131689777341677 4.38885982761607174041 8.85854280617947331677 2.15401833833437095223 2.15401833833437095223 4.38885982761607174041 6.62370131689777341677 11.09338429546117588131 6.62370131689777341677 4.38885982761607174041 4.38885982761607174041 4.38885982761607174041 4.38885982761607174041 4.38885982761607174041 8.85854280617947331677 11.09338429546117588131 8.85854280617947331677 8.85854280617947331677 2.15401833833437095223 4.38885982761607174041 4.38885982761607174041 6.62370131689777341677 8.85854280617947331677 8.85854280617947331677 2.15401833833437095223 4.38885982761607174041 -0.08082315094733043270 -2.31566464022903151232 -0.08082315094733043270 6.62370131689777341677 6.62370131689777341677 6.62370131689777341677 2.15401833833437095223 4.38885982761607174041 -0.08082315094733043270 2.15401833833437095223 -0.08082315094733043270 -0.08082315094733043270 -0.08082315094733043270 2.15401833833437095223 2.15401833833437095223 -0.08082315094733043270 -0.08082315094733043270 -0.08082315094733043270 -0.08082315094733043270 2.15401833833437095223 4.38885982761607174041 2.15401833833437095223 -4.55050612951073230050 2.15401833833437095223 -2.31566464022903151232 -2.31566464022903151232 -0.08082315094733043270 2.15401833833437095223 2.15401833833437095223 -2.31566464022903151232 -0.08082315094733043270 -0.08082315094733043270 -0.08082315094733043270 -2.31566464022903151232 -0.08082315094733043270 -0.08082315094733043270 -0.08082315094733043270 4.38885982761607174041 -0.08082315094733043270 -4.55050612951073230050 -0.08082315094733043270 2.15401833833437095223 2.15401833833437095223 4.38885982761607174041 -2.31566464022903151232 -0.08082315094733043270 -2.31566464022903151232 -0.08082315094733043270 4.38885982761607174041 2.15401833833437095223 -0.08082315094733043270 -2.31566464022903151232 2.15401833833437095223 2.15401833833437095223 2.15401833833437095223 2.15401833833437095223 2.15401833833437095223 -0.08082315094733043270 4.38885982761607174041 -0.08082315094733043270 4.38885982761607174041 -0.08082315094733043270 -0.08082315094733043270 -0.08082315094733043270 -0.08082315094733043270 2.15401833833437095223 4.38885982761607174041 2.15401833833437095223 -0.08082315094733043270 -2.31566464022903151232 2.15401833833437095223 -0.08082315094733043270 -0.08082315094733043270 -0.08082315094733043270 -0.08082315094733043270 2.15401833833437095223 -2.31566464022903151232 -2.31566464022903151232 -0.08082315094733043270 -0.08082315094733043270 2.15401833833437095223 2.15401833833437095223 2.15401833833437095223 -0.08082315094733043270 -2.31566464022903151232 -6.78534761879243397686 -0.08082315094733043270 4.38885982761607174041 -2.31566464022903151232 2.15401833833437095223 -0.08082315094733043270 2.15401833833437095223 -0.08082315094733043270 2.15401833833437095223 2.15401833833437095223 -0.08082315094733043270 6.62370131689777341677 -2.31566464022903151232 -0.08082315094733043270 4.38885982761607174041 -2.31566464022903151232 -4.55050612951073230050 -0.08082315094733043270 6.62370131689777341677 2.15401833833437095223 2.15401833833437095223 2.15401833833437095223 4.38885982761607174041 -0.08082315094733043270 -0.08082315094733043270 -0.08082315094733043270 4.38885982761607174041 2.15401833833437095223 -4.55050612951073230050 2.15401833833437095223 -0.08082315094733043270 2.15401833833437095223 4.38885982761607174041 2.15401833833437095223 2.15401833833437095223 -0.08082315094733043270 -0.08082315094733043270 2.15401833833437095223 -2.31566464022903151232 -0.08082315094733043270 2.15401833833437095223 6.62370131689777341677 4.38885982761607174041 -0.08082315094733043270 -2.31566464022903151232 2.15401833833437095223 -0.08082315094733043270 -2.31566464022903151232 -2.31566464022903151232 6.62370131689777341677 6.62370131689777341677 2.15401833833437095223 -0.08082315094733043270 2.15401833833437095223 4.38885982761607174041 -4.55050612951073230050 -0.08082315094733043270 8.85854280617947331677 2.15401833833437095223 -2.31566464022903151232 2.15401833833437095223 2.15401833833437095223 -0.08082315094733043270 4.38885982761607174041 2.15401833833437095223 2.15401833833437095223 2.15401833833437095223 2.15401833833437095223 -0.08082315094733043270 -2.31566464022903151232 -4.55050612951073230050 4.38885982761607174041 2.15401833833437095223 -0.08082315094733043270 -0.08082315094733043270 -2.31566464022903151232 -0.08082315094733043270 2.15401833833437095223 -2.31566464022903151232 2.15401833833437095223 -0.08082315094733043270 4.38885982761607174041 2.15401833833437095223 -4.55050612951073230050 -0.08082315094733043270 -2.31566464022903151232 2.15401833833437095223 2.15401833833437095223 6.62370131689777341677 4.38885982761607174041 2.15401833833437095223 -2.31566464022903151232 2.15401833833437095223 2.15401833833437095223 6.62370131689777341677 2.15401833833437095223 4.38885982761607174041 2.15401833833437095223 -0.08082315094733043270 -0.08082315094733043270 -0.08082315094733043270 2.15401833833437095223 4.38885982761607174041 4.38885982761607174041 4.38885982761607174041 -0.08082315094733043270 -2.31566464022903151232 -2.31566464022903151232 4.38885982761607174041 2.15401833833437095223 2.15401833833437095223 2.15401833833437095223 -0.08082315094733043270 2.15401833833437095223 2.15401833833437095223 2.15401833833437095223 2.15401833833437095223 2.15401833833437095223 2.15401833833437095223 4.38885982761607174041 2.15401833833437095223 -2.31566464022903151232 -2.31566464022903151232 2.15401833833437095223 -0.08082315094733043270 -0.08082315094733043270 2.15401833833437095223 -4.55050612951073230050 -2.31566464022903151232 -0.08082315094733043270 -2.31566464022903151232 -0.08082315094733043270 -2.31566464022903151232 -2.31566464022903151232 -0.08082315094733043270 -2.31566464022903151232 -2.31566464022903151232 -2.31566464022903151232 -2.31566464022903151232 -4.55050612951073230050 -2.31566464022903151232 -0.08082315094733043270 -2.31566464022903151232 -2.31566464022903151232 -2.31566464022903151232 -2.31566464022903151232 -4.55050612951073230050 -2.31566464022903151232 -0.08082315094733043270 -2.31566464022903151232 -2.31566464022903151232 -4.55050612951073230050 -4.55050612951073230050 -4.55050612951073230050 -0.08082315094733043270 -2.31566464022903151232 -6.78534761879243397686 2.15401833833437095223 -0.08082315094733043270 -0.08082315094733043270 -0.08082315094733043270 -2.31566464022903151232 -0.08082315094733043270 -4.55050612951073230050 -2.31566464022903151232 -4.55050612951073230050 -2.31566464022903151232 -0.08082315094733043270 2.15401833833437095223 -0.08082315094733043270 -0.08082315094733043270 -2.31566464022903151232 -4.55050612951073230050 -2.31566464022903151232 -0.08082315094733043270 -4.55050612951073230050 -4.55050612951073230050 -0.08082315094733043270 -2.31566464022903151232 -4.55050612951073230050 -0.08082315094733043270 2.15401833833437095223 -2.31566464022903151232 2.15401833833437095223 -0.08082315094733043270 -2.31566464022903151232 -2.31566464022903151232 -2.31566464022903151232 -0.08082315094733043270 4.38885982761607174041 2.15401833833437095223 -0.08082315094733043270 -0.08082315094733043270 2.15401833833437095223 -2.31566464022903151232 -2.31566464022903151232 -6.78534761879243397686 -4.55050612951073230050 2.15401833833437095223 -2.31566464022903151232 -0.08082315094733043270 -2.31566464022903151232 -0.08082315094733043270 -0.08082315094733043270 -2.31566464022903151232 -0.08082315094733043270 -0.08082315094733043270 -0.08082315094733043270 -6.78534761879243397686 -2.31566464022903151232 -2.31566464022903151232 -6.78534761879243397686 -4.55050612951073230050 -4.55050612951073230050 4.38885982761607174041 -0.08082315094733043270 2.15401833833437095223 -2.31566464022903151232 -2.31566464022903151232 -4.55050612951073230050 -4.55050612951073230050 -4.55050612951073230050 -2.31566464022903151232 -4.55050612951073230050 -2.31566464022903151232 -0.08082315094733043270 -4.55050612951073230050 -4.55050612951073230050 -0.08082315094733043270 -2.31566464022903151232 -0.08082315094733043270 -0.08082315094733043270 2.15401833833437095223 2.15401833833437095223 2.15401833833437095223 -0.08082315094733043270 -0.08082315094733043270 -0.08082315094733043270 -2.31566464022903151232 2.15401833833437095223 2.15401833833437095223 -2.31566464022903151232 -2.31566464022903151232 -0.08082315094733043270 2.15401833833437095223 -2.31566464022903151232 -0.08082315094733043270 -0.08082315094733043270 4.38885982761607174041 -4.55050612951073230050 -0.08082315094733043270 -0.08082315094733043270 2.15401833833437095223 -0.08082315094733043270 4.38885982761607174041 6.62370131689777341677 4.38885982761607174041 -4.55050612951073230050 -0.08082315094733043270 -0.08082315094733043270 4.38885982761607174041 6.62370131689777341677 4.38885982761607174041 4.38885982761607174041 4.38885982761607174041 2.15401833833437095223 -4.55050612951073230050 -0.08082315094733043270 -0.08082315094733043270 -0.08082315094733043270 -0.08082315094733043270 2.15401833833437095223 4.38885982761607174041 -0.08082315094733043270 -2.31566464022903151232 -2.31566464022903151232 4.38885982761607174041 2.15401833833437095223 -0.08082315094733043270 2.15401833833437095223 4.38885982761607174041 4.38885982761607174041 -0.08082315094733043270 -0.08082315094733043270 4.38885982761607174041 -0.08082315094733043270 6.62370131689777341677 8.85854280617947331677 2.15401833833437095223 2.15401833833437095223 -0.08082315094733043270 -0.08082315094733043270 6.62370131689777341677 4.38885982761607174041 4.38885982761607174041 6.62370131689777341677 6.62370131689777341677 4.38885982761607174041 -0.08082315094733043270 2.15401833833437095223 4.38885982761607174041 4.38885982761607174041 6.62370131689777341677 6.62370131689777341677 4.38885982761607174041 2.15401833833437095223 -0.08082315094733043270 6.62370131689777341677 6.62370131689777341677 6.62370131689777341677 8.85854280617947331677 4.38885982761607174041 6.62370131689777341677 -2.31566464022903151232 4.38885982761607174041 6.62370131689777341677 8.85854280617947331677 8.85854280617947331677 11.09338429546117588131 4.38885982761607174041 8.85854280617947331677 2.15401833833437095223 2.15401833833437095223 8.85854280617947331677 11.09338429546117588131 6.62370131689777341677 8.85854280617947331677 6.62370131689777341677 6.62370131689777341677 2.15401833833437095223 6.62370131689777341677 2.15401833833437095223 8.85854280617947331677 8.85854280617947331677 4.38885982761607174041 11.09338429546117588131 4.38885982761607174041 4.38885982761607174041 8.85854280617947331677 4.38885982761607174041 8.85854280617947331677 8.85854280617947331677 6.62370131689777341677 6.62370131689777341677 11.09338429546117588131 6.62370131689777341677 6.62370131689777341677 8.85854280617947331677 6.62370131689777341677 6.62370131689777341677 8.85854280617947331677 8.85854280617947331677 8.85854280617947331677 8.85854280617947331677 11.09338429546117588131 8.85854280617947331677 6.62370131689777341677 6.62370131689777341677 6.62370131689777341677 11.09338429546117588131 6.62370131689777341677 6.62370131689777341677 4.38885982761607174041 4.38885982761607174041 4.38885982761607174041 8.85854280617947331677 2.15401833833437095223 8.85854280617947331677 6.62370131689777341677 6.62370131689777341677 2.15401833833437095223 4.38885982761607174041 4.38885982761607174041 4.38885982761607174041 4.38885982761607174041 2.15401833833437095223 2.15401833833437095223 4.38885982761607174041 6.62370131689777341677 6.62370131689777341677 8.85854280617947331677 2.15401833833437095223 6.62370131689777341677 2.15401833833437095223 4.38885982761607174041 -0.08082315094733043270 -0.08082315094733043270 2.15401833833437095223 2.15401833833437095223 6.62370131689777341677 -0.08082315094733043270 -2.31566464022903151232 4.38885982761607174041 2.15401833833437095223 -0.08082315094733043270 -0.08082315094733043270 2.15401833833437095223 -0.08082315094733043270 2.15401833833437095223 -2.31566464022903151232 -2.31566464022903151232 -2.31566464022903151232 -2.31566464022903151232 2.15401833833437095223 -0.08082315094733043270 4.38885982761607174041 2.15401833833437095223 -0.08082315094733043270 2.15401833833437095223 -0.08082315094733043270 -0.08082315094733043270 -2.31566464022903151232 -2.31566464022903151232 4.38885982761607174041 4.38885982761607174041 4.38885982761607174041 -4.55050612951073230050 -0.08082315094733043270 -0.08082315094733043270 -2.31566464022903151232 -4.55050612951073230050 -2.31566464022903151232 -0.08082315094733043270 2.15401833833437095223 -4.55050612951073230050 -0.08082315094733043270 -2.31566464022903151232 -0.08082315094733043270 2.15401833833437095223 2.15401833833437095223 -0.08082315094733043270 -0.08082315094733043270 -0.08082315094733043270 -2.31566464022903151232 8.85854280617947331677 4.38885982761607174041 4.38885982761607174041 2.15401833833437095223 4.38885982761607174041 2.15401833833437095223 2.15401833833437095223 2.15401833833437095223 4.38885982761607174041 -0.08082315094733043270 4.38885982761607174041 2.15401833833437095223 2.15401833833437095223 -0.08082315094733043270 2.15401833833437095223 4.38885982761607174041 4.38885982761607174041 4.38885982761607174041 -0.08082315094733043270 2.15401833833437095223 2.15401833833437095223 6.62370131689777341677 2.15401833833437095223 6.62370131689777341677 4.38885982761607174041 4.38885982761607174041 -0.08082315094733043270 -0.08082315094733043270 -0.08082315094733043270 2.15401833833437095223 4.38885982761607174041 -0.08082315094733043270 6.62370131689777341677 4.38885982761607174041 -0.08082315094733043270 -0.08082315094733043270 -2.31566464022903151232 2.15401833833437095223 2.15401833833437095223 2.15401833833437095223 2.15401833833437095223 -0.08082315094733043270 4.38885982761607174041 -0.08082315094733043270 4.38885982761607174041 2.15401833833437095223 -0.08082315094733043270 4.38885982761607174041 2.15401833833437095223 2.15401833833437095223 6.62370131689777341677 2.15401833833437095223 2.15401833833437095223 4.38885982761607174041 4.38885982761607174041 -0.08082315094733043270 4.38885982761607174041 -0.08082315094733043270 4.38885982761607174041 6.62370131689777341677 4.38885982761607174041 -4.55050612951073230050 -4.55050612951073230050 4.38885982761607174041 4.38885982761607174041 4.38885982761607174041 2.15401833833437095223 2.15401833833437095223 -0.08082315094733043270 4.38885982761607174041 2.15401833833437095223 -2.31566464022903151232 4.38885982761607174041 -0.08082315094733043270 -0.08082315094733043270 -0.08082315094733043270 -0.08082315094733043270 4.38885982761607174041 2.15401833833437095223 -0.08082315094733043270 -0.08082315094733043270 -2.31566464022903151232 2.15401833833437095223 -0.08082315094733043270 2.15401833833437095223 2.15401833833437095223 -0.08082315094733043270 -4.55050612951073230050 -4.55050612951073230050 -2.31566464022903151232 -0.08082315094733043270 -4.55050612951073230050 -4.55050612951073230050 -2.31566464022903151232 -4.55050612951073230050 -4.55050612951073230050 -6.78534761879243397686 -2.31566464022903151232 2.15401833833437095223 -2.31566464022903151232 2.15401833833437095223 -4.55050612951073230050 -6.78534761879243397686 -4.55050612951073230050 -4.55050612951073230050 -2.31566464022903151232 -0.08082315094733043270 -2.31566464022903151232 -4.55050612951073230050 -6.78534761879243397686 -6.78534761879243397686 -4.55050612951073230050 -0.08082315094733043270 -4.55050612951073230050 -4.55050612951073230050 -6.78534761879243397686 -0.08082315094733043270 -6.78534761879243397686 -6.78534761879243397686 -6.78534761879243397686 -6.78534761879243397686 -6.78534761879243397686 -2.31566464022903151232 -4.55050612951073230050 -4.55050612951073230050 -4.55050612951073230050 -4.55050612951073230050 -6.78534761879243397686 -2.31566464022903151232 -0.08082315094733043270 -2.31566464022903151232 -2.31566464022903151232 -4.55050612951073230050 -6.78534761879243397686 -4.55050612951073230050 -2.31566464022903151232 -6.78534761879243397686 -0.08082315094733043270 -6.78534761879243397686 -6.78534761879243397686 -2.31566464022903151232 -4.55050612951073230050 -6.78534761879243397686 -2.31566464022903151232 -2.31566464022903151232 -4.55050612951073230050 -2.31566464022903151232 -4.55050612951073230050 -2.31566464022903151232 -4.55050612951073230050 -0.08082315094733043270 -2.31566464022903151232 -0.08082315094733043270 -0.08082315094733043270 -4.55050612951073230050 -4.55050612951073230050 -2.31566464022903151232 -4.55050612951073230050 -4.55050612951073230050 -2.31566464022903151232 -0.08082315094733043270 -0.08082315094733043270 -2.31566464022903151232 2.15401833833437095223 -0.08082315094733043270 2.15401833833437095223 -2.31566464022903151232 -0.08082315094733043270 -0.08082315094733043270 -0.08082315094733043270 -0.08082315094733043270 2.15401833833437095223 4.38885982761607174041 2.15401833833437095223 -0.08082315094733043270 2.15401833833437095223 -4.55050612951073230050 2.15401833833437095223 -0.08082315094733043270 4.38885982761607174041 -2.31566464022903151232 2.15401833833437095223 4.38885982761607174041 2.15401833833437095223 4.38885982761607174041 2.15401833833437095223 -2.31566464022903151232 -0.08082315094733043270 2.15401833833437095223 -2.31566464022903151232 2.15401833833437095223 2.15401833833437095223 4.38885982761607174041 -0.08082315094733043270 -0.08082315094733043270 -2.31566464022903151232 -0.08082315094733043270 -2.31566464022903151232 2.15401833833437095223 -0.08082315094733043270 -0.08082315094733043270 -2.31566464022903151232 -0.08082315094733043270 -0.08082315094733043270 2.15401833833437095223 -2.31566464022903151232 2.15401833833437095223 -4.55050612951073230050 -2.31566464022903151232 -4.55050612951073230050 2.15401833833437095223 2.15401833833437095223 -0.08082315094733043270 -0.08082315094733043270 -2.31566464022903151232 -2.31566464022903151232 -2.31566464022903151232 -4.55050612951073230050 -2.31566464022903151232 2.15401833833437095223 -4.55050612951073230050 -2.31566464022903151232 -0.08082315094733043270 -2.31566464022903151232 -6.78534761879243397686 -4.55050612951073230050 -4.55050612951073230050 2.15401833833437095223 -0.08082315094733043270 4.38885982761607174041 -2.31566464022903151232 -2.31566464022903151232 -2.31566464022903151232 -4.55050612951073230050 -0.08082315094733043270 -0.08082315094733043270 -0.08082315094733043270 -0.08082315094733043270 -0.08082315094733043270 -0.08082315094733043270 -4.55050612951073230050 -0.08082315094733043270 -0.08082315094733043270 -2.31566464022903151232 -2.31566464022903151232 -4.55050612951073230050 -4.55050612951073230050 -6.78534761879243397686 -0.08082315094733043270 -0.08082315094733043270 2.15401833833437095223 2.15401833833437095223 -0.08082315094733043270 -4.55050612951073230050 -4.55050612951073230050 -0.08082315094733043270 2.15401833833437095223 4.38885982761607174041 6.62370131689777341677 -0.08082315094733043270 2.15401833833437095223 -0.08082315094733043270 -0.08082315094733043270 -2.31566464022903151232 -2.31566464022903151232 2.15401833833437095223 -0.08082315094733043270 4.38885982761607174041 -0.08082315094733043270 2.15401833833437095223 -2.31566464022903151232 2.15401833833437095223 -0.08082315094733043270 2.15401833833437095223 2.15401833833437095223 2.15401833833437095223 -0.08082315094733043270 -0.08082315094733043270 -0.08082315094733043270 -4.55050612951073230050 -2.31566464022903151232 -0.08082315094733043270 2.15401833833437095223 -0.08082315094733043270 -2.31566464022903151232 -0.08082315094733043270 -0.08082315094733043270 2.15401833833437095223 2.15401833833437095223 4.38885982761607174041 2.15401833833437095223 4.38885982761607174041 4.38885982761607174041 2.15401833833437095223 2.15401833833437095223 2.15401833833437095223 -2.31566464022903151232 2.15401833833437095223 4.38885982761607174041 4.38885982761607174041 2.15401833833437095223 2.15401833833437095223 2.15401833833437095223 8.85854280617947331677 4.38885982761607174041 8.85854280617947331677 4.38885982761607174041 2.15401833833437095223 2.15401833833437095223 -0.08082315094733043270 -0.08082315094733043270 6.62370131689777341677 6.62370131689777341677 2.15401833833437095223 2.15401833833437095223 2.15401833833437095223 2.15401833833437095223 4.38885982761607174041 2.15401833833437095223 -0.08082315094733043270 6.62370131689777341677 6.62370131689777341677 -0.08082315094733043270 2.15401833833437095223 4.38885982761607174041 8.85854280617947331677 6.62370131689777341677 6.62370131689777341677 4.38885982761607174041 8.85854280617947331677 4.38885982761607174041 2.15401833833437095223 2.15401833833437095223 2.15401833833437095223 4.38885982761607174041 6.62370131689777341677 4.38885982761607174041 4.38885982761607174041 -2.31566464022903151232 4.38885982761607174041 2.15401833833437095223 8.85854280617947331677 8.85854280617947331677 6.62370131689777341677 6.62370131689777341677 2.15401833833437095223 -0.08082315094733043270 2.15401833833437095223 2.15401833833437095223 4.38885982761607174041 4.38885982761607174041 2.15401833833437095223 -0.08082315094733043270 2.15401833833437095223 4.38885982761607174041 2.15401833833437095223 2.15401833833437095223 6.62370131689777341677 2.15401833833437095223 4.38885982761607174041 -0.08082315094733043270 -2.31566464022903151232 2.15401833833437095223 2.15401833833437095223 -2.31566464022903151232 2.15401833833437095223 4.38885982761607174041 -0.08082315094733043270 -4.55050612951073230050 -4.55050612951073230050 -0.08082315094733043270 -2.31566464022903151232 2.15401833833437095223 -2.31566464022903151232 -0.08082315094733043270 -2.31566464022903151232 4.38885982761607174041 -0.08082315094733043270 -0.08082315094733043270 4.38885982761607174041 2.15401833833437095223 -0.08082315094733043270 4.38885982761607174041 2.15401833833437095223 -0.08082315094733043270 2.15401833833437095223 2.15401833833437095223 2.15401833833437095223 2.15401833833437095223 -0.08082315094733043270 -4.55050612951073230050 4.38885982761607174041 6.62370131689777341677 2.15401833833437095223 4.38885982761607174041 2.15401833833437095223 -0.08082315094733043270 2.15401833833437095223 4.38885982761607174041 2.15401833833437095223 2.15401833833437095223 2.15401833833437095223 6.62370131689777341677 4.38885982761607174041 4.38885982761607174041 4.38885982761607174041 6.62370131689777341677 2.15401833833437095223 2.15401833833437095223 2.15401833833437095223 6.62370131689777341677 4.38885982761607174041 6.62370131689777341677 4.38885982761607174041 2.15401833833437095223 2.15401833833437095223 6.62370131689777341677 -0.08082315094733043270 -0.08082315094733043270 8.85854280617947331677 4.38885982761607174041 2.15401833833437095223 -0.08082315094733043270 -2.31566464022903151232 -0.08082315094733043270 -0.08082315094733043270 -0.08082315094733043270 -0.08082315094733043270 6.62370131689777341677 2.15401833833437095223 2.15401833833437095223 -2.31566464022903151232 2.15401833833437095223 -4.55050612951073230050 2.15401833833437095223 -0.08082315094733043270 2.15401833833437095223 -0.08082315094733043270 -0.08082315094733043270 -4.55050612951073230050 -4.55050612951073230050 -2.31566464022903151232 -0.08082315094733043270 -0.08082315094733043270 2.15401833833437095223 2.15401833833437095223 -2.31566464022903151232 -2.31566464022903151232 -0.08082315094733043270 -4.55050612951073230050 -0.08082315094733043270 -2.31566464022903151232 -4.55050612951073230050 -0.08082315094733043270 -0.08082315094733043270 -2.31566464022903151232 -4.55050612951073230050 -0.08082315094733043270 -2.31566464022903151232 -0.08082315094733043270 -2.31566464022903151232 -6.78534761879243397686 -2.31566464022903151232 -0.08082315094733043270 -0.08082315094733043270 -0.08082315094733043270 -0.08082315094733043270 -0.08082315094733043270 -4.55050612951073230050 -0.08082315094733043270 -0.08082315094733043270 -0.08082315094733043270 -2.31566464022903151232 -4.55050612951073230050 -4.55050612951073230050 -2.31566464022903151232 -0.08082315094733043270 -2.31566464022903151232 -0.08082315094733043270 4.38885982761607174041 -6.78534761879243397686 -4.55050612951073230050 -2.31566464022903151232 -2.31566464022903151232 2.15401833833437095223 -0.08082315094733043270 -2.31566464022903151232 -4.55050612951073230050 -4.55050612951073230050 2.15401833833437095223 2.15401833833437095223 -0.08082315094733043270 -0.08082315094733043270 -0.08082315094733043270 2.15401833833437095223 -0.08082315094733043270 4.38885982761607174041 2.15401833833437095223 6.62370131689777341677 2.15401833833437095223 -0.08082315094733043270 2.15401833833437095223 -0.08082315094733043270 2.15401833833437095223 6.62370131689777341677 4.38885982761607174041 -0.08082315094733043270 2.15401833833437095223 2.15401833833437095223 -0.08082315094733043270 2.15401833833437095223 4.38885982761607174041 4.38885982761607174041 11.09338429546117588131 4.38885982761607174041 6.62370131689777341677 2.15401833833437095223 -0.08082315094733043270 -0.08082315094733043270 8.85854280617947331677 6.62370131689777341677 4.38885982761607174041 4.38885982761607174041 6.62370131689777341677 2.15401833833437095223 4.38885982761607174041 2.15401833833437095223 8.85854280617947331677 4.38885982761607174041 4.38885982761607174041 2.15401833833437095223 2.15401833833437095223 -2.31566464022903151232 2.15401833833437095223 4.38885982761607174041 2.15401833833437095223 4.38885982761607174041 2.15401833833437095223 4.38885982761607174041 -0.08082315094733043270 -4.55050612951073230050 -4.55050612951073230050 2.15401833833437095223 2.15401833833437095223 -2.31566464022903151232 -0.08082315094733043270 2.15401833833437095223 -4.55050612951073230050 -6.78534761879243397686 -2.31566464022903151232 -2.31566464022903151232 2.15401833833437095223 2.15401833833437095223 -2.31566464022903151232 -0.08082315094733043270 -0.08082315094733043270 -0.08082315094733043270 -0.08082315094733043270 2.15401833833437095223 -2.31566464022903151232 -0.08082315094733043270 -2.31566464022903151232 -2.31566464022903151232 -2.31566464022903151232 -4.55050612951073230050 -0.08082315094733043270 -2.31566464022903151232 -2.31566464022903151232 2.15401833833437095223 -2.31566464022903151232 -4.55050612951073230050 -6.78534761879243397686 -4.55050612951073230050 -4.55050612951073230050 -2.31566464022903151232 -0.08082315094733043270 -2.31566464022903151232 -4.55050612951073230050 -2.31566464022903151232 -4.55050612951073230050 -4.55050612951073230050 -6.78534761879243397686 -0.08082315094733043270 -0.08082315094733043270 -0.08082315094733043270 -0.08082315094733043270 -0.08082315094733043270 -4.55050612951073230050 -6.78534761879243397686 -4.55050612951073230050 -2.31566464022903151232 -0.08082315094733043270 -0.08082315094733043270 -2.31566464022903151232 -4.55050612951073230050 -0.08082315094733043270 -0.08082315094733043270 -0.08082315094733043270 -2.31566464022903151232 -0.08082315094733043270 -2.31566464022903151232 -2.31566464022903151232 -4.55050612951073230050 -2.31566464022903151232 -2.31566464022903151232 -0.08082315094733043270 -2.31566464022903151232 -2.31566464022903151232 2.15401833833437095223 2.15401833833437095223 2.15401833833437095223 -2.31566464022903151232 -0.08082315094733043270 2.15401833833437095223 -0.08082315094733043270 -0.08082315094733043270 2.15401833833437095223 2.15401833833437095223 2.15401833833437095223 -0.08082315094733043270 2.15401833833437095223 -4.55050612951073230050 2.15401833833437095223 4.38885982761607174041 6.62370131689777341677 6.62370131689777341677 -0.08082315094733043270 4.38885982761607174041 4.38885982761607174041 4.38885982761607174041 2.15401833833437095223 2.15401833833437095223 4.38885982761607174041 2.15401833833437095223 2.15401833833437095223 -0.08082315094733043270 -0.08082315094733043270 -4.55050612951073230050 2.15401833833437095223 2.15401833833437095223 2.15401833833437095223 2.15401833833437095223 2.15401833833437095223 -2.31566464022903151232 2.15401833833437095223 6.62370131689777341677 2.15401833833437095223 2.15401833833437095223 4.38885982761607174041 -0.08082315094733043270 2.15401833833437095223 -0.08082315094733043270 -0.08082315094733043270 -6.78534761879243397686 -0.08082315094733043270 -0.08082315094733043270 -0.08082315094733043270 -0.08082315094733043270 -2.31566464022903151232 -0.08082315094733043270 -0.08082315094733043270 -4.55050612951073230050 -4.55050612951073230050 -4.55050612951073230050 2.15401833833437095223 -0.08082315094733043270 2.15401833833437095223 -2.31566464022903151232 -4.55050612951073230050 2.15401833833437095223 -2.31566464022903151232 -0.08082315094733043270 -0.08082315094733043270 -2.31566464022903151232 -2.31566464022903151232 -2.31566464022903151232 -6.78534761879243397686 -2.31566464022903151232 -0.08082315094733043270 -0.08082315094733043270 -2.31566464022903151232 -4.55050612951073230050 -2.31566464022903151232 -4.55050612951073230050 -2.31566464022903151232 -2.31566464022903151232 -0.08082315094733043270 -2.31566464022903151232 -2.31566464022903151232 -4.55050612951073230050 -2.31566464022903151232 -4.55050612951073230050 2.15401833833437095223 -2.31566464022903151232 2.15401833833437095223 -2.31566464022903151232 -0.08082315094733043270 -2.31566464022903151232 -2.31566464022903151232 -2.31566464022903151232 -2.31566464022903151232 -2.31566464022903151232 -2.31566464022903151232 -2.31566464022903151232 -9.02018910807413654140 -4.55050612951073230050 -2.31566464022903151232 -4.55050612951073230050 -2.31566464022903151232 -0.08082315094733043270 -0.08082315094733043270 -0.08082315094733043270 -2.31566464022903151232 -0.08082315094733043270 -4.55050612951073230050 -2.31566464022903151232 -0.08082315094733043270 -2.31566464022903151232 -2.31566464022903151232 -2.31566464022903151232 -2.31566464022903151232 -0.08082315094733043270 -4.55050612951073230050 -2.31566464022903151232 -4.55050612951073230050 -2.31566464022903151232 -9.02018910807413654140 -4.55050612951073230050 -9.02018910807413654140 -2.31566464022903151232 -2.31566464022903151232 -4.55050612951073230050 -4.55050612951073230050 -4.55050612951073230050 -9.02018910807413654140 -4.55050612951073230050 -9.02018910807413654140 -9.02018910807413654140 -6.78534761879243397686 -6.78534761879243397686 -4.55050612951073230050 -9.02018910807413654140 -9.02018910807413654140 -6.78534761879243397686 -11.25503059735583910594 -4.55050612951073230050 -6.78534761879243397686 -6.78534761879243397686 -2.31566464022903151232 -9.02018910807413654140 -4.55050612951073230050 -11.25503059735583910594 -6.78534761879243397686 -6.78534761879243397686 -4.55050612951073230050 -4.55050612951073230050 -6.78534761879243397686 -4.55050612951073230050 -4.55050612951073230050 -2.31566464022903151232 -9.02018910807413654140 -6.78534761879243397686 -2.31566464022903151232 -4.55050612951073230050 -4.55050612951073230050 -4.55050612951073230050 -4.55050612951073230050 -2.31566464022903151232 -4.55050612951073230050 -0.08082315094733043270 -0.08082315094733043270 -2.31566464022903151232 -0.08082315094733043270 -0.08082315094733043270 -6.78534761879243397686 -0.08082315094733043270 -2.31566464022903151232 -0.08082315094733043270 -2.31566464022903151232 -0.08082315094733043270 -0.08082315094733043270 -0.08082315094733043270 -2.31566464022903151232 -2.31566464022903151232 2.15401833833437095223 2.15401833833437095223 -0.08082315094733043270 -0.08082315094733043270 -0.08082315094733043270 -2.31566464022903151232 2.15401833833437095223 -0.08082315094733043270 4.38885982761607174041 -2.31566464022903151232 -2.31566464022903151232 -2.31566464022903151232 -2.31566464022903151232 -4.55050612951073230050 -0.08082315094733043270 -0.08082315094733043270 2.15401833833437095223 -0.08082315094733043270 -0.08082315094733043270 -2.31566464022903151232 -0.08082315094733043270 -2.31566464022903151232 -4.55050612951073230050 -0.08082315094733043270 -0.08082315094733043270 -2.31566464022903151232 -0.08082315094733043270 -2.31566464022903151232 -2.31566464022903151232 -4.55050612951073230050 2.15401833833437095223 -2.31566464022903151232 -0.08082315094733043270 -0.08082315094733043270 2.15401833833437095223 -4.55050612951073230050 -0.08082315094733043270 -0.08082315094733043270 2.15401833833437095223 2.15401833833437095223 4.38885982761607174041 -0.08082315094733043270 4.38885982761607174041 -0.08082315094733043270 2.15401833833437095223 -0.08082315094733043270 -0.08082315094733043270 -0.08082315094733043270 2.15401833833437095223 -2.31566464022903151232 -0.08082315094733043270 -0.08082315094733043270 -4.55050612951073230050 -0.08082315094733043270 2.15401833833437095223 -0.08082315094733043270 4.38885982761607174041 -2.31566464022903151232 2.15401833833437095223 -2.31566464022903151232 -4.55050612951073230050 -0.08082315094733043270 2.15401833833437095223 4.38885982761607174041 4.38885982761607174041 4.38885982761607174041 -0.08082315094733043270 -2.31566464022903151232 -2.31566464022903151232 4.38885982761607174041 2.15401833833437095223 4.38885982761607174041 -0.08082315094733043270 -2.31566464022903151232 -0.08082315094733043270 -2.31566464022903151232 -0.08082315094733043270 -0.08082315094733043270 4.38885982761607174041 -0.08082315094733043270 -0.08082315094733043270 2.15401833833437095223 -2.31566464022903151232 -0.08082315094733043270 2.15401833833437095223 2.15401833833437095223 4.38885982761607174041 2.15401833833437095223 2.15401833833437095223 -0.08082315094733043270 -0.08082315094733043270 -2.31566464022903151232 4.38885982761607174041 2.15401833833437095223 2.15401833833437095223 2.15401833833437095223 2.15401833833437095223 -2.31566464022903151232 -2.31566464022903151232 -2.31566464022903151232 4.38885982761607174041 2.15401833833437095223 -0.08082315094733043270 2.15401833833437095223 -2.31566464022903151232 -2.31566464022903151232 -0.08082315094733043270 2.15401833833437095223 4.38885982761607174041 4.38885982761607174041 4.38885982761607174041 2.15401833833437095223 -2.31566464022903151232 2.15401833833437095223 2.15401833833437095223 4.38885982761607174041 2.15401833833437095223 -0.08082315094733043270 -2.31566464022903151232 -2.31566464022903151232 -2.31566464022903151232 -2.31566464022903151232 -0.08082315094733043270 -0.08082315094733043270 -0.08082315094733043270 -0.08082315094733043270 -0.08082315094733043270 2.15401833833437095223 2.15401833833437095223 2.15401833833437095223 2.15401833833437095223 2.15401833833437095223 -2.31566464022903151232 2.15401833833437095223 2.15401833833437095223 2.15401833833437095223 -0.08082315094733043270 2.15401833833437095223 4.38885982761607174041 2.15401833833437095223 -0.08082315094733043270 2.15401833833437095223 -0.08082315094733043270 6.62370131689777341677 2.15401833833437095223 4.38885982761607174041 2.15401833833437095223 -0.08082315094733043270 2.15401833833437095223 4.38885982761607174041 4.38885982761607174041 2.15401833833437095223 4.38885982761607174041 -0.08082315094733043270 4.38885982761607174041 -2.31566464022903151232 6.62370131689777341677 4.38885982761607174041 2.15401833833437095223 -0.08082315094733043270 4.38885982761607174041 -0.08082315094733043270 -2.31566464022903151232 -2.31566464022903151232 -0.08082315094733043270 2.15401833833437095223 2.15401833833437095223 2.15401833833437095223 -2.31566464022903151232 -2.31566464022903151232 2.15401833833437095223 2.15401833833437095223 2.15401833833437095223 2.15401833833437095223 2.15401833833437095223 -2.31566464022903151232 -2.31566464022903151232 -2.31566464022903151232 2.15401833833437095223 -0.08082315094733043270 -0.08082315094733043270 -0.08082315094733043270 -2.31566464022903151232 -2.31566464022903151232 2.15401833833437095223 4.38885982761607174041 -2.31566464022903151232 -0.08082315094733043270 2.15401833833437095223 -0.08082315094733043270 -2.31566464022903151232 -0.08082315094733043270 -4.55050612951073230050 -0.08082315094733043270 2.15401833833437095223 -2.31566464022903151232 -2.31566464022903151232 -2.31566464022903151232 2.15401833833437095223 2.15401833833437095223 -0.08082315094733043270 -2.31566464022903151232 -2.31566464022903151232 2.15401833833437095223 -6.78534761879243397686 -2.31566464022903151232 2.15401833833437095223 -0.08082315094733043270 -0.08082315094733043270 -4.55050612951073230050 -6.78534761879243397686 -4.55050612951073230050 -4.55050612951073230050 -4.55050612951073230050 -6.78534761879243397686 -4.55050612951073230050 -4.55050612951073230050 -6.78534761879243397686 -9.02018910807413654140 -6.78534761879243397686 -6.78534761879243397686 -4.55050612951073230050 -4.55050612951073230050 -2.31566464022903151232 -4.55050612951073230050 -4.55050612951073230050 -2.31566464022903151232 -6.78534761879243397686 -2.31566464022903151232 -4.55050612951073230050 -0.08082315094733043270 -2.31566464022903151232 -6.78534761879243397686 -4.55050612951073230050 -6.78534761879243397686 -6.78534761879243397686 -4.55050612951073230050 -2.31566464022903151232 -4.55050612951073230050 -2.31566464022903151232 -4.55050612951073230050 -4.55050612951073230050 -6.78534761879243397686 -4.55050612951073230050 -6.78534761879243397686 -0.08082315094733043270 -6.78534761879243397686 -6.78534761879243397686 -2.31566464022903151232 -4.55050612951073230050 -6.78534761879243397686 -4.55050612951073230050 -6.78534761879243397686 -0.08082315094733043270 -2.31566464022903151232 -4.55050612951073230050 -4.55050612951073230050 -2.31566464022903151232 -6.78534761879243397686 -4.55050612951073230050 -2.31566464022903151232 -4.55050612951073230050 -2.31566464022903151232 -4.55050612951073230050 -4.55050612951073230050 -4.55050612951073230050 -0.08082315094733043270 -4.55050612951073230050 -4.55050612951073230050 -0.08082315094733043270 2.15401833833437095223 -2.31566464022903151232 -4.55050612951073230050 -2.31566464022903151232 -2.31566464022903151232 -6.78534761879243397686 -9.02018910807413654140 -0.08082315094733043270 2.15401833833437095223 -2.31566464022903151232 -2.31566464022903151232 -4.55050612951073230050 -4.55050612951073230050 -6.78534761879243397686 -2.31566464022903151232 -2.31566464022903151232 -6.78534761879243397686 -0.08082315094733043270 -2.31566464022903151232 -2.31566464022903151232 -4.55050612951073230050 -4.55050612951073230050 -4.55050612951073230050 -0.08082315094733043270 -4.55050612951073230050 -0.08082315094733043270 -2.31566464022903151232 -4.55050612951073230050 -6.78534761879243397686 -2.31566464022903151232 -4.55050612951073230050 2.15401833833437095223 -0.08082315094733043270 -2.31566464022903151232 -2.31566464022903151232 -0.08082315094733043270 -2.31566464022903151232 -4.55050612951073230050 -0.08082315094733043270 -0.08082315094733043270 2.15401833833437095223 -2.31566464022903151232 -2.31566464022903151232 -2.31566464022903151232 -0.08082315094733043270 -0.08082315094733043270 2.15401833833437095223 4.38885982761607174041 -0.08082315094733043270 4.38885982761607174041 -2.31566464022903151232 2.15401833833437095223 2.15401833833437095223 4.38885982761607174041 2.15401833833437095223 -0.08082315094733043270 2.15401833833437095223 -0.08082315094733043270 -0.08082315094733043270 -0.08082315094733043270 -0.08082315094733043270 8.85854280617947331677 4.38885982761607174041 6.62370131689777341677 2.15401833833437095223 4.38885982761607174041 -4.55050612951073230050 2.15401833833437095223 4.38885982761607174041 6.62370131689777341677 4.38885982761607174041 4.38885982761607174041 2.15401833833437095223 -2.31566464022903151232 2.15401833833437095223 2.15401833833437095223 6.62370131689777341677 4.38885982761607174041 2.15401833833437095223 2.15401833833437095223 2.15401833833437095223 4.38885982761607174041 4.38885982761607174041 -0.08082315094733043270 2.15401833833437095223 4.38885982761607174041 -2.31566464022903151232 -0.08082315094733043270 -0.08082315094733043270 2.15401833833437095223 2.15401833833437095223 -0.08082315094733043270 2.15401833833437095223 4.38885982761607174041 -0.08082315094733043270 -0.08082315094733043270 -2.31566464022903151232 4.38885982761607174041 2.15401833833437095223 4.38885982761607174041 4.38885982761607174041 -0.08082315094733043270 2.15401833833437095223 6.62370131689777341677 2.15401833833437095223 6.62370131689777341677 4.38885982761607174041 -0.08082315094733043270 4.38885982761607174041 2.15401833833437095223 2.15401833833437095223 2.15401833833437095223 8.85854280617947331677 6.62370131689777341677 6.62370131689777341677 4.38885982761607174041 2.15401833833437095223 2.15401833833437095223 2.15401833833437095223 4.38885982761607174041 2.15401833833437095223 4.38885982761607174041 2.15401833833437095223 4.38885982761607174041 2.15401833833437095223 4.38885982761607174041 6.62370131689777341677 4.38885982761607174041 4.38885982761607174041 6.62370131689777341677 6.62370131689777341677 4.38885982761607174041 4.38885982761607174041 6.62370131689777341677 8.85854280617947331677 8.85854280617947331677 6.62370131689777341677 6.62370131689777341677 6.62370131689777341677 2.15401833833437095223 6.62370131689777341677 4.38885982761607174041 6.62370131689777341677 6.62370131689777341677 6.62370131689777341677 8.85854280617947331677 6.62370131689777341677 6.62370131689777341677 8.85854280617947331677 8.85854280617947331677 8.85854280617947331677 11.09338429546117588131 6.62370131689777341677 4.38885982761607174041 4.38885982761607174041 4.38885982761607174041 8.85854280617947331677 6.62370131689777341677 11.09338429546117588131 8.85854280617947331677 6.62370131689777341677 4.38885982761607174041 4.38885982761607174041 13.32822578474287666950 17.79790876330627824586 15.56306727402457745768 17.79790876330627824586 22.26759174186968337494 17.79790876330627824586 20.03275025258798081040 17.79790876330627824586 20.03275025258798081040 20.03275025258798081040 17.79790876330627824586 22.26759174186968337494 15.56306727402457745768 15.56306727402457745768 13.32822578474287666950 17.79790876330627824586 24.50243323115138238677 17.79790876330627824586 17.79790876330627824586 15.56306727402457745768 11.09338429546117588131 20.03275025258798081040 15.56306727402457745768 13.32822578474287666950 11.09338429546117588131 15.56306727402457745768 13.32822578474287666950 15.56306727402457745768 15.56306727402457745768 15.56306727402457745768 17.79790876330627824586 15.56306727402457745768 15.56306727402457745768 13.32822578474287666950 11.09338429546117588131 15.56306727402457745768 17.79790876330627824586 13.32822578474287666950 15.56306727402457745768 15.56306727402457745768 15.56306727402457745768 11.09338429546117588131 13.32822578474287666950 15.56306727402457745768 11.09338429546117588131 13.32822578474287666950 17.79790876330627824586 17.79790876330627824586 8.85854280617947331677 17.79790876330627824586 17.79790876330627824586 13.32822578474287666950 13.32822578474287666950 13.32822578474287666950 11.09338429546117588131 15.56306727402457745768 13.32822578474287666950 20.03275025258798081040 17.79790876330627824586 20.03275025258798081040 13.32822578474287666950 13.32822578474287666950 20.03275025258798081040 17.79790876330627824586 15.56306727402457745768 15.56306727402457745768 15.56306727402457745768 15.56306727402457745768 15.56306727402457745768 17.79790876330627824586 17.79790876330627824586 17.79790876330627824586 22.26759174186968337494 20.03275025258798081040 20.03275025258798081040 17.79790876330627824586 17.79790876330627824586 17.79790876330627824586 8.85854280617947331677 13.32822578474287666950 15.56306727402457745768 15.56306727402457745768 11.09338429546117588131 15.56306727402457745768 20.03275025258798081040 13.32822578474287666950 8.85854280617947331677 13.32822578474287666950 13.32822578474287666950 15.56306727402457745768 11.09338429546117588131 13.32822578474287666950 13.32822578474287666950 13.32822578474287666950 15.56306727402457745768 13.32822578474287666950 13.32822578474287666950 13.32822578474287666950 17.79790876330627824586 13.32822578474287666950 6.62370131689777341677 11.09338429546117588131 13.32822578474287666950 13.32822578474287666950 13.32822578474287666950 13.32822578474287666950 8.85854280617947331677 13.32822578474287666950 15.56306727402457745768 13.32822578474287666950 11.09338429546117588131 8.85854280617947331677 8.85854280617947331677 11.09338429546117588131 6.62370131689777341677 13.32822578474287666950 8.85854280617947331677 11.09338429546117588131 11.09338429546117588131 11.09338429546117588131 8.85854280617947331677 15.56306727402457745768 15.56306727402457745768 8.85854280617947331677 6.62370131689777341677 8.85854280617947331677 11.09338429546117588131 11.09338429546117588131 11.09338429546117588131 13.32822578474287666950 11.09338429546117588131 8.85854280617947331677 8.85854280617947331677 6.62370131689777341677 8.85854280617947331677 11.09338429546117588131 8.85854280617947331677 4.38885982761607174041 4.38885982761607174041 8.85854280617947331677 4.38885982761607174041 11.09338429546117588131 8.85854280617947331677 11.09338429546117588131 6.62370131689777341677 4.38885982761607174041 15.56306727402457745768 8.85854280617947331677 6.62370131689777341677 6.62370131689777341677 8.85854280617947331677 8.85854280617947331677 11.09338429546117588131 11.09338429546117588131 11.09338429546117588131 6.62370131689777341677 11.09338429546117588131 6.62370131689777341677 11.09338429546117588131 8.85854280617947331677 8.85854280617947331677 8.85854280617947331677 6.62370131689777341677 11.09338429546117588131 11.09338429546117588131 11.09338429546117588131 6.62370131689777341677 8.85854280617947331677 8.85854280617947331677 6.62370131689777341677 4.38885982761607174041 6.62370131689777341677 6.62370131689777341677 8.85854280617947331677 6.62370131689777341677 6.62370131689777341677 13.32822578474287666950 4.38885982761607174041 8.85854280617947331677 4.38885982761607174041 8.85854280617947331677 4.38885982761607174041 2.15401833833437095223 6.62370131689777341677 13.32822578474287666950 6.62370131689777341677 8.85854280617947331677 6.62370131689777341677 4.38885982761607174041 4.38885982761607174041 11.09338429546117588131 11.09338429546117588131 4.38885982761607174041 2.15401833833437095223 4.38885982761607174041 4.38885982761607174041 6.62370131689777341677 6.62370131689777341677 8.85854280617947331677 6.62370131689777341677 2.15401833833437095223 4.38885982761607174041 4.38885982761607174041 8.85854280617947331677 4.38885982761607174041 4.38885982761607174041 4.38885982761607174041 4.38885982761607174041 4.38885982761607174041 4.38885982761607174041 6.62370131689777341677 2.15401833833437095223 2.15401833833437095223 4.38885982761607174041 4.38885982761607174041 8.85854280617947331677 4.38885982761607174041 4.38885982761607174041 2.15401833833437095223 6.62370131689777341677 6.62370131689777341677 6.62370131689777341677 6.62370131689777341677 6.62370131689777341677 4.38885982761607174041 4.38885982761607174041 8.85854280617947331677 8.85854280617947331677 4.38885982761607174041 4.38885982761607174041 6.62370131689777341677 11.09338429546117588131 8.85854280617947331677 8.85854280617947331677 4.38885982761607174041 6.62370131689777341677 4.38885982761607174041 6.62370131689777341677 8.85854280617947331677 2.15401833833437095223 4.38885982761607174041 4.38885982761607174041 4.38885982761607174041 -0.08082315094733043270 2.15401833833437095223 2.15401833833437095223 4.38885982761607174041 4.38885982761607174041 -0.08082315094733043270 2.15401833833437095223 -0.08082315094733043270 2.15401833833437095223 2.15401833833437095223 4.38885982761607174041 2.15401833833437095223 4.38885982761607174041 4.38885982761607174041 6.62370131689777341677 -0.08082315094733043270 -2.31566464022903151232 4.38885982761607174041 -0.08082315094733043270 -0.08082315094733043270 2.15401833833437095223 6.62370131689777341677 -0.08082315094733043270 4.38885982761607174041 -2.31566464022903151232 -2.31566464022903151232 2.15401833833437095223 -0.08082315094733043270 -2.31566464022903151232 -0.08082315094733043270 -2.31566464022903151232 -4.55050612951073230050 -4.55050612951073230050 -0.08082315094733043270 -0.08082315094733043270 2.15401833833437095223 -2.31566464022903151232 -4.55050612951073230050 -4.55050612951073230050 -0.08082315094733043270 -2.31566464022903151232 -2.31566464022903151232 -0.08082315094733043270 -0.08082315094733043270 -2.31566464022903151232 4.38885982761607174041 -2.31566464022903151232 -4.55050612951073230050 -0.08082315094733043270 -2.31566464022903151232 -4.55050612951073230050 -2.31566464022903151232 2.15401833833437095223 -0.08082315094733043270 -2.31566464022903151232 -0.08082315094733043270 -4.55050612951073230050 -2.31566464022903151232 -0.08082315094733043270 -0.08082315094733043270 -4.55050612951073230050 -0.08082315094733043270 -4.55050612951073230050 -0.08082315094733043270 -2.31566464022903151232 -2.31566464022903151232 -2.31566464022903151232 -0.08082315094733043270 -0.08082315094733043270 -0.08082315094733043270 -0.08082315094733043270 2.15401833833437095223 -0.08082315094733043270 -2.31566464022903151232 -2.31566464022903151232 2.15401833833437095223 -0.08082315094733043270 6.62370131689777341677 4.38885982761607174041 4.38885982761607174041 2.15401833833437095223 -0.08082315094733043270 4.38885982761607174041 6.62370131689777341677 2.15401833833437095223 2.15401833833437095223 -0.08082315094733043270 -0.08082315094733043270 4.38885982761607174041 2.15401833833437095223 4.38885982761607174041 6.62370131689777341677 4.38885982761607174041 2.15401833833437095223 6.62370131689777341677 2.15401833833437095223 2.15401833833437095223 2.15401833833437095223 6.62370131689777341677 2.15401833833437095223 8.85854280617947331677 4.38885982761607174041 2.15401833833437095223 4.38885982761607174041 -0.08082315094733043270 -2.31566464022903151232 2.15401833833437095223 6.62370131689777341677 2.15401833833437095223 4.38885982761607174041 4.38885982761607174041 2.15401833833437095223 6.62370131689777341677 -0.08082315094733043270 2.15401833833437095223 2.15401833833437095223 6.62370131689777341677 2.15401833833437095223 -0.08082315094733043270 4.38885982761607174041 6.62370131689777341677 2.15401833833437095223 2.15401833833437095223 4.38885982761607174041 2.15401833833437095223 2.15401833833437095223 2.15401833833437095223 4.38885982761607174041 4.38885982761607174041 2.15401833833437095223 -0.08082315094733043270 -2.31566464022903151232 2.15401833833437095223 4.38885982761607174041 2.15401833833437095223 2.15401833833437095223 2.15401833833437095223 -0.08082315094733043270 -0.08082315094733043270 2.15401833833437095223 -0.08082315094733043270 -0.08082315094733043270 2.15401833833437095223 -2.31566464022903151232 2.15401833833437095223 2.15401833833437095223 2.15401833833437095223 -0.08082315094733043270 -0.08082315094733043270 -4.55050612951073230050 -0.08082315094733043270 -0.08082315094733043270 4.38885982761607174041 -0.08082315094733043270 4.38885982761607174041 -2.31566464022903151232 -0.08082315094733043270 -0.08082315094733043270 2.15401833833437095223 6.62370131689777341677 4.38885982761607174041 2.15401833833437095223 -0.08082315094733043270 2.15401833833437095223 4.38885982761607174041 4.38885982761607174041 4.38885982761607174041 6.62370131689777341677 -0.08082315094733043270 -4.55050612951073230050 4.38885982761607174041 4.38885982761607174041 2.15401833833437095223 4.38885982761607174041 2.15401833833437095223 2.15401833833437095223 2.15401833833437095223 2.15401833833437095223 6.62370131689777341677 4.38885982761607174041 4.38885982761607174041 -0.08082315094733043270 -2.31566464022903151232 4.38885982761607174041 2.15401833833437095223 4.38885982761607174041 2.15401833833437095223 -2.31566464022903151232 4.38885982761607174041 6.62370131689777341677 6.62370131689777341677 4.38885982761607174041 4.38885982761607174041 4.38885982761607174041 2.15401833833437095223 2.15401833833437095223 6.62370131689777341677 2.15401833833437095223 -0.08082315094733043270 6.62370131689777341677 2.15401833833437095223 2.15401833833437095223 6.62370131689777341677 4.38885982761607174041 2.15401833833437095223 -0.08082315094733043270 -0.08082315094733043270 -0.08082315094733043270 -2.31566464022903151232 2.15401833833437095223 2.15401833833437095223 2.15401833833437095223 4.38885982761607174041 -4.55050612951073230050 -2.31566464022903151232 -0.08082315094733043270 -0.08082315094733043270 -0.08082315094733043270 -2.31566464022903151232 2.15401833833437095223 -2.31566464022903151232 -0.08082315094733043270 -2.31566464022903151232 2.15401833833437095223 -2.31566464022903151232 -4.55050612951073230050 -0.08082315094733043270 -2.31566464022903151232 -2.31566464022903151232 2.15401833833437095223 -4.55050612951073230050 -6.78534761879243397686 -2.31566464022903151232 -6.78534761879243397686 -2.31566464022903151232 -2.31566464022903151232 -2.31566464022903151232 -4.55050612951073230050 -2.31566464022903151232 -4.55050612951073230050 -2.31566464022903151232 -0.08082315094733043270 -0.08082315094733043270 -0.08082315094733043270 -0.08082315094733043270 -4.55050612951073230050 -2.31566464022903151232 -2.31566464022903151232 2.15401833833437095223 -4.55050612951073230050 -0.08082315094733043270 -2.31566464022903151232 -0.08082315094733043270 2.15401833833437095223 2.15401833833437095223 -0.08082315094733043270 -4.55050612951073230050 -2.31566464022903151232 -0.08082315094733043270 2.15401833833437095223 4.38885982761607174041 -2.31566464022903151232 2.15401833833437095223 -0.08082315094733043270 -4.55050612951073230050 -2.31566464022903151232 2.15401833833437095223 -0.08082315094733043270 2.15401833833437095223 2.15401833833437095223 -0.08082315094733043270 -2.31566464022903151232 4.38885982761607174041 -0.08082315094733043270 -2.31566464022903151232 2.15401833833437095223 2.15401833833437095223 2.15401833833437095223 -0.08082315094733043270 2.15401833833437095223 2.15401833833437095223 -0.08082315094733043270 -0.08082315094733043270 2.15401833833437095223 -2.31566464022903151232 2.15401833833437095223 -0.08082315094733043270 -0.08082315094733043270 -2.31566464022903151232 -4.55050612951073230050 -2.31566464022903151232 -0.08082315094733043270 2.15401833833437095223 -0.08082315094733043270 2.15401833833437095223 2.15401833833437095223 4.38885982761607174041 -2.31566464022903151232 -4.55050612951073230050 2.15401833833437095223 2.15401833833437095223 2.15401833833437095223 2.15401833833437095223 -2.31566464022903151232 -4.55050612951073230050 -0.08082315094733043270 6.62370131689777341677 2.15401833833437095223 2.15401833833437095223 -0.08082315094733043270 2.15401833833437095223 -0.08082315094733043270 -2.31566464022903151232 -0.08082315094733043270 2.15401833833437095223 2.15401833833437095223 2.15401833833437095223 -0.08082315094733043270 -0.08082315094733043270 2.15401833833437095223 -2.31566464022903151232 2.15401833833437095223 2.15401833833437095223 2.15401833833437095223 2.15401833833437095223 2.15401833833437095223 -0.08082315094733043270 2.15401833833437095223 -0.08082315094733043270 2.15401833833437095223 -2.31566464022903151232 -0.08082315094733043270 2.15401833833437095223 2.15401833833437095223 6.62370131689777341677 -0.08082315094733043270 4.38885982761607174041 4.38885982761607174041 2.15401833833437095223 4.38885982761607174041 2.15401833833437095223 6.62370131689777341677 -0.08082315094733043270 2.15401833833437095223 -0.08082315094733043270 -0.08082315094733043270 2.15401833833437095223 6.62370131689777341677 2.15401833833437095223 2.15401833833437095223 -0.08082315094733043270 -0.08082315094733043270 2.15401833833437095223 6.62370131689777341677 -0.08082315094733043270 2.15401833833437095223 2.15401833833437095223 4.38885982761607174041 4.38885982761607174041 4.38885982761607174041 4.38885982761607174041 4.38885982761607174041 4.38885982761607174041 6.62370131689777341677 4.38885982761607174041 2.15401833833437095223 2.15401833833437095223 2.15401833833437095223 4.38885982761607174041 2.15401833833437095223 4.38885982761607174041 4.38885982761607174041 2.15401833833437095223 4.38885982761607174041 2.15401833833437095223 8.85854280617947331677 4.38885982761607174041 6.62370131689777341677 4.38885982761607174041 -0.08082315094733043270 -0.08082315094733043270 4.38885982761607174041 2.15401833833437095223 4.38885982761607174041 4.38885982761607174041 4.38885982761607174041 2.15401833833437095223 2.15401833833437095223 4.38885982761607174041 2.15401833833437095223 4.38885982761607174041 2.15401833833437095223 4.38885982761607174041 4.38885982761607174041 2.15401833833437095223 -0.08082315094733043270 -2.31566464022903151232 2.15401833833437095223 2.15401833833437095223 2.15401833833437095223 2.15401833833437095223 -0.08082315094733043270 2.15401833833437095223 -2.31566464022903151232 -0.08082315094733043270 2.15401833833437095223 2.15401833833437095223 -2.31566464022903151232 -0.08082315094733043270 -2.31566464022903151232 -2.31566464022903151232 -0.08082315094733043270 2.15401833833437095223 2.15401833833437095223 -0.08082315094733043270 6.62370131689777341677 2.15401833833437095223 -2.31566464022903151232 6.62370131689777341677 -0.08082315094733043270 2.15401833833437095223 -0.08082315094733043270 -2.31566464022903151232 -2.31566464022903151232 -2.31566464022903151232 6.62370131689777341677 -0.08082315094733043270 -4.55050612951073230050 -4.55050612951073230050 -0.08082315094733043270 -0.08082315094733043270 -2.31566464022903151232 2.15401833833437095223 -0.08082315094733043270 -2.31566464022903151232 -2.31566464022903151232 4.38885982761607174041 -0.08082315094733043270 -4.55050612951073230050 2.15401833833437095223 4.38885982761607174041 2.15401833833437095223 -2.31566464022903151232 -0.08082315094733043270 -2.31566464022903151232 -0.08082315094733043270 -2.31566464022903151232 4.38885982761607174041 2.15401833833437095223 -0.08082315094733043270 2.15401833833437095223 -2.31566464022903151232 4.38885982761607174041 -0.08082315094733043270 2.15401833833437095223 -2.31566464022903151232 -0.08082315094733043270 -2.31566464022903151232 2.15401833833437095223 2.15401833833437095223 -2.31566464022903151232 4.38885982761607174041 -2.31566464022903151232 -2.31566464022903151232 4.38885982761607174041 4.38885982761607174041 -2.31566464022903151232 -0.08082315094733043270 -4.55050612951073230050 -4.55050612951073230050 -2.31566464022903151232 -0.08082315094733043270 -4.55050612951073230050 -4.55050612951073230050 -0.08082315094733043270 -2.31566464022903151232 -0.08082315094733043270 -2.31566464022903151232 -2.31566464022903151232 2.15401833833437095223 2.15401833833437095223 -0.08082315094733043270 -0.08082315094733043270 -6.78534761879243397686 2.15401833833437095223 -6.78534761879243397686 -0.08082315094733043270 -2.31566464022903151232 -2.31566464022903151232 -2.31566464022903151232 -6.78534761879243397686 -2.31566464022903151232 -0.08082315094733043270 -0.08082315094733043270 -2.31566464022903151232 -4.55050612951073230050 -6.78534761879243397686 -0.08082315094733043270 2.15401833833437095223 -2.31566464022903151232 -4.55050612951073230050 -2.31566464022903151232 -0.08082315094733043270 -2.31566464022903151232 -0.08082315094733043270 -0.08082315094733043270 -0.08082315094733043270 2.15401833833437095223 -2.31566464022903151232 -2.31566464022903151232 -2.31566464022903151232 2.15401833833437095223 -0.08082315094733043270 2.15401833833437095223 -0.08082315094733043270 -6.78534761879243397686 -2.31566464022903151232 -0.08082315094733043270 -2.31566464022903151232 2.15401833833437095223 -0.08082315094733043270 -4.55050612951073230050 -0.08082315094733043270 -2.31566464022903151232 4.38885982761607174041 -0.08082315094733043270 -4.55050612951073230050 2.15401833833437095223 -2.31566464022903151232 -0.08082315094733043270 -0.08082315094733043270 4.38885982761607174041 2.15401833833437095223 -0.08082315094733043270 -0.08082315094733043270 -0.08082315094733043270 -0.08082315094733043270 -0.08082315094733043270 2.15401833833437095223 -0.08082315094733043270 -2.31566464022903151232 -0.08082315094733043270 -4.55050612951073230050 -0.08082315094733043270 4.38885982761607174041 -4.55050612951073230050 -2.31566464022903151232 -4.55050612951073230050 -4.55050612951073230050 -2.31566464022903151232 -4.55050612951073230050 -2.31566464022903151232 -4.55050612951073230050 -4.55050612951073230050 -4.55050612951073230050 -11.25503059735583910594 -0.08082315094733043270 -4.55050612951073230050 -2.31566464022903151232 -6.78534761879243397686 -4.55050612951073230050 -4.55050612951073230050 -4.55050612951073230050 -4.55050612951073230050 -4.55050612951073230050 -2.31566464022903151232 -4.55050612951073230050 -9.02018910807413654140 -4.55050612951073230050 -9.02018910807413654140 -6.78534761879243397686 -9.02018910807413654140 -4.55050612951073230050 -0.08082315094733043270 -9.02018910807413654140 -9.02018910807413654140 -6.78534761879243397686 -6.78534761879243397686 -2.31566464022903151232 -9.02018910807413654140 -2.31566464022903151232 -6.78534761879243397686 -9.02018910807413654140 -6.78534761879243397686 -6.78534761879243397686 -4.55050612951073230050 -4.55050612951073230050 -4.55050612951073230050 -9.02018910807413654140 -6.78534761879243397686 -6.78534761879243397686 -4.55050612951073230050 -6.78534761879243397686 -4.55050612951073230050 -6.78534761879243397686 -4.55050612951073230050 -6.78534761879243397686 -6.78534761879243397686 -6.78534761879243397686 -0.08082315094733043270 -4.55050612951073230050 -2.31566464022903151232 -13.48987208663753989413 -9.02018910807413654140 -4.55050612951073230050 -4.55050612951073230050 -6.78534761879243397686 -4.55050612951073230050 -2.31566464022903151232 -2.31566464022903151232 -0.08082315094733043270 -2.31566464022903151232 -2.31566464022903151232 -0.08082315094733043270 -2.31566464022903151232 -2.31566464022903151232 -4.55050612951073230050 2.15401833833437095223 -0.08082315094733043270 -0.08082315094733043270 -0.08082315094733043270 -2.31566464022903151232 -0.08082315094733043270 -0.08082315094733043270 2.15401833833437095223 2.15401833833437095223 -0.08082315094733043270 -2.31566464022903151232 -0.08082315094733043270 2.15401833833437095223 6.62370131689777341677 2.15401833833437095223 -0.08082315094733043270 -2.31566464022903151232 -2.31566464022903151232 -2.31566464022903151232 -0.08082315094733043270 -0.08082315094733043270 -4.55050612951073230050 -0.08082315094733043270 -2.31566464022903151232 -2.31566464022903151232 -4.55050612951073230050 -0.08082315094733043270 -2.31566464022903151232 -4.55050612951073230050 2.15401833833437095223 -2.31566464022903151232 -9.02018910807413654140 -2.31566464022903151232 -4.55050612951073230050 -4.55050612951073230050 -2.31566464022903151232 -2.31566464022903151232 -4.55050612951073230050 -2.31566464022903151232 -6.78534761879243397686 -4.55050612951073230050 -4.55050612951073230050 -4.55050612951073230050 -6.78534761879243397686 -2.31566464022903151232 -2.31566464022903151232 -4.55050612951073230050 -4.55050612951073230050 -4.55050612951073230050 -2.31566464022903151232 -4.55050612951073230050 -4.55050612951073230050 -2.31566464022903151232 -6.78534761879243397686 -6.78534761879243397686 -4.55050612951073230050 -4.55050612951073230050 -0.08082315094733043270 -4.55050612951073230050 -6.78534761879243397686 -6.78534761879243397686 -4.55050612951073230050 -6.78534761879243397686 -2.31566464022903151232 -4.55050612951073230050 -4.55050612951073230050 -11.25503059735583910594 -6.78534761879243397686 -6.78534761879243397686 -6.78534761879243397686 -4.55050612951073230050 -6.78534761879243397686 -6.78534761879243397686 -6.78534761879243397686 -6.78534761879243397686 -4.55050612951073230050 -4.55050612951073230050 -6.78534761879243397686 -9.02018910807413654140 -4.55050612951073230050 -9.02018910807413654140 -2.31566464022903151232 -2.31566464022903151232 -6.78534761879243397686 -6.78534761879243397686 -6.78534761879243397686 -6.78534761879243397686 -4.55050612951073230050 -4.55050612951073230050 -2.31566464022903151232 -2.31566464022903151232 -2.31566464022903151232 -6.78534761879243397686 -2.31566464022903151232 -9.02018910807413654140 -6.78534761879243397686 -2.31566464022903151232 -2.31566464022903151232 -4.55050612951073230050 -4.55050612951073230050 -9.02018910807413654140 -4.55050612951073230050 -4.55050612951073230050 -2.31566464022903151232 -2.31566464022903151232 -2.31566464022903151232 -6.78534761879243397686 -9.02018910807413654140 -4.55050612951073230050 -4.55050612951073230050 -2.31566464022903151232 -2.31566464022903151232 -0.08082315094733043270 -6.78534761879243397686 -4.55050612951073230050 -0.08082315094733043270 -2.31566464022903151232 -2.31566464022903151232 -0.08082315094733043270 -4.55050612951073230050 -2.31566464022903151232 -4.55050612951073230050 -4.55050612951073230050 -0.08082315094733043270 -6.78534761879243397686 -0.08082315094733043270 -2.31566464022903151232 -0.08082315094733043270 -2.31566464022903151232 -2.31566464022903151232 2.15401833833437095223 -2.31566464022903151232 -2.31566464022903151232 -0.08082315094733043270 -0.08082315094733043270 -0.08082315094733043270 -4.55050612951073230050 4.38885982761607174041 -2.31566464022903151232 -0.08082315094733043270 -0.08082315094733043270 2.15401833833437095223 2.15401833833437095223 2.15401833833437095223 4.38885982761607174041 -0.08082315094733043270 -2.31566464022903151232 4.38885982761607174041 -2.31566464022903151232 -4.55050612951073230050 -2.31566464022903151232 -2.31566464022903151232 -0.08082315094733043270 4.38885982761607174041 -0.08082315094733043270 -2.31566464022903151232 -4.55050612951073230050 -0.08082315094733043270 2.15401833833437095223 -0.08082315094733043270 -2.31566464022903151232 -0.08082315094733043270 -2.31566464022903151232 -0.08082315094733043270 2.15401833833437095223 2.15401833833437095223 -0.08082315094733043270 -0.08082315094733043270 -0.08082315094733043270 -0.08082315094733043270 -4.55050612951073230050 2.15401833833437095223 -2.31566464022903151232 -0.08082315094733043270 -0.08082315094733043270 -0.08082315094733043270 -4.55050612951073230050 -2.31566464022903151232 -0.08082315094733043270 -0.08082315094733043270 -4.55050612951073230050 -2.31566464022903151232 -2.31566464022903151232 -4.55050612951073230050 -2.31566464022903151232 -2.31566464022903151232 -0.08082315094733043270 -4.55050612951073230050 -2.31566464022903151232 -0.08082315094733043270 -4.55050612951073230050 -2.31566464022903151232 -0.08082315094733043270 -0.08082315094733043270 -4.55050612951073230050 -0.08082315094733043270 -4.55050612951073230050 -4.55050612951073230050 -0.08082315094733043270 -4.55050612951073230050 -4.55050612951073230050 -0.08082315094733043270 -6.78534761879243397686 -2.31566464022903151232 -2.31566464022903151232 2.15401833833437095223 -0.08082315094733043270 -2.31566464022903151232 -2.31566464022903151232 -4.55050612951073230050 -4.55050612951073230050 -0.08082315094733043270 -0.08082315094733043270 -0.08082315094733043270 -0.08082315094733043270 -4.55050612951073230050 -2.31566464022903151232 -4.55050612951073230050 -4.55050612951073230050 -2.31566464022903151232 2.15401833833437095223 -4.55050612951073230050 -0.08082315094733043270 -6.78534761879243397686 -9.02018910807413654140 -2.31566464022903151232 -0.08082315094733043270 -0.08082315094733043270 -2.31566464022903151232 -0.08082315094733043270 -6.78534761879243397686 -6.78534761879243397686 -2.31566464022903151232 -2.31566464022903151232 -4.55050612951073230050 -2.31566464022903151232 -2.31566464022903151232 -4.55050612951073230050 -9.02018910807413654140 -4.55050612951073230050 -4.55050612951073230050 -2.31566464022903151232 -4.55050612951073230050 -2.31566464022903151232 -2.31566464022903151232 -4.55050612951073230050 -6.78534761879243397686 -4.55050612951073230050 -0.08082315094733043270 -0.08082315094733043270 -2.31566464022903151232 -0.08082315094733043270 -4.55050612951073230050 -4.55050612951073230050 -4.55050612951073230050 -4.55050612951073230050 -2.31566464022903151232 -6.78534761879243397686 -6.78534761879243397686 -4.55050612951073230050 -6.78534761879243397686 -4.55050612951073230050 -6.78534761879243397686 -4.55050612951073230050 -4.55050612951073230050 -4.55050612951073230050 -6.78534761879243397686 -9.02018910807413654140 -4.55050612951073230050 -2.31566464022903151232 -4.55050612951073230050 -0.08082315094733043270 -2.31566464022903151232 -4.55050612951073230050 -4.55050612951073230050 -4.55050612951073230050 -4.55050612951073230050 -4.55050612951073230050 -9.02018910807413654140 -2.31566464022903151232 -4.55050612951073230050 -4.55050612951073230050 -4.55050612951073230050 -4.55050612951073230050 -2.31566464022903151232 -2.31566464022903151232 -2.31566464022903151232 -6.78534761879243397686 -6.78534761879243397686 -4.55050612951073230050 -2.31566464022903151232 -2.31566464022903151232 -0.08082315094733043270 -2.31566464022903151232 -2.31566464022903151232 -2.31566464022903151232 -4.55050612951073230050 -2.31566464022903151232 -2.31566464022903151232 6.62370131689777341677 -2.31566464022903151232 2.15401833833437095223 -0.08082315094733043270 -0.08082315094733043270 -0.08082315094733043270 -0.08082315094733043270 -2.31566464022903151232 -0.08082315094733043270 -0.08082315094733043270 -0.08082315094733043270 -0.08082315094733043270 2.15401833833437095223 -0.08082315094733043270 -0.08082315094733043270 -0.08082315094733043270 -0.08082315094733043270 2.15401833833437095223 4.38885982761607174041 2.15401833833437095223 -0.08082315094733043270 2.15401833833437095223 -0.08082315094733043270 -2.31566464022903151232 -0.08082315094733043270 4.38885982761607174041 2.15401833833437095223 2.15401833833437095223 2.15401833833437095223 4.38885982761607174041 -0.08082315094733043270 -0.08082315094733043270 2.15401833833437095223 -0.08082315094733043270 2.15401833833437095223 -0.08082315094733043270 2.15401833833437095223 2.15401833833437095223 -2.31566464022903151232 -2.31566464022903151232 -2.31566464022903151232 2.15401833833437095223 -2.31566464022903151232 2.15401833833437095223 -2.31566464022903151232 -6.78534761879243397686 -4.55050612951073230050 -2.31566464022903151232 -2.31566464022903151232 -2.31566464022903151232 -2.31566464022903151232 -0.08082315094733043270 -6.78534761879243397686 -0.08082315094733043270 2.15401833833437095223 -0.08082315094733043270 -4.55050612951073230050 -0.08082315094733043270 -2.31566464022903151232 -4.55050612951073230050 -2.31566464022903151232 -2.31566464022903151232 -2.31566464022903151232 -0.08082315094733043270 2.15401833833437095223 -2.31566464022903151232 4.38885982761607174041 2.15401833833437095223 -2.31566464022903151232 -0.08082315094733043270 2.15401833833437095223 -2.31566464022903151232 -2.31566464022903151232 -2.31566464022903151232 -2.31566464022903151232 -0.08082315094733043270 2.15401833833437095223 2.15401833833437095223 -0.08082315094733043270 -0.08082315094733043270 -0.08082315094733043270 -0.08082315094733043270 -2.31566464022903151232 2.15401833833437095223 2.15401833833437095223 2.15401833833437095223 -2.31566464022903151232 2.15401833833437095223 -0.08082315094733043270 4.38885982761607174041 4.38885982761607174041 4.38885982761607174041 2.15401833833437095223 -2.31566464022903151232 -0.08082315094733043270 -2.31566464022903151232 -2.31566464022903151232 2.15401833833437095223 -0.08082315094733043270 2.15401833833437095223 -0.08082315094733043270 -2.31566464022903151232 -0.08082315094733043270 -2.31566464022903151232 6.62370131689777341677 -0.08082315094733043270 -0.08082315094733043270 -2.31566464022903151232 -2.31566464022903151232 -2.31566464022903151232 -4.55050612951073230050 -2.31566464022903151232 -2.31566464022903151232 -2.31566464022903151232 -0.08082315094733043270 2.15401833833437095223 -2.31566464022903151232 -4.55050612951073230050 -0.08082315094733043270 -4.55050612951073230050 4.38885982761607174041 2.15401833833437095223 -2.31566464022903151232 -4.55050612951073230050 -4.55050612951073230050 -0.08082315094733043270 -6.78534761879243397686 -2.31566464022903151232 -0.08082315094733043270 4.38885982761607174041 -0.08082315094733043270 -2.31566464022903151232 -0.08082315094733043270 -2.31566464022903151232 2.15401833833437095223 2.15401833833437095223 -0.08082315094733043270 -4.55050612951073230050 -0.08082315094733043270 -2.31566464022903151232 2.15401833833437095223 -2.31566464022903151232 -2.31566464022903151232 -0.08082315094733043270 -2.31566464022903151232 -0.08082315094733043270 -0.08082315094733043270 -0.08082315094733043270 4.38885982761607174041 -0.08082315094733043270 2.15401833833437095223 -2.31566464022903151232 -2.31566464022903151232 -2.31566464022903151232 2.15401833833437095223 -0.08082315094733043270 4.38885982761607174041 -2.31566464022903151232 -0.08082315094733043270 -4.55050612951073230050 -2.31566464022903151232 -0.08082315094733043270 2.15401833833437095223 -4.55050612951073230050 2.15401833833437095223 -2.31566464022903151232 -6.78534761879243397686 -0.08082315094733043270 -4.55050612951073230050 -0.08082315094733043270 -2.31566464022903151232 -2.31566464022903151232 -2.31566464022903151232 -0.08082315094733043270 -2.31566464022903151232 -2.31566464022903151232 -2.31566464022903151232 -4.55050612951073230050 -4.55050612951073230050 -6.78534761879243397686 -2.31566464022903151232 -4.55050612951073230050 -2.31566464022903151232 -6.78534761879243397686 -4.55050612951073230050 -2.31566464022903151232 -0.08082315094733043270 -2.31566464022903151232 -4.55050612951073230050 -2.31566464022903151232 -6.78534761879243397686 -6.78534761879243397686 -6.78534761879243397686 -2.31566464022903151232 -2.31566464022903151232 -4.55050612951073230050 -4.55050612951073230050 -4.55050612951073230050 -4.55050612951073230050 -4.55050612951073230050 -6.78534761879243397686 -11.25503059735583910594 -6.78534761879243397686 -4.55050612951073230050 -6.78534761879243397686 -2.31566464022903151232 -6.78534761879243397686 -4.55050612951073230050 -4.55050612951073230050 -4.55050612951073230050 -6.78534761879243397686 -6.78534761879243397686 -2.31566464022903151232 -4.55050612951073230050 -4.55050612951073230050 -6.78534761879243397686 -6.78534761879243397686 -6.78534761879243397686 -9.02018910807413654140 -6.78534761879243397686 -6.78534761879243397686 -6.78534761879243397686 -6.78534761879243397686 -4.55050612951073230050 -4.55050612951073230050 -2.31566464022903151232 -9.02018910807413654140 -4.55050612951073230050 -4.55050612951073230050 -9.02018910807413654140 -6.78534761879243397686 -2.31566464022903151232 -0.08082315094733043270 -4.55050612951073230050 -2.31566464022903151232 -4.55050612951073230050 -6.78534761879243397686 -6.78534761879243397686 -9.02018910807413654140 -2.31566464022903151232 -0.08082315094733043270 -4.55050612951073230050 -0.08082315094733043270 -2.31566464022903151232 -4.55050612951073230050 -6.78534761879243397686 -4.55050612951073230050 -2.31566464022903151232 -0.08082315094733043270 -4.55050612951073230050 -4.55050612951073230050 -4.55050612951073230050 -2.31566464022903151232 -0.08082315094733043270 -2.31566464022903151232 2.15401833833437095223 -4.55050612951073230050 -2.31566464022903151232 -4.55050612951073230050 -2.31566464022903151232 -4.55050612951073230050 -2.31566464022903151232 -0.08082315094733043270 -2.31566464022903151232 -0.08082315094733043270 -4.55050612951073230050 2.15401833833437095223 2.15401833833437095223 2.15401833833437095223 -2.31566464022903151232 -4.55050612951073230050 -4.55050612951073230050 -4.55050612951073230050 -0.08082315094733043270 -0.08082315094733043270 -0.08082315094733043270 -2.31566464022903151232 -2.31566464022903151232 -2.31566464022903151232 -4.55050612951073230050 -2.31566464022903151232 -0.08082315094733043270 -4.55050612951073230050 -2.31566464022903151232 -0.08082315094733043270 -4.55050612951073230050 -4.55050612951073230050 -0.08082315094733043270 -2.31566464022903151232 -0.08082315094733043270 -4.55050612951073230050 -2.31566464022903151232 -4.55050612951073230050 -0.08082315094733043270 -0.08082315094733043270 -2.31566464022903151232 4.38885982761607174041 -2.31566464022903151232 -2.31566464022903151232 -2.31566464022903151232 -0.08082315094733043270 2.15401833833437095223 -0.08082315094733043270 -2.31566464022903151232 -0.08082315094733043270 -4.55050612951073230050 2.15401833833437095223 -2.31566464022903151232 2.15401833833437095223 -2.31566464022903151232 -0.08082315094733043270 -2.31566464022903151232 -2.31566464022903151232 -2.31566464022903151232 -2.31566464022903151232 -2.31566464022903151232 -0.08082315094733043270 -6.78534761879243397686 -2.31566464022903151232 -4.55050612951073230050 2.15401833833437095223 -2.31566464022903151232 -0.08082315094733043270 -2.31566464022903151232 -0.08082315094733043270 -4.55050612951073230050 -2.31566464022903151232 2.15401833833437095223 -0.08082315094733043270 -4.55050612951073230050 -4.55050612951073230050 -4.55050612951073230050 -2.31566464022903151232 -2.31566464022903151232 2.15401833833437095223 -2.31566464022903151232 -0.08082315094733043270 -2.31566464022903151232 -4.55050612951073230050 -6.78534761879243397686 -2.31566464022903151232 -2.31566464022903151232 2.15401833833437095223 -0.08082315094733043270 -2.31566464022903151232 -2.31566464022903151232 -6.78534761879243397686 -0.08082315094733043270 2.15401833833437095223 -2.31566464022903151232 -0.08082315094733043270 -4.55050612951073230050 -0.08082315094733043270 -4.55050612951073230050 -0.08082315094733043270 -2.31566464022903151232 -2.31566464022903151232 2.15401833833437095223 -6.78534761879243397686 -6.78534761879243397686 -2.31566464022903151232 -2.31566464022903151232 -0.08082315094733043270 -6.78534761879243397686 -6.78534761879243397686 -9.02018910807413654140 -2.31566464022903151232 -4.55050612951073230050 -0.08082315094733043270 -4.55050612951073230050 -4.55050612951073230050 -9.02018910807413654140 -2.31566464022903151232 -6.78534761879243397686 -2.31566464022903151232 -2.31566464022903151232 -2.31566464022903151232 -4.55050612951073230050 -6.78534761879243397686 -6.78534761879243397686 -6.78534761879243397686 -4.55050612951073230050 -2.31566464022903151232 2.15401833833437095223 -2.31566464022903151232 -4.55050612951073230050 -4.55050612951073230050 -4.55050612951073230050 -4.55050612951073230050 -0.08082315094733043270 -4.55050612951073230050 -4.55050612951073230050 -4.55050612951073230050 -2.31566464022903151232 -4.55050612951073230050 -4.55050612951073230050 -4.55050612951073230050 -2.31566464022903151232 -4.55050612951073230050 -2.31566464022903151232 -2.31566464022903151232 -9.02018910807413654140 -2.31566464022903151232 -0.08082315094733043270 -4.55050612951073230050 -2.31566464022903151232 -2.31566464022903151232 -2.31566464022903151232 -11.25503059735583910594 -4.55050612951073230050 -4.55050612951073230050 -4.55050612951073230050 -6.78534761879243397686 -4.55050612951073230050 -4.55050612951073230050 -6.78534761879243397686 -6.78534761879243397686 -6.78534761879243397686 -6.78534761879243397686 -4.55050612951073230050 -4.55050612951073230050 -2.31566464022903151232 -9.02018910807413654140 -4.55050612951073230050 -9.02018910807413654140 -2.31566464022903151232 -6.78534761879243397686 -6.78534761879243397686 -4.55050612951073230050 -6.78534761879243397686 -4.55050612951073230050 -2.31566464022903151232 -2.31566464022903151232 -2.31566464022903151232 -2.31566464022903151232 -6.78534761879243397686 -0.08082315094733043270 -11.25503059735583910594 -4.55050612951073230050 -2.31566464022903151232 -2.31566464022903151232 -4.55050612951073230050 -6.78534761879243397686 -4.55050612951073230050 -9.02018910807413654140 -4.55050612951073230050 -0.08082315094733043270 -2.31566464022903151232 -4.55050612951073230050 -4.55050612951073230050 -0.08082315094733043270 -6.78534761879243397686 -6.78534761879243397686 -6.78534761879243397686 -4.55050612951073230050 -2.31566464022903151232 -2.31566464022903151232 -2.31566464022903151232 -2.31566464022903151232 -6.78534761879243397686 -4.55050612951073230050 -2.31566464022903151232 2.15401833833437095223 -0.08082315094733043270 -6.78534761879243397686 -6.78534761879243397686 -6.78534761879243397686 -2.31566464022903151232 -0.08082315094733043270 -2.31566464022903151232 -0.08082315094733043270 -4.55050612951073230050 -6.78534761879243397686 -2.31566464022903151232 -0.08082315094733043270 -6.78534761879243397686 -2.31566464022903151232 -2.31566464022903151232 -2.31566464022903151232 -2.31566464022903151232 -0.08082315094733043270 -2.31566464022903151232 -2.31566464022903151232 -2.31566464022903151232 -0.08082315094733043270 -2.31566464022903151232 -0.08082315094733043270 -0.08082315094733043270 -4.55050612951073230050 -2.31566464022903151232 -0.08082315094733043270 -0.08082315094733043270 -6.78534761879243397686 -4.55050612951073230050 -0.08082315094733043270 -4.55050612951073230050 -2.31566464022903151232 -0.08082315094733043270 -4.55050612951073230050 -2.31566464022903151232 -2.31566464022903151232 -4.55050612951073230050 -6.78534761879243397686 -0.08082315094733043270 -2.31566464022903151232 -4.55050612951073230050 -2.31566464022903151232 -4.55050612951073230050 -2.31566464022903151232 -4.55050612951073230050 -6.78534761879243397686 -6.78534761879243397686 -6.78534761879243397686 -4.55050612951073230050 -6.78534761879243397686 -9.02018910807413654140 -11.25503059735583910594 -6.78534761879243397686 -6.78534761879243397686 -4.55050612951073230050 -4.55050612951073230050 -6.78534761879243397686 -6.78534761879243397686 -6.78534761879243397686 -9.02018910807413654140 -9.02018910807413654140 -4.55050612951073230050 -6.78534761879243397686 -6.78534761879243397686 -13.48987208663753989413 -6.78534761879243397686 -9.02018910807413654140 -6.78534761879243397686 -4.55050612951073230050 -6.78534761879243397686 -9.02018910807413654140 -6.78534761879243397686 -4.55050612951073230050 -4.55050612951073230050 -2.31566464022903151232 -9.02018910807413654140 -6.78534761879243397686 -4.55050612951073230050 -6.78534761879243397686 -6.78534761879243397686 -6.78534761879243397686 -2.31566464022903151232 -2.31566464022903151232 -2.31566464022903151232 -6.78534761879243397686 -2.31566464022903151232 -6.78534761879243397686 -2.31566464022903151232 -2.31566464022903151232 -4.55050612951073230050 -4.55050612951073230050 -2.31566464022903151232 -4.55050612951073230050 -2.31566464022903151232 -2.31566464022903151232 -2.31566464022903151232 -4.55050612951073230050 -2.31566464022903151232 -4.55050612951073230050 -4.55050612951073230050 -2.31566464022903151232 -0.08082315094733043270 -4.55050612951073230050 -4.55050612951073230050 -0.08082315094733043270 -2.31566464022903151232 -0.08082315094733043270 -2.31566464022903151232 -2.31566464022903151232 -2.31566464022903151232 -2.31566464022903151232 -2.31566464022903151232 -0.08082315094733043270 -4.55050612951073230050 -2.31566464022903151232 -4.55050612951073230050 -4.55050612951073230050 -4.55050612951073230050 -2.31566464022903151232 -2.31566464022903151232 -2.31566464022903151232 -2.31566464022903151232 -2.31566464022903151232 -9.02018910807413654140 -6.78534761879243397686 -2.31566464022903151232 -6.78534761879243397686 -6.78534761879243397686 -2.31566464022903151232 -4.55050612951073230050 -2.31566464022903151232 -2.31566464022903151232 -0.08082315094733043270 -0.08082315094733043270 -0.08082315094733043270 -4.55050612951073230050 -4.55050612951073230050 -6.78534761879243397686 -6.78534761879243397686 -2.31566464022903151232 -6.78534761879243397686 -4.55050612951073230050 -0.08082315094733043270 -4.55050612951073230050 -6.78534761879243397686 -4.55050612951073230050 4.38885982761607174041 -4.55050612951073230050 -2.31566464022903151232 -4.55050612951073230050 -6.78534761879243397686 -2.31566464022903151232 -4.55050612951073230050 -4.55050612951073230050 -4.55050612951073230050 -0.08082315094733043270 -9.02018910807413654140 -4.55050612951073230050 -6.78534761879243397686 -4.55050612951073230050 -6.78534761879243397686 -6.78534761879243397686 -4.55050612951073230050 -6.78534761879243397686 -6.78534761879243397686 -4.55050612951073230050 -4.55050612951073230050 -2.31566464022903151232 -4.55050612951073230050 -4.55050612951073230050 -2.31566464022903151232 -6.78534761879243397686 -2.31566464022903151232 -0.08082315094733043270 -6.78534761879243397686 2.15401833833437095223 -4.55050612951073230050 -6.78534761879243397686 -2.31566464022903151232 -0.08082315094733043270 -4.55050612951073230050 -0.08082315094733043270 2.15401833833437095223 -4.55050612951073230050 -2.31566464022903151232 -2.31566464022903151232 -4.55050612951073230050 -0.08082315094733043270 -6.78534761879243397686 -2.31566464022903151232 -2.31566464022903151232 -4.55050612951073230050 -2.31566464022903151232 -6.78534761879243397686 -2.31566464022903151232 2.15401833833437095223 -4.55050612951073230050 -4.55050612951073230050 -2.31566464022903151232 -9.02018910807413654140 -2.31566464022903151232 -4.55050612951073230050 -2.31566464022903151232 -2.31566464022903151232 -2.31566464022903151232 -0.08082315094733043270 -4.55050612951073230050 -0.08082315094733043270 -4.55050612951073230050 -2.31566464022903151232 -0.08082315094733043270 -2.31566464022903151232 -2.31566464022903151232 -2.31566464022903151232 -4.55050612951073230050 -4.55050612951073230050 -2.31566464022903151232 -2.31566464022903151232 -2.31566464022903151232 -6.78534761879243397686 -6.78534761879243397686 -6.78534761879243397686 -4.55050612951073230050 -2.31566464022903151232 -0.08082315094733043270 -2.31566464022903151232 -6.78534761879243397686 -4.55050612951073230050 -4.55050612951073230050 -0.08082315094733043270 -2.31566464022903151232 -6.78534761879243397686 -6.78534761879243397686 -4.55050612951073230050 -4.55050612951073230050 -6.78534761879243397686 -6.78534761879243397686 -2.31566464022903151232 -2.31566464022903151232 -0.08082315094733043270 -4.55050612951073230050 -6.78534761879243397686 -4.55050612951073230050 -0.08082315094733043270 -2.31566464022903151232 -4.55050612951073230050 -2.31566464022903151232 -6.78534761879243397686 -4.55050612951073230050 -6.78534761879243397686 -4.55050612951073230050 -2.31566464022903151232 -2.31566464022903151232 -4.55050612951073230050 -4.55050612951073230050 -6.78534761879243397686 -4.55050612951073230050 2.15401833833437095223 -2.31566464022903151232 -2.31566464022903151232 -6.78534761879243397686 -4.55050612951073230050 -6.78534761879243397686 -6.78534761879243397686 -2.31566464022903151232 2.15401833833437095223 -0.08082315094733043270 -6.78534761879243397686 -2.31566464022903151232 -0.08082315094733043270 -6.78534761879243397686 -2.31566464022903151232 -0.08082315094733043270 -4.55050612951073230050 -2.31566464022903151232 -2.31566464022903151232 -2.31566464022903151232 -0.08082315094733043270 -0.08082315094733043270 2.15401833833437095223 -4.55050612951073230050 -2.31566464022903151232 -0.08082315094733043270 -4.55050612951073230050 -2.31566464022903151232 -2.31566464022903151232 -0.08082315094733043270 -0.08082315094733043270 -4.55050612951073230050 -2.31566464022903151232 -4.55050612951073230050 -6.78534761879243397686 -4.55050612951073230050 -0.08082315094733043270 2.15401833833437095223 -2.31566464022903151232 -4.55050612951073230050 -4.55050612951073230050 -4.55050612951073230050 -4.55050612951073230050 -6.78534761879243397686 -2.31566464022903151232 -0.08082315094733043270 -4.55050612951073230050 -6.78534761879243397686 -6.78534761879243397686 -6.78534761879243397686 -4.55050612951073230050 -6.78534761879243397686 -2.31566464022903151232 -4.55050612951073230050 -9.02018910807413654140 -4.55050612951073230050 -6.78534761879243397686 -6.78534761879243397686 -4.55050612951073230050 -0.08082315094733043270 -2.31566464022903151232 -2.31566464022903151232 -6.78534761879243397686 -4.55050612951073230050 -4.55050612951073230050 -2.31566464022903151232 -4.55050612951073230050 -4.55050612951073230050 -4.55050612951073230050 -6.78534761879243397686 -6.78534761879243397686 -4.55050612951073230050 -4.55050612951073230050 -6.78534761879243397686 -2.31566464022903151232 -4.55050612951073230050 -2.31566464022903151232 -4.55050612951073230050 -2.31566464022903151232 -2.31566464022903151232 -6.78534761879243397686 -4.55050612951073230050 -6.78534761879243397686 -6.78534761879243397686 -4.55050612951073230050 -4.55050612951073230050 -4.55050612951073230050 -6.78534761879243397686 -6.78534761879243397686 -6.78534761879243397686 -0.08082315094733043270 -4.55050612951073230050 -6.78534761879243397686 -4.55050612951073230050 -6.78534761879243397686 -4.55050612951073230050 -6.78534761879243397686 -4.55050612951073230050 -2.31566464022903151232 -6.78534761879243397686 -4.55050612951073230050 -4.55050612951073230050 -6.78534761879243397686 -2.31566464022903151232 -2.31566464022903151232 -6.78534761879243397686 -2.31566464022903151232 -4.55050612951073230050 -6.78534761879243397686 -4.55050612951073230050 -4.55050612951073230050 -6.78534761879243397686 -6.78534761879243397686 -9.02018910807413654140 -11.25503059735583910594 -4.55050612951073230050 -4.55050612951073230050 -9.02018910807413654140 -4.55050612951073230050 -4.55050612951073230050 -4.55050612951073230050 -6.78534761879243397686 -6.78534761879243397686 -4.55050612951073230050 -0.08082315094733043270 -6.78534761879243397686 -4.55050612951073230050 -2.31566464022903151232 -9.02018910807413654140 -4.55050612951073230050 -2.31566464022903151232 -6.78534761879243397686 -4.55050612951073230050 -9.02018910807413654140 -9.02018910807413654140 -9.02018910807413654140 -9.02018910807413654140 -9.02018910807413654140 -6.78534761879243397686 -4.55050612951073230050 -6.78534761879243397686 -6.78534761879243397686 -9.02018910807413654140 -4.55050612951073230050 -4.55050612951073230050 -2.31566464022903151232 -4.55050612951073230050 -6.78534761879243397686 -6.78534761879243397686 -4.55050612951073230050 -2.31566464022903151232 -9.02018910807413654140 -2.31566464022903151232 -4.55050612951073230050 -2.31566464022903151232 -2.31566464022903151232 -4.55050612951073230050 -4.55050612951073230050 -2.31566464022903151232 -4.55050612951073230050 -2.31566464022903151232 -4.55050612951073230050 -2.31566464022903151232 -0.08082315094733043270 2.15401833833437095223 -2.31566464022903151232 -2.31566464022903151232 -4.55050612951073230050 -2.31566464022903151232 2.15401833833437095223 -4.55050612951073230050 -2.31566464022903151232 -4.55050612951073230050 -4.55050612951073230050 -0.08082315094733043270 2.15401833833437095223 -0.08082315094733043270 2.15401833833437095223 2.15401833833437095223 -0.08082315094733043270 -0.08082315094733043270 2.15401833833437095223 -0.08082315094733043270 6.62370131689777341677 -0.08082315094733043270 -0.08082315094733043270 -2.31566464022903151232 -2.31566464022903151232 -4.55050612951073230050 4.38885982761607174041 -0.08082315094733043270 -0.08082315094733043270 -0.08082315094733043270 -0.08082315094733043270 -0.08082315094733043270 -2.31566464022903151232 2.15401833833437095223 -0.08082315094733043270 -0.08082315094733043270 -6.78534761879243397686 -2.31566464022903151232 -4.55050612951073230050 2.15401833833437095223 -0.08082315094733043270 -4.55050612951073230050 -4.55050612951073230050 -6.78534761879243397686 4.38885982761607174041 -2.31566464022903151232 -0.08082315094733043270 -0.08082315094733043270 -2.31566464022903151232 -4.55050612951073230050 -4.55050612951073230050 -4.55050612951073230050 -6.78534761879243397686 -2.31566464022903151232 -2.31566464022903151232 -2.31566464022903151232 -4.55050612951073230050 -6.78534761879243397686 -9.02018910807413654140 -11.25503059735583910594 -2.31566464022903151232 -2.31566464022903151232 -4.55050612951073230050 -2.31566464022903151232 -4.55050612951073230050 -4.55050612951073230050 -9.02018910807413654140 -4.55050612951073230050 -6.78534761879243397686 -4.55050612951073230050 -4.55050612951073230050 -6.78534761879243397686 -9.02018910807413654140 -4.55050612951073230050 -6.78534761879243397686 -4.55050612951073230050 -4.55050612951073230050 -6.78534761879243397686 -4.55050612951073230050 -4.55050612951073230050 -6.78534761879243397686 -6.78534761879243397686 -4.55050612951073230050 -6.78534761879243397686 -4.55050612951073230050 -4.55050612951073230050 -0.08082315094733043270 -4.55050612951073230050 -2.31566464022903151232 -4.55050612951073230050 -6.78534761879243397686 -4.55050612951073230050 -6.78534761879243397686 -6.78534761879243397686 -9.02018910807413654140 -4.55050612951073230050 -4.55050612951073230050 -6.78534761879243397686 -2.31566464022903151232 -6.78534761879243397686 -11.25503059735583910594 -4.55050612951073230050 -4.55050612951073230050 -4.55050612951073230050 -6.78534761879243397686 -9.02018910807413654140 -6.78534761879243397686 -9.02018910807413654140 -6.78534761879243397686 -4.55050612951073230050 -4.55050612951073230050 -4.55050612951073230050 -4.55050612951073230050 -6.78534761879243397686 -4.55050612951073230050 -2.31566464022903151232 -2.31566464022903151232 -2.31566464022903151232 -2.31566464022903151232 -9.02018910807413654140 -6.78534761879243397686 -6.78534761879243397686 -0.08082315094733043270 -4.55050612951073230050 -2.31566464022903151232 -0.08082315094733043270 -4.55050612951073230050 -4.55050612951073230050 -4.55050612951073230050 2.15401833833437095223 -0.08082315094733043270 -0.08082315094733043270 -4.55050612951073230050 -2.31566464022903151232 -4.55050612951073230050 -2.31566464022903151232 2.15401833833437095223 -2.31566464022903151232 -4.55050612951073230050 -4.55050612951073230050 -4.55050612951073230050 -6.78534761879243397686 -0.08082315094733043270 2.15401833833437095223 -2.31566464022903151232 -2.31566464022903151232 -0.08082315094733043270 -0.08082315094733043270 -6.78534761879243397686 -2.31566464022903151232 -4.55050612951073230050 -4.55050612951073230050 -4.55050612951073230050 -4.55050612951073230050 -0.08082315094733043270 -2.31566464022903151232 -4.55050612951073230050 -2.31566464022903151232 -2.31566464022903151232 -6.78534761879243397686 -0.08082315094733043270 -0.08082315094733043270 -2.31566464022903151232 -6.78534761879243397686 -6.78534761879243397686 -0.08082315094733043270 -2.31566464022903151232 -2.31566464022903151232 -4.55050612951073230050 -2.31566464022903151232 -6.78534761879243397686 -2.31566464022903151232 -0.08082315094733043270 -2.31566464022903151232 -4.55050612951073230050 -0.08082315094733043270 -2.31566464022903151232 -9.02018910807413654140 -4.55050612951073230050 -4.55050612951073230050 -2.31566464022903151232 -0.08082315094733043270 -2.31566464022903151232 -4.55050612951073230050 -2.31566464022903151232 -2.31566464022903151232 -4.55050612951073230050 -4.55050612951073230050 -0.08082315094733043270 -4.55050612951073230050 -2.31566464022903151232 -2.31566464022903151232 -6.78534761879243397686 2.15401833833437095223 -2.31566464022903151232 -4.55050612951073230050 -4.55050612951073230050 -0.08082315094733043270 -2.31566464022903151232 2.15401833833437095223 -2.31566464022903151232 -6.78534761879243397686 -2.31566464022903151232 -2.31566464022903151232 -6.78534761879243397686 -0.08082315094733043270 -4.55050612951073230050 -2.31566464022903151232 -2.31566464022903151232 -4.55050612951073230050 -4.55050612951073230050 -0.08082315094733043270 -2.31566464022903151232 -0.08082315094733043270 2.15401833833437095223 -2.31566464022903151232 2.15401833833437095223 2.15401833833437095223 -2.31566464022903151232 -2.31566464022903151232 -2.31566464022903151232 4.38885982761607174041 2.15401833833437095223 -0.08082315094733043270 2.15401833833437095223 -2.31566464022903151232 -2.31566464022903151232 -2.31566464022903151232 -2.31566464022903151232 -2.31566464022903151232 -2.31566464022903151232 -4.55050612951073230050 2.15401833833437095223 -2.31566464022903151232 -0.08082315094733043270 -2.31566464022903151232 6.62370131689777341677 4.38885982761607174041 2.15401833833437095223 -0.08082315094733043270 -0.08082315094733043270 2.15401833833437095223 4.38885982761607174041 2.15401833833437095223 2.15401833833437095223 2.15401833833437095223 -0.08082315094733043270 