7.218411 7.179551 7.140855 7.102321 7.063948 7.025738 6.987689 6.949801 8.317574 8.759884 7.286525 6.996857 6.819695 7.090707 10.748996 10.950632 10.624826 9.946674 10.798547 11.740384 13.556953 16.454667 15.177804 14.475061 15.347300 15.209672 12.810473 14.234728 14.680563 14.354872 14.089014 13.867744 11.514216 10.197048 10.937017 10.321887 8.676764 9.117067 9.794351 9.145377 11.210069 8.253947 6.978006 6.603578 8.375502 10.857444 9.584933 9.024463 8.145365 8.511273 8.114423 10.177385 9.556819 8.968916 9.007973 7.962782 6.403193 6.580242 8.530459 9.127863 8.388212 7.285231 6.531221 5.832624 7.034332 6.656203 9.322190 8.126378 6.651233 6.533603 6.563020 4.973026 4.893056 6.568025 5.764017 7.140719 6.234121 4.642694 4.028349 4.431731 5.374460 6.161224 7.180501 7.147221 6.231996 6.319113 4.485993 4.875917 6.214922 7.270258 8.170257 7.370284 4.360886 4.059577 3.498305 2.510608 3.953540 5.738251 4.972944 3.985957 2.353007 1.851775 1.389317 3.007876 3.679248 2.749551 2.243979 2.126049 1.984065 0.769897 0.671764 0.350295 0.400340 1.506846 2.523770 1.561168 -0.941758 0.796528 0.012735 -0.199386 1.478500 1.414467 0.458924 -0.951421 -0.226441 -0.527933 -0.235006 -0.044054 0.474443 -0.028449 -0.470470 1.417359 0.140690 -1.838325 -0.348200 0.781603 0.945261 2.353621 0.034931 -0.856091 -0.885786 0.336485 2.544104 1.806855 0.365689 -0.999274 0.282311 0.874702 1.676565 2.049768 1.115725 0.063558 1.760133 1.404480 2.343745 1.525591 0.758618 0.997275 0.817634 1.742005 2.283236 1.649079 0.212943 -0.450499 0.870225 0.936578 1.166512 1.143027 0.099150 0.394788 -0.585128 -0.563550 -0.104210 -0.189758 0.619830 0.932031 0.549724 -0.524263 -0.917405 -1.870194 0.090609 2.147312 -0.111173 0.481290 -0.565511 -0.962629 -0.443687 1.275843 1.585835 0.219586 2.781382 0.425965 0.467414 2.424907 0.422879 -0.558765 0.923317 2.732138 0.870484 1.323617 1.252310 0.674649 0.416869 1.590500 2.068884 2.434313 2.193890 -0.019975 1.406623 0.359634 0.847090 2.533510 1.753232 0.797311 0.067823 0.821026 1.646008 0.865963 1.202542 1.515790 2.382459 1.931790 0.611506 -0.200148 0.694671 1.215284 1.109363 1.140787 2.351175 2.082940 0.914429 0.724998 0.548479 1.555611 0.369818 2.340182 4.417592 1.606811 0.244868 1.734060 1.074847 0.093924 3.101438 2.826407 1.070346 1.253760 1.770303 1.151217 0.461757 0.053479 1.954926 1.724382 0.546691 0.311201 -1.283691 -0.847544 0.751050 0.506760 0.825471 0.038650 0.822796 0.894057 -0.918059 0.268418 -0.458955 1.137838 1.657415 2.692603 1.570311 0.157070 -0.052095 1.137589 2.565021 4.007308 3.500070 2.679496 1.811342 0.692642 1.874360 2.018570 2.814021 2.841985 2.842762 2.207601 0.709338 -0.003981 0.418478 2.814198 2.863416 2.162881 1.669557 -0.187919 0.499812 1.508719 2.273121 1.946853 1.755994 1.625288 2.192742 2.145056 0.689753 0.503379 1.693981 1.287627 1.100668 1.646725 -1.268417 -1.633281 -0.163383 -0.512450 -0.282681 -0.885587 -1.546388 -1.527210 -1.546897 -1.450703 -1.625673 -1.636943 -2.526954 -1.945867 -1.046489 -2.104506 -2.174259 -2.200040 -2.398152 -2.944918 -1.929773 -1.010222 -2.077438 -2.156142 -2.822730 -3.163425 -3.059373 -1.386843 -1.676679 -3.806999 -1.604807 -2.004942 -2.072400 -1.138389 -1.654230 -1.366705 -2.185126 -0.677155 -1.456548 -1.486821 -0.720513 -0.593433 -0.996584 -1.728280 -1.786219 -2.543929 -1.097603 0.103266 -1.169761 -2.114611 -1.136698 -2.223111 -3.070665 -1.333896 -0.605031 -2.359189 -0.769760 -0.460516 -1.832935 -1.321194 -0.609358 0.034922 1.002233 0.960606 -0.522146 -0.741760 0.169908 -0.314776 0.074185 -0.734453 -1.433751 0.347199 -0.854940 -0.882038 -2.160075 -2.195243 -1.777811 -1.576765 -0.189836 -0.675972 -0.505688 -2.445718 -1.490409 -1.123454 -2.988200 -2.239766 -2.605460 -0.853485 -1.974562 -1.392908 -2.254403 -3.190751 -2.325167 -1.926652 -0.746398 -1.295569 -2.040761 -2.721580 -2.065742 -3.654008 -3.704910 -2.119977 -2.231339 -1.779713 -1.061043 -0.647778 -0.702907 -0.250856 0.033865 -0.172495 0.528880 0.076885 1.533747 1.660298 -0.117648 -0.691243 -0.135233 0.616851 -0.386969 0.332816 0.092997 0.586504 -1.017373 -0.190962 0.528967 0.227570 0.710137 1.548431 2.786229 1.196683 -0.229497 0.660335 1.636312 2.737474 4.670134 3.408395 2.293285 1.519227 2.195405 0.959710 2.559450 2.907863 1.985767 1.805027 1.453757 1.405304 -0.303007 -0.326211 -0.303162 1.636281 1.858482 1.193895 1.577861 1.281933 1.616715 1.146674 1.641398 2.462380 1.473118 3.591051 4.928436 2.478628 1.864079 1.680989 2.126885 4.163838 4.768597 3.972149 3.474941 3.394752 3.069082 2.487840 3.733216 4.226633 4.395936 5.181887 4.718329 3.352750 2.414389 2.412611 4.642717 5.317734 5.289848 5.642161 3.808043 4.088780 2.450450 4.633033 6.035103 6.219079 6.584813 6.008515 4.433858 4.741320 5.205016 5.064769 7.625396 8.126348 6.884520 6.119114 5.886504 5.022940 5.017899 6.850600 5.961583 6.382841 7.209057 4.915540 6.502140 4.766840 4.861448 6.509803 6.223387 6.966641 7.030007 6.543795 5.768432 7.296877 6.990932 6.403246 7.852426 6.950343 6.747805 7.634760 7.916896 7.308942 7.519290 8.290404 7.720803 7.250925 7.593846 7.508993 8.804172 7.944856 7.381322 6.269580 5.527026 5.887416 7.129011 5.709873 5.958394 5.818098 4.978134 4.438170 4.658173 5.296974 4.570664 5.422248 3.956413 3.336003 3.473300 4.551214 4.685477 5.213224 3.420918 4.020926 3.832122 4.493569 4.091579 3.188397 3.649995 2.611194 4.091228 1.793883 0.399115 1.757137 1.791593 1.524525 1.563852 1.826462 0.400514 1.109719 0.786461 -0.399375 -0.516967 -0.625980 0.786077 0.013597 0.818697 0.071575 -0.707604 0.397595 0.401431 0.958324 0.384322 0.331706 1.664401 1.856013 1.880766 -0.886205 -0.578325 0.175774 0.048316 0.331900 -0.134528 -0.215154 -0.479068 -1.549203 -1.319685 -1.794658 -1.468465 0.366622 0.581045 -0.049501 -0.860716 -0.084931 -0.648582 2.923229 2.893810 2.064804 1.547176 1.852088 2.247296 2.588587 3.934988 3.475684 2.302367 2.780918 2.774624 2.012290 1.712695 1.951302 2.978074 2.676330 3.188839 1.497090 1.695179 2.080215 3.787002 3.333491 3.711885 3.397870 2.642822 2.383981 2.065658 2.644222 2.589857 3.736402 1.812646 2.706542 2.199194 0.857623 1.161721 0.827290 2.042626 2.242224 2.445477 1.586432 0.094056 1.315874 0.780716 2.232236 2.203888 1.031827 2.341032 1.898594 2.187915 3.163509 2.614858 1.943305 2.772267 3.360686 2.138808 3.151516 2.537209 2.618295 4.067186 3.466723 0.775473 -0.506279 2.517440 2.994812 3.547708 2.392834 0.840736 -0.228684 1.948130 3.206430 1.391916 2.627552 1.393411 0.921328 1.068033 0.948736 1.831397 1.313716 1.014172 0.247637 -0.365927 0.999640 1.096402 1.567077 1.229522 0.005802 -1.180223 -1.590423 -0.439278 0.020218 -1.035708 -2.229565 -2.469268 -3.504078 -3.268222 -3.654432 -2.966986 -1.856916 -2.681251 -1.640161 -3.327992 -4.421784 -3.153296 -2.359860 -1.407856 -1.498088 -2.301562 -4.143581 -4.844571 -4.467961 -3.476649 -1.843894 -2.922293 -4.167118 -5.191118 -3.756238 -4.212962 -4.485336 -4.172171 -5.344442 -5.023374 -4.095862 -4.110221 -5.396331 -5.176698 -5.128566 -5.230654 -3.882271 -2.425374 -3.250008 -3.280169 -3.928041 -4.516821 -3.664875 -2.217182 -3.343831 -2.529233 -4.176468 -5.293887 -3.713755 -3.891699 -4.282472 -3.746141 -3.127107 -4.395919 -3.488516 -3.618056 -3.418791 -3.494127 -2.075366 -2.244996 -2.180530 -1.467653 -2.980289 -2.747390 -2.090499 -2.034551 -2.439970 -1.939616 -1.780424 -2.049863 -2.490449 -1.227980 -1.403059 -0.488348 -0.640484 -0.354409 0.157590 -0.027508 0.649413 0.702133 1.567064 0.784701 0.468124 1.038416 -0.336948 1.245907 1.684056 2.159046 0.551092 0.270999 1.769468 0.740090 2.564719 1.789798 0.697374 0.739882 2.216716 1.244076 1.655094 1.709088 1.447873 0.493265 0.265328 0.107115 0.199206 0.677572 1.227435 0.839876 -0.448622 -0.876815 -0.831839 -0.040779 0.401233 -0.132766 0.058972 -1.208350 -1.483506 -1.124033 -0.096128 0.809043 -0.845740 -0.622566 -2.093204 -1.456306 -0.984638 -0.964341 -0.972831 -0.234085 -2.052575 -2.360433 -1.547583 -2.169688 -3.079635 -2.710281 -2.481577 -1.445361 -1.063727 -0.538757 -2.147327 -3.075177 -1.622590 -1.867895 0.257395 -0.011912 -0.311137 -1.181083 -1.342285 -0.997618 -1.940431 -0.487052 -0.071809 -0.904564 -1.011230 -2.120015 -2.446350 -3.243039 -1.417798 -1.132595 -1.285154 -1.012386 -2.042171 -2.673764 -2.509782 -0.102071 0.917213 1.667840 1.858838 -0.376754 -0.300402 0.437904 1.193413 1.460553 0.858765 1.722538 0.381815 1.357720 0.216906 0.081624 -0.436105 0.476809 1.347160 1.145772 1.919160 0.893600 0.754108 0.157371 0.878001 -0.538749 -0.132351 0.355280 0.633824 -0.103904 -1.358637 -1.038047 -0.971358 0.407119 1.014003 1.452944 0.892492 1.305362 2.342140 1.984428 2.488773 2.534817 1.556136 2.166389 3.230714 2.903327 2.076548 1.508444 1.645656 3.512267 3.903099 4.723009 4.091879 2.659590 3.520359 2.979984 3.589779 4.536273 4.872339 2.607890 1.920974 1.853923 2.188081 3.494654 3.529401 2.135729 3.141269 3.768916 2.088087 2.326228 3.107286 4.455184 4.762033 4.846955 4.059494 4.619450 5.075817 4.506073 4.885602 4.059832 4.696088 5.051611 4.476170 3.417324 1.476596 2.839531 3.425259 4.902214 5.850333 4.078960 4.278802 2.846693 3.309705 4.133523 4.758914 4.766380 4.089169 2.648772 1.294064 1.675930 3.008560 2.720303 2.605421 3.410231 2.259952 2.633260 2.242056 1.079599 2.331817 2.490849 1.426089 1.365903 1.971006 0.379595 -0.850973 -1.021906 -0.042043 -0.386371 0.798225 -0.566245 -1.689944 -1.885645 -0.173896 0.349136 -0.546935 1.426018 0.495481 0.573688 1.730636 1.996693 0.949344 1.802958 2.060171 1.879035 1.885079 1.411314 -0.340002 1.524489 3.245981 1.957694 2.242262 1.329235 0.652845 1.883386 3.615140 3.116236 2.271781 2.182630 2.985060 3.111875 3.208957 3.548594 3.785863 3.425983 3.224815 3.727945 4.342980 4.430734 4.450566 4.133851 2.596976 3.112447 4.475408 3.622815 2.486269 4.883706 3.657926 2.769012 2.122183 0.942856 1.360734 1.908685 2.065896 0.859063 1.765092 0.982895 0.525649 0.067516 0.683137 0.192161 1.237487 1.876007 0.606766 0.585970 -0.702405 -1.062112 -2.058027 -0.515849 -0.350723 -0.198611 -0.429625 -0.576766 -2.047240 -1.718896 -0.433433 -1.065601 -0.132345 -0.493927 -2.167086 -1.334586 -1.273352 -1.676471 -2.678685 -1.559850 -1.809710 -1.357890 -1.185055 -3.292712 -2.418986 -1.503030 -0.927648 -1.118686 -1.476098 -1.647820 -2.577970 -0.876092 -0.097854 -0.369591 -0.829394 -2.197989 -2.357802 -1.968137 -0.690711 -1.469199 -1.568477 -0.545621 -3.162944 -2.959439 -1.534925 -1.489433 0.149516 -0.548788 -1.776603 -3.344021 -2.940626 -0.337366 0.392654 -0.234781 -0.997953 -1.387333 -0.233740 0.215730 1.862284 1.543578 2.166987 1.954028 0.899256 2.153468 1.582328 2.703541 3.772978 3.319279 1.340766 1.457461 2.054754 1.757520 2.698703 3.263939 2.785035 4.315292 3.422893 3.499535 3.190352 2.607832 3.569372 5.655952 6.096858 3.894396 3.523577 3.337799 3.213271 4.169009 4.530259 5.297526 4.761587 3.932504 3.626152 2.696714 2.346303 2.845496 4.113303 2.554659 2.707368 1.599005 2.013453 1.388607 0.315928 0.176018 1.360609 1.991019 0.014414 -0.484811 -0.720452 -2.099394 -2.488145 -1.148574 -1.289164 -0.427588 -0.168551 -2.081658 -2.309575 -1.663922 -0.533267 0.039658 0.681063 -0.543599 -0.741559 -0.700007 -1.071280 -0.812431 -1.806335 -0.935420 -1.752239 -2.046734 -1.060576 -2.046234 -2.771299 -3.452920 -2.869713 -2.621116 -2.247173 -1.699133 -3.224948 -4.202280 -3.677023 -3.417500 -3.178821 -3.464881 -2.290271 -2.003058 -2.352536 -2.061633 -2.435580 -2.914548 -3.336565 -2.086902 -1.551357 -0.991636 -1.360633 -2.677426 -3.904560 -2.565023 -1.259920 -0.749271 -1.207049 -1.348247 -1.686787 -1.690301 -1.649373 -1.683216 -1.547197 -1.386720 -1.707078 -2.485325 -1.199621 -0.739027 -0.101911 -1.064968 -0.764865 0.348715 0.437906 0.803864 0.895189 0.799546 0.764496 0.593531 1.035167 -0.538282 0.766617 2.315683 2.658339 3.042439 0.686776 1.713046 2.532023 3.858083 3.887648 3.133104 3.385442 2.596071 2.937551 2.093890 1.486955 0.176607 1.331704 1.877331 1.105776 0.950528 0.273420 -0.561427 0.462571 3.004541 2.170755 1.797390 2.088153 1.153134 1.755545 2.079250 1.703070 -0.462843 0.165063 0.694231 -0.196548 -0.129675 -1.711460 -1.342452 -1.112390 -1.409093 -1.887897 -2.188801 -0.684999 -0.719349 -0.617252 -1.809333 -3.305531 -0.862562 -0.834436 -0.024630 -0.214405 -1.344746 -1.662395 -1.599185 -2.262111 -2.025428 -1.027646 -1.288011 -2.106159 -3.229006 -2.827083 -2.991620 -1.922326 -1.701460 -1.755525 -2.383919 -2.789272 -2.973351 -2.647765 -2.507345 -1.112963 -1.554863 -1.435101 -1.877399 -1.956345 -1.383362 -1.603708 -0.844963 -1.459343 -1.314047 -1.909183 -1.940189 -3.995251 -3.582537 -2.625420 -3.300814 -2.997180 -2.779357 -2.867628 -2.722435 -2.438807 -1.698576 -2.316711 -1.696361 -0.621201 -1.406554 -1.708852 -2.099775 -2.177996 -1.649390 -2.264151 -2.163631 -2.744206 -2.525468 -3.842158 -3.708085 -4.536186 -4.074515 -3.195473 -4.609170 -4.743491 -5.287906 -5.692169 -4.730975 -4.923278 -5.930007 -5.710791 -6.119756 -5.761179 -7.089968 -7.497805 -7.156678 -7.862073 -6.203132 -6.289994 -6.933281 -5.924465 -7.239093 -6.269647 -7.278166 -6.394408 -5.788316 -5.563816 -5.173288 -6.652606 -5.979134 -5.875430 -4.461099 -5.576085 -5.623321 -4.272691 -4.524387 -4.259982 -4.594965 -4.903543 -4.320001 -3.994994 -2.814239 -2.534495 -3.009882 -2.225552 -1.778009 -2.960152 -1.594602 -1.220415 -1.134112 -1.422840 -1.522379 -1.377198 -1.483006 -1.185127 -1.599987 -0.248848 0.172282 -0.093021 -0.422997 -0.598186 -0.923496 0.528185 0.654480 1.196265 -0.221431 -1.083336 -0.812063 -0.899227 -0.910218 -0.620221 -0.616787 -0.940295 -1.106932 -1.394313 -1.575231 -0.881134 -0.461107 -1.324799 -0.528339 -0.727186 -1.424282 -1.230558 -1.762530 -2.045573 -2.258324 -0.567605 -1.142722 -1.278788 -0.916456 -0.841103 -1.717117 -1.071005 -0.118051 0.054674 0.863563 1.085719 0.243672 0.885718 1.159460 1.568491 1.791736 1.256016 1.367588 1.355096 0.591059 0.164689 0.357992 -1.152364 -0.268303 0.449434 -0.077434 0.688933 -0.579544 -0.133396 -0.344484 -0.858679 0.424178 0.786236 1.540119 1.207729 1.174988 0.022008 -0.174160 0.698179 2.676542 2.776672 2.530524 0.948844 -0.768815 0.125133 0.310753 1.146451 0.761611 1.167957 -0.056652 -0.533153 0.405496 -0.472114 0.401385 1.226698 1.230958 1.537953 1.156378 1.000003 0.612511 0.981669 0.833636 2.160823 2.043656 1.278049 1.162300 0.742683 0.137237 0.103467 0.426316 1.538465 1.477462 0.260023 0.223144 -1.111156 -0.779339 0.363172 1.166152 1.518399 1.389315 1.300921 0.754539 0.186064 1.723789 2.509146 3.134047 2.542840 1.049726 -0.030660 -0.238829 0.314064 0.091642 0.154942 -0.567285 -1.115489 -1.248257 -1.137765 -0.243897 0.353488 0.727186 0.878888 0.995239 0.188351 1.207932 1.794863 1.684625 1.191639 1.119051 1.754782 1.536281 1.416793 1.602955 1.134126 2.804856 2.656042 2.591202 2.085211 1.212192 2.227677 3.079220 3.570506 2.610210 2.800760 1.617116 2.629862 1.880794 3.409054 3.514825 2.345263 1.841837 2.207157 1.915198 1.116867 1.268570 0.733800 1.151413 1.186753 0.911115 -0.872945 -1.181798 0.443392 1.259899 1.486511 1.131397 0.634545 -0.404373 -0.150935 0.195599 1.039616 0.707591 0.019023 -0.506634 -1.528443 -1.237032 0.200564 1.263413 -0.399632 -0.454790 0.067578 -0.128747 0.015344 0.466276 -1.072530 -0.679858 0.496948 -0.806363 -1.433788 -1.781207 -0.636869 0.097472 -0.005651 -0.972529 -1.605398 -0.070335 -1.375491 -0.895150 -0.076568 -0.956807 -0.801511 -2.052933 -3.274653 -2.943074 -2.121480 -2.227823 -3.674645 -4.296437 -4.741869 -5.247730 -5.734048 -5.708898 -5.756458 -5.264377 -5.044755 -4.972303 -5.467269 -5.392189 -4.180471 -4.719118 -3.503956 -3.579046 -2.781000 -2.863287 -4.220237 -3.881404 -4.416568 -4.163691 -3.637154 -3.342194 -4.387218 -4.316758 -4.574733 -4.701376 -4.630503 -4.027079 -4.335259 -3.175497 -4.303328 -5.385352 -4.243596 -4.665525 -4.750231 -4.352773 -4.996404 -3.884938 -3.360094 -4.091057 -4.409366 -3.979227 -4.238209 -3.672431 -2.784741 -3.839271 -3.455591 -3.876918 -4.223991 -4.115273 -2.722512 -3.233462 -3.769663 -2.648692 -1.951756 -2.192623 -2.754967 -2.470993 -2.391966 -2.692151 -3.434922 -2.337527 -1.769211 -2.524992 -2.836284 -4.076982 -4.082362 -3.368568 -1.861110 -2.061503 -3.994538 -2.984584 -3.380405 -3.336390 -3.286649 -3.461185 -3.424179 -2.184863 -2.508447 -2.257440 -2.607334 -3.550217 -3.698271 -2.754895 -2.757709 -1.482793 -1.418499 -2.811580 -2.776916 -1.980764 -1.434014 -1.708044 -0.684971 -0.998156 -0.436138 -1.075638 -1.664172 -1.696203 -0.853085 0.009623 0.391395 0.835693 -0.356323 0.878159 0.107750 1.115068 2.070698 2.563121 2.378187 1.160091 1.575928 1.082201 1.528385 1.521511 1.031018 2.826674 2.440851 2.811860 2.077675 2.406566 1.462390 2.979776 4.359916 4.156811 3.783093 2.665083 2.007379 1.044515 2.977149 3.394443 4.178184 3.565545 2.169327 1.776005 1.999507 3.470716 4.017983 2.832941 2.433841 2.873524 1.576713 1.830056 1.644466 1.526811 1.742716 1.066517 0.993485 1.406396 1.069451 1.128548 0.603690 1.787532 2.044129 2.491035 2.482442 0.833585 1.579960 3.416617 3.287113 4.151625 3.931247 2.280264 3.424778 3.618691 3.542691 3.451820 4.667656 4.319088 4.307348 4.274167 3.459174 3.999136 4.571482 5.223606 4.201078 3.901942 3.015989 3.140939 3.093183 3.534216 4.452245 4.015536 4.092724 4.651848 5.055926 4.922388 5.162844 5.620911 6.316811 6.900045 6.532761 6.201481 6.308803 5.751329 6.883757 6.543040 6.338301 6.276216 5.828883 6.286152 6.032228 6.331843 7.076484 7.537504 7.812826 8.580654 7.709298 6.846053 6.961964 6.933261 7.938762 7.445731 7.657114 6.913390 6.170543 6.122538 6.339141 8.918204 10.858793 10.815097 11.001147 12.476915 13.099687 15.574127 16.960548 17.774753 18.578116 18.441764 19.413293 17.804496 17.340113 16.820180 17.376488 19.276533 17.864691 17.018335 15.837483 14.692665 17.442178 17.567821 16.093255 14.433186 14.375744 14.022922 14.635118 14.859309 13.843652 14.432251 14.439827 14.758046 14.405432 13.863348 14.837936 15.630029 14.501422 14.313602 14.073125 13.993433 13.626148 14.122721 14.515589 13.272548 13.628019 14.423063 14.317219 12.379102 14.173136 14.756638 13.875225 14.594780 14.153527 12.997874 14.192026 14.320133 14.996125 14.712200 15.102282 14.184286 14.090060 16.573276 16.920217 16.654812 15.999307 15.243322 15.187117 15.880125 16.440950 16.032829 15.882065 17.154555 17.180335 17.467446 17.542793 17.673527 18.091524 16.157910 16.340234 16.395891 15.762711 14.229082 14.049606 14.653590 13.451806 12.742037 13.336343 13.308391 14.219435 13.619313 12.781397 12.134027 12.355044 13.568898 13.121567 12.776400 12.749386 14.077432 13.607840 11.767166 12.168542 12.639211 12.938354 13.003431 12.158036 10.227382 11.267948 12.956913 12.736614 12.065366 11.008429 10.581223 11.354962 10.727805 11.362518 9.963363 9.529830 9.839221 9.797613 9.568578 11.153086 11.980482 10.403597 9.769697 9.950389 10.747279 11.362103 11.176713 10.520711 9.587806 9.401578 9.885651 9.507453 9.844360 10.401830 9.527893 7.695433 6.913464 7.741209 7.119418 8.458353 7.875849 7.427853 6.843594 6.397114 9.369501 8.965548 8.398965 8.054716 7.896299 8.297413 9.507017 9.514482 8.664839 7.850743 9.051103 8.786033 9.686392 9.632346 8.925297 8.718908 7.980679 9.028349 9.339923 9.436872 8.319247 8.383284 8.689963 8.477110 8.068112 7.764679 7.268355 7.491444 7.086394 6.380696 7.732327 6.426791 7.310883 6.879076 7.323690 7.023291 6.065133 6.512949 7.614165 6.733171 6.712581 6.250948 5.360954 6.363329 8.525557 8.670449 6.564870 5.360918 5.247165 5.672034 6.893684 6.806463 5.991039 5.088696 4.240534 4.974515 5.430969 6.653167 5.977921 4.996073 4.434376 4.380610 4.976014 5.128577 5.273219 3.997574 3.643987 4.144098 4.201435 5.367997 4.644439 3.935441 3.437352 4.665802 5.615108 5.779042 5.572068 5.067299 4.820077 5.191674 6.596903 6.870735 5.860458 5.387994 5.619517 7.010122 7.533786 7.430590 5.928462 6.059204 6.508920 7.311206 7.832869 5.659093 5.157164 5.007747 4.968040 4.139628 3.979088 3.344108 3.397546 3.675556 2.190283 1.950844 1.586615 2.248801 2.619009 2.756674 1.984824 2.145915 2.584719 3.387600 2.623775 1.761858 3.120509 2.555836 2.345969 2.308019 2.380188 1.046439 2.055724 0.962659 0.283627 1.965367 1.740229 0.650244 0.245820 -0.741878 -1.644879 -1.508941 -0.877360 -1.013402 -0.637382 -1.691424 -2.843007 -2.617175 -1.014608 -0.758477 -1.242179 -1.468209 -1.928443 -2.007515 -0.098196 -0.870529 -1.759704 -0.568711 -0.833434 -1.313579 -1.080428 -0.676401 -1.278987 -1.591721 -1.291911 -2.270668 -1.498721 -0.331395 -0.455080 -1.811742 -1.479464 -2.315148 -1.506160 -1.187202 -1.667141 -1.902264 -1.575948 -1.155307 -1.062148 -0.884206 -0.448683 -0.372302 -0.605677 -0.568854 0.353994 0.348801 1.691801 1.509000 1.121971 1.281608 1.338907 2.959748 4.287441 3.661699 2.841901 1.863787 1.606985 3.096745 3.029437 2.741687 2.848162 2.454476 2.289897 3.719212 3.497159 3.462049 3.644645 4.161615 3.355054 4.458941 3.851089 2.820180 3.692252 3.145938 2.523964 3.124659 3.856065 2.532589 2.339829 2.055341 1.588021 3.455253 3.024446 2.883709 2.904086 3.781117 3.148037 2.100267 2.547712 3.210142 3.053680 2.920681 3.008357 2.485411 2.946813 3.150857 3.084983 3.046764 2.713777 1.946062 1.106644 1.996978 2.938785 2.406053 1.614977 1.050678 0.684504 1.254714 2.143415 1.542115 1.025158 1.206806 0.089054 0.676416 1.138081 1.039895 0.588876 0.444062 -0.542766 0.282043 0.778201 1.317776 0.263751 0.424663 -0.642971 -0.115149 0.852421 1.532693 2.586242 2.161730 1.296564 0.736209 1.714353 3.137297 3.815541 3.490175 3.307935 1.966110 1.011523 3.015124 3.666593 3.103420 2.865376 1.447070 1.179369 2.305957 2.813868 3.541872 3.332690 3.092773 2.086106 1.401605 2.997762 3.251383 3.310659 2.235314 0.342297 1.500195 3.162900 3.762070 3.281415 2.812429 2.923411 3.524875 4.174094 4.888193 3.768649 2.686667 3.640835 2.862935 2.773202 3.893821 3.290788 2.698418 2.533559 2.201954 2.114344 1.814397 2.012196 1.343251 0.785013 1.160234 -0.559102 -0.529010 0.561385 0.942747 0.824978 -0.351667 -0.593587 -1.227217 -0.482336 -0.646660 -0.068581 -0.627432 -1.357606 -0.822024 -1.207511 -1.223419 -0.338860 -1.935282 -3.158615 -2.160331 -2.851289 -2.269427 -2.191411 -3.132633 -4.039458 -3.480483 -3.579229 -2.898235 -1.956368 -1.960918 -1.980723 -1.812083 -2.448424 -1.807370 -1.174385 -0.168577 -1.434139 -1.443795 -2.053932 -1.571546 -0.369701 -0.039692 -0.632870 -1.613952 -1.129531 -0.182191 0.802223 1.181521 -0.789703 -0.753103 -0.419173 -0.568933 0.046021 0.821229 0.091278 0.160741 -0.045658 -0.841205 -0.861528 1.136734 0.946709 0.264376 0.796487 0.673573 0.847458 0.747949 0.798633 0.809120 0.972185 1.088171 1.289961 0.384265 1.055212 0.736965 0.287627 -0.280550 -1.000356 -0.939759 -0.384815 0.078535 -0.720928 -0.842527 -0.682800 0.567657 0.281313 -0.269568 0.903849 1.492328 1.693662 1.188060 -0.645938 -1.479262 0.135600 2.253379 1.647197 0.843655 -0.344189 0.172169 1.169023 1.432808 1.261373 1.146130 1.079493 0.962931 0.192463 -0.090839 0.872618 0.650839 1.290742 1.240250 0.982581 0.978492 1.061061 0.649673 1.380092 1.403382 1.665017 0.733093 0.614245 0.915694 1.064138 1.972330 0.759522 1.203055 1.909156 2.322680 3.201371 2.948116 3.504004 2.608760 2.786138 2.158843 1.968555 2.386804 3.158068 1.978526 1.394725 0.877257 1.003043 2.177463 3.532546 1.954360 1.407533 1.228503 2.015998 2.967322 3.224768 2.790292 2.825144 3.402210 4.321543 4.246720 3.708833 3.530971 3.499195 4.038029 3.655058 3.428771 2.983751 2.512616 3.101055 2.974201 4.322899 4.011799 4.356661 3.934258 3.151719 3.279238 4.453192 4.009448 3.827101 3.144113 2.440251 2.246076 2.771834 3.452792 3.299560 3.714169 3.064900 3.090903 3.265724 3.060363 2.475607 1.760462 2.392912 2.584300 2.344292 1.579375 0.473764 0.856679 0.679029 1.163286 1.501434 1.392239 0.255895 0.135402 -0.501389 -0.390808 0.317352 0.493774 0.100981 -0.450723 0.794887 0.690987 0.451300 2.438225 1.772031 2.177661 2.006967 0.881210 0.271330 0.501341 1.834415 0.536402 -1.077788 -2.045764 -1.159353 -0.094523 -0.012958 -0.360647 -1.644567 -1.823088 -1.229858 0.313591 -0.023057 -0.837412 -0.189690 0.322679 0.730966 0.267627 -0.126397 -0.716601 0.548575 0.553379 0.932268 0.149432 -0.386474 0.028948 -0.463939 1.199544 1.313306 1.465055 0.194322 0.240848 -0.112218 0.897089 0.952558 -0.338103 0.358482 -0.585726 -0.554184 1.109924 1.613656 0.212132 0.227340 -1.004287 -1.066177 -0.001532 0.102380 -1.847924 -2.897581 -2.595043 -2.686475 -1.763152 -2.045139 -2.525757 -1.445552 -0.455416 -0.543993 -0.667395 -2.003727 -0.313432 -1.030060 -0.287257 -1.219825 -2.028276 -2.434860 -3.199647 -2.726026 -1.931692 -1.567337 -2.293061 -3.213937 -3.925129 -2.102064 -0.622399 -1.472666 -2.926806 -3.215758 -2.193117 -1.347890 -0.786005 -1.453617 -1.712157 -0.731669 -0.999590 -1.149130 -1.039356 0.064152 -0.004932 0.157412 -0.682878 -2.267284 -1.396456 -0.296970 -0.494180 -0.182914 -1.245553 -2.809613 -1.721815 -1.258784 0.260419 -0.059283 -1.575849 -1.016781 -1.062556 -0.186542 0.081928 0.427056 -0.036514 -0.131116 -0.141967 0.088496 0.747522 1.050918 1.081165 0.192497 -0.563053 -0.314773 -1.026081 -0.352586 0.734918 -1.085806 -1.722112 -2.277798 -2.331481 -1.429273 -1.794861 -2.653124 -3.622966 -3.874958 -3.893799 -5.075525 -3.512623 -3.810993 -3.832458 -5.000335 -5.203111 -4.944651 -3.971817 -3.788952 -4.291892 -4.160815 -4.353151 -5.163652 -4.664592 -5.270065 -5.063431 -5.632272 -5.654059 -5.066547 -6.422675 -7.174998 -6.813020 -6.118081 -4.490863 -5.547170 -5.815652 -6.575038 -6.640134 -5.909206 -5.653650 -5.431021 -5.315286 -5.713785 -6.972411 -6.489145 -5.892420 -5.125824 -5.461870 -5.696331 -6.435413 -5.952187 -5.801647 -5.765063 -5.833109 -4.507815 -4.834289 -4.654459 -6.819533 -6.729238 -5.019406 -4.132575 -5.115131 -6.122047 -6.433786 -5.508214 -3.778064 -3.710318 -3.697393 -2.599206 -2.102049 -1.852708 -2.223641 -1.260669 -1.145190 -1.120921 -1.349517 -1.888477 -1.157232 -0.255743 0.313235 0.251480 -0.283709 -0.922751 -0.323004 0.721465 2.095964 1.436172 0.212587 -0.500917 0.018149 0.843157 1.324006 0.444174 -1.582525 -1.647212 -1.848246 -1.723620 -1.966285 -1.588808 -2.028067 -2.484493 -1.465303 -2.128018 -3.630286 -2.616937 -2.818394 -2.968840 -2.434498 -3.256377 -4.389718 -3.642844 -4.115570 -3.931358 -3.515093 -3.653167 -4.443590 -4.074717 -4.067039 -4.378912 -4.371177 -4.473839 -3.828270 -3.530250 -3.657928 -3.637098 -4.447100 -4.598080 -4.143251 -4.222460 -3.404853 -4.075571 -5.324759 -5.494124 -4.534859 -4.298736 -3.561640 -4.461926 -5.271135 -6.487265 -5.908095 -5.425597 -5.232261 -5.204480 -6.389474 -7.140273 -6.765916 -6.312646 -5.665175 -5.371926 -6.003183 -6.754025 -5.965704 -6.245387 -4.993503 -4.651822 -5.994171 -6.348531 -5.984436 -5.616558 -4.513200 -4.511948 -4.887313 -4.906943 -4.628971 -5.044339 -3.920037 -4.447347 -4.268147 -3.330308 -3.534427 -4.425257 -4.817410 -6.065770 -5.047595 -3.840964 -3.462017 -3.832165 -4.326633 -5.273259 -5.445164 -4.158564 -3.563185 -3.244508 -3.740287 -4.125221 -5.219232 -4.430229 -2.676166 -2.298420 -2.238496 -2.148874 -3.364787 -2.790648 -2.369275 -2.624639 -1.874438 -3.025094 -2.700527 -2.819537 -2.555830 -2.526339 -2.453387 -1.558639 -1.516684 -1.512895 -1.119020 -1.014762 -0.731462 -1.386977 -0.390596 -0.986498 -0.685692 -0.420921 -0.269282 0.135509 0.687549 1.025899 0.421875 0.150316 1.671207 1.080281 0.061986 -0.123447 -0.844406 -0.698994 0.379960 -0.952989 -2.237304 -2.404214 -1.104199 0.436961 0.426365 -1.038955 -1.636818 -1.749127 -0.667390 0.313274 0.064968 -0.651068 -0.696363 -0.480729 0.056787 -0.376975 0.298227 -0.509116 -0.697736 -0.663012 -1.011474 -1.929424 -1.534587 -0.983289 -0.812683 -1.689768 -2.177268 -2.453554 -2.566032 -1.974924 -2.213656 -2.314812 -2.965299 -2.910989 -2.359432 -2.683115 -2.318308 -1.819494 -1.857370 -2.460378 -1.871038 -2.615100 -2.641509 -1.448895 -2.277467 -3.096614 -2.378281 -3.620180 -3.243477 -2.663428 -2.063103 -2.005223 -2.382177 -2.734778 -2.625666 -2.027835 -0.861318 -0.960160 -1.633307 -1.988490 -2.971684 -2.417415 -1.881686 -1.882295 -1.793132 -1.321366 -2.851847 -2.694294 -3.677086 -4.418473 -2.721885 -1.577494 -2.052870 -3.067023 -3.554115 -4.434178 -3.612593 -2.047699 -1.884198 -2.826022 -3.272952 -3.921940 -4.183432 -4.494354 -3.991348 -3.861873 -3.361630 -3.954519 -4.508427 -4.585882 -4.297148 -4.337970 -3.938777 -2.896265 -2.343708 -2.913908 -3.161700 -3.784680 -3.220870 -2.374805 -2.420009 -2.432415 -3.557784 -4.694199 -4.673171 -4.897020 -4.600922 -5.082634 -5.450955 -5.361894 -5.101438 -5.546449 -6.121620 -5.448285 -4.419767 -4.579035 -4.205447 -4.614382 -4.918992 -4.094460 -3.436730 -3.258922 -3.075947 -4.455120 -4.229031 -4.300681 -4.500345 -4.647877 -4.930402 -4.481119 -3.565751 -3.428435 -4.395074 -4.681168 -4.010581 -3.059036 -2.954764 -3.080965 -3.940769 -3.890639 -3.020132 -2.736698 -2.172501 -1.911602 -0.449178 -1.545588 -1.496661 -1.463822 -0.901460 0.139874 0.820777 -0.299701 -0.196562 -0.175781 -0.368116 -0.459967 -0.193012 -0.515840 -0.369138 -0.182932 -0.093031 0.529261 1.327173 0.889856 0.201741 0.622407 0.791012 0.740911 1.064397 1.541477 1.068329 0.838931 0.469703 0.913362 1.103217 1.463462 1.723447 1.328475 1.615533 1.163684 0.757842 0.849906 0.229552 -0.259463 -0.299698 0.459364 -0.031641 0.006804 -1.334860 -2.723290 -2.336044 -1.422561 -1.556106 -1.862492 -2.896743 -3.204979 -3.821110 -2.435460 -1.229638 -1.340401 -2.275678 -1.865578 -2.090689 -1.725961 -1.117795 -1.720140 -2.339235 -1.730849 -1.350292 -2.226085 -0.866408 -0.294166 -0.840702 -0.182041 0.733562 0.085989 0.111103 -0.458560 -1.225264 -0.644704 -0.050923 -0.516317 -1.141498 -1.100757 -0.620133 0.125103 0.123529 0.589189 0.524220 0.391322 -0.513731 -0.092471 0.065955 1.446881 2.026506 1.695050 1.045248 0.500220 1.025856 1.340004 1.128718 1.304166 0.203635 -0.377542 -0.714636 -1.353432 -0.727506 -0.353549 1.256667 0.600149 -0.400902 -1.136446 -0.977759 -0.417780 -0.385638 -1.079279 -1.815643 -2.315406 -2.132963 -1.624424 -2.316486 -2.774242 -1.775709 -1.893911 -0.055976 0.199181 -1.609692 -2.676347 -2.350176 -0.984099 -1.197250 -1.564909 -2.150563 -1.571466 -1.747569 -2.234119 -2.085361 -1.369887 0.477159 1.149134 -0.026038 -1.625586 -0.953615 -0.692737 0.505388 -0.219051 -1.480769 -1.530734 -1.330462 -0.793416 -0.519830 -0.932445 -0.095014 -0.238051 -0.037478 -0.364388 -0.400788 -0.074742 1.040570 0.464778 0.646517 -0.903335 -1.086032 -1.222511 -0.504447 0.202999 0.613152 -1.414541 -1.228176 -1.753812 -2.523217 -1.041547 -1.504302 -1.522855 -1.604061 -2.515143 -2.928808 -1.889908 -1.969927 -1.926027 -2.035191 -2.587730 -2.640264 -3.079998 -2.811514 -3.220132 -3.347673 -4.561599 -4.801437 -4.049265 -2.905833 -3.081560 -3.890732 -3.865785 -4.012416 -3.691380 -3.674421 -3.450468 -3.605472 -4.381865 -5.199289 -5.244992 -4.585068 -3.839524 -4.341845 -5.970685 -5.767771 -5.073886 -5.536886 -5.338534 -6.624246 -6.756120 -5.665549 -5.002138 -5.262283 -5.315780 -4.678138 -4.643864 -4.741397 -5.462562 -5.904916 -5.559792 -5.566838 -5.639609 -6.032292 -6.523239 -6.769202 -6.516718 -6.358513 -5.525735 -6.394722 -5.929723 -5.189882 -5.605830 -5.386525 -4.716544 -4.360368 -4.713349 -4.710512 -5.175671 -4.904963 -3.979635 -4.394150 -3.890744 -3.243780 -4.460220 -4.467481 -4.535987 -4.396499 -3.718174 -3.095390 -2.739544 -2.045882 -3.234149 -4.370997 -4.511674 -3.397570 -2.032893 -2.310823 -2.213825 -3.289948 -2.905628 -2.503870 -1.884838 -2.120849 -2.160107 -2.294536 -2.806332 -2.490879 -3.084883 -1.928515 -0.788947 -0.323959 -1.195666 -2.095191 -2.068666 -1.279758 -0.291476 -0.785700 -1.961621 -3.048879 -3.119881 -2.414685 -2.017694 -1.618542 -1.412021 -2.564567 -2.757746 -2.366848 -3.048203 -2.994195 -2.132930 -2.503266 -1.963072 -2.647904 -3.121697 -3.114941 -1.863213 -1.427245 -2.153058 -1.385231 -2.028439 -2.117462 -1.452739 -0.833923 0.065519 -0.024180 -1.411312 -1.531353 -1.779849 -0.255201 -0.381580 -0.472453 -1.302069 -1.390908 -1.433923 -1.205062 -1.122505 -1.259180 -1.605123 -1.445368 -2.805142 -2.756743 -2.824980 -1.738018 -1.853668 -2.179860 -2.812217 -2.250360 -2.099444 -1.593881 -0.671001 -0.883574 -1.973337 -2.682853 -2.958019 -1.981389 -1.350037 -1.311733 -2.725346 -2.822018 -2.566499 -2.591587 -2.592145 -1.835368 -1.877040 -1.399924 -2.015397 -3.276587 -3.250716 -3.208607 -1.489474 -0.105682 -1.227761 -1.886932 -3.051811 -2.366917 -1.694718 -0.968835 -1.573657 -2.226828 -1.523098 -2.783336 -3.551253 -2.565449 -2.289218 -1.748689 -3.248536 -5.110336 -5.583250 -3.708254 -3.231449 -3.202334 -4.770964 -5.654675 -5.904798 -4.113592 -3.872706 -3.494666 -3.775102 -4.504666 -4.794106 -4.871629 -4.810308 -4.380018 -3.856819 -3.739353 -3.428027 -4.278236 -4.944507 -4.579601 -3.650546 -2.615177 -1.585714 -2.969061 -4.108891 -4.235611 -3.675242 -3.383383 -3.392979 -3.981134 -3.817743 -3.775818 -3.422250 -3.470966 -4.810319 -3.868081 -2.726139 -3.323540 -3.169111 -3.545329 -3.729739 -4.397168 -3.679665 -3.682815 -3.679766 -4.314729 -5.226821 -5.784820 -5.490723 -5.288373 -5.617811 -5.791370 -5.211856 -5.212031 -5.163467 -6.317141 -5.901912 -6.085125 -4.721476 -4.797876 -5.603097 -5.827415 -6.096811 -5.542269 -4.573530 -4.639889 -4.542586 -4.218265 -4.858611 -3.292410 -4.353373 -3.947810 -3.271202 -3.597250 -4.197090 -5.193395 -5.586712 -5.460924 -4.224490 -3.342890 -4.067891 -4.926766 -5.207247 -4.199232 -3.916806 -3.668012 -4.252200 -4.449768 -3.648139 -3.549594 -4.444279 -4.701642 -5.026145 -4.166487 -3.013724 -1.836105 -1.942881 -3.839551 -4.817113 -4.332618 -2.435622 -1.283988 -2.640238 -3.749898 -4.594855 -4.525838 -2.753288 -1.547604 -2.776357 -2.941617 -3.524452 -3.472492 -2.590269 -2.191180 -2.871969 -2.555862 -2.212435 -1.695887 -1.669056 -1.279805 -1.362458 -2.243857 -1.929523 -1.203846 -0.966443 -2.136488 -2.742562 -2.308371 -2.374645 -1.938620 -2.172499 -3.609678 -2.973684 -2.388116 -2.960166 -3.331218 -2.313716 -2.654221 -3.141095 -3.162179 -3.955276 -3.316882 -2.868422 -3.750431 -4.388274 -4.507728 -4.224446 -4.707810 -5.995607 -7.315647 -6.844108 -6.336168 -5.884802 -6.360895 -7.421845 -7.394823 -6.557006 -6.361909 -6.290000 -5.744994 -6.291847 -6.649842 -8.316585 -7.891908 -7.484514 -6.688415 -6.503835 -7.583762 -8.423017 -7.567354 -6.494576 -5.708800 -5.011128 -6.575193 -6.768732 -5.635515 -5.198738 -5.159769 -5.772018 -5.623754 -4.971042 -4.538859 -5.557105 -4.959093 -4.790745 -3.382397 -2.990990 -3.854993 -4.368092 -3.920634 -3.992615 -3.237930 -3.126753 -3.391810 -3.667123 -3.229852 -3.451363 -3.342082 -2.931336 -2.588521 -3.351684 -3.713766 -3.099786 -2.833264 -1.861645 -2.228830 -2.838696 -2.536595 -1.940391 -1.837085 -1.505628 -2.461393 -2.509964 -2.878610 -2.976785 -2.939921 -2.767390 -3.060622 -3.215282 -3.435514 -3.421254 -4.339758 -4.121776 -3.201710 -3.749321 -4.415252 -4.671142 -5.412393 -4.519631 -4.017945 -3.772458 -3.148209 -2.363156 -2.896304 -2.875178 -2.991995 -2.916259 -2.340517 -3.685812 -4.511638 -4.236389 -4.816121 -5.064760 -4.682818 -2.787275 -3.048770 -2.839515 -4.075192 -4.572930 -2.734174 -2.433635 -3.390934 -4.159323 -3.690921 -5.006016 -4.395987 -4.899639 -4.519380 -4.611453 -5.145595 -5.598795 -5.881995 -5.861219 -5.596046 -5.570230 -4.926962 -5.042160 -5.244921 -4.601246 -4.725623 -3.733389 -3.002740 -4.144005 -2.814658 -3.633912 -4.177146 -3.076040 -2.351207 -2.921108 -2.247831 -2.330713 -3.297639 -2.398336 -2.168199 -2.470738 -1.254551 -2.544506 -2.903844 -2.916487 -3.239545 -3.002371 -3.935272 -3.632523 -2.284787 -2.983143 -3.601747 -3.561884 -4.461015 -2.799985 -2.895825 -3.363716 -3.682562 -3.858570 -3.502047 -3.550250 -2.502851 -2.862606 -2.398606 -1.801161 -2.066993 -2.352792 -2.464263 -2.962014 -2.837279 -2.309275 -2.467482 -2.689803 -3.894762 -4.570436 -4.583722 -3.859272 -3.409518 -3.451346 -4.373380 -5.404698 -4.842679 -3.929811 -2.258241 -2.363707 -4.092188 -5.116195 -4.550386 -3.702275 -3.901420 -4.941236 -5.060155 -4.669019 -3.716294 -4.465920 -5.257808 -4.566991 -2.706356 -2.308333 -3.165276 -3.835645 -4.721923 -3.748215 -3.689510 -3.816848 -3.789944 -3.876063 -4.605368 -4.826868 -5.091696 -4.252269 -2.423098 -2.887650 -3.446007 -4.720207 -4.343067 -3.725038 -3.267056 -3.192226 -2.905605 -3.358548 -4.739489 -4.352269 -2.979116 -2.579839 -1.732913 -2.164078 -3.350403 -2.732228 -2.788689 -3.018928 -2.036941 -1.694816 -1.447436 -2.374126 -2.066411 -1.335184 -1.522325 -1.242891 -1.798054 -1.977457 -1.683005 -2.469610 -2.676298 -2.880807 -2.997243 -2.721224 -2.299424 -2.075564 -2.863485 -3.933623 -4.177822 -3.201786 -2.179517 -2.832680 -3.288634 -3.335666 -3.993668 -4.743101 -5.175150 -4.944538 -3.797068 -4.236705 -4.544434 -5.407175 -6.311371 -5.576219 -5.565988 -5.319416 -4.862030 -4.396118 -4.746408 -4.433664 -5.278672 -4.725047 -3.713697 -2.607309 -3.256937 -4.111881 -4.672370 -4.892026 -4.711878 -4.328124 -4.488493 -5.148077 -4.761922 -5.204500 -4.531800 -4.486197 -4.066858 -3.739119 -4.081266 -3.858311 -4.296643 -4.407803 -4.067906 -4.391250 -4.935615 -5.576854 -5.883802 -5.771862 -4.026583 -4.355384 -5.214624 -5.430398 -5.594641 -4.453367 -4.395818 -4.705353 -4.641055 -5.238095 -5.035001 -4.944400 -5.149053 -4.011906 -3.756815 -4.832634 -4.192911 -4.410859 -4.610136 -3.941519 -4.079467 -4.755191 -4.877384 -5.815673 -6.755420 -5.596578 -5.448212 -6.665189 -6.644934 -6.817579 -6.130283 -5.632346 -5.790387 -5.560146 -3.956103 -4.680164 -4.873434 -4.722087 -5.420532 -4.199257 -3.627060 -4.763910 -4.584857 -5.733863 -6.353080 -6.087562 -6.108014 -6.801068 -7.022915 -7.099892 -7.548319 -7.541655 -7.870151 -6.666037 -5.748917 -4.912062 -5.478243 -6.199626 -6.096853 -4.953727 -3.850913 -5.003319 -4.727921 -5.330454 -4.488939 -3.888453 -4.344660 -4.626258 -3.668035 -3.561769 -3.082346 -3.627337 -3.583701 -2.928343 -1.987657 -2.557803 -2.685757 -3.023979 -2.052916 -0.457647 -1.534589 -2.270356 -3.285536 -3.243120 -1.894785 -1.063510 -1.842094 -1.743543 -1.502115 -1.063017 -0.112417 0.763981 0.563794 1.947278 0.926595 0.379763 -0.200604 0.006203 -0.246955 1.279064 0.041115 -0.778771 -1.374749 -1.316716 -0.547697 -0.178404 0.253982 -0.217489 -0.227733 -1.749687 -1.565320 -1.836783 -0.316893 -0.819004 -2.560606 -3.589136 -3.823038 -1.050205 -1.122905 -1.434917 -2.493895 -2.810665 -2.428368 -1.737174 -2.077761 -2.821986 -2.543793 -3.098568 -3.500174 -4.150400 -4.839026 -5.285377 -5.424901 -3.909319 -3.872265 -4.849567 -5.502970 -6.153691 -5.323044 -4.874066 -4.031516 -4.571994 -4.310790 -4.743196 -5.713380 -6.567136 -5.662789 -5.650296 -5.103384 -5.301956 -6.157039 -5.823492 -5.264831 -5.372269 -5.397900 -5.138917 -5.514381 -5.015368 -5.117321 -4.398512 -4.789054 -4.213045 -4.493986 -4.509801 -3.734857 -3.916854 -4.394252 -5.364602 -5.202286 -5.339862 -5.705143 -5.279059 -6.126244 -6.893817 -5.493114 -5.029997 -4.789743 -5.448978 -6.866219 -6.771586 -6.261852 -5.625783 -5.605117 -5.990605 -6.158955 -6.010695 -6.160801 -5.229978 -4.128833 -3.712836 -3.671550 -3.795327 -5.024897 -4.481027 -4.123902 -2.700165 -3.523505 -3.994290 -4.287661 -4.562425 -3.735371 -3.236792 -1.847501 -1.617195 -1.560582 -3.063854 -2.839324 -2.420201 -1.262596 -0.540312 -1.786560 -2.917441 -3.293014 -3.118162 -2.996798 -1.753375 -1.817452 -2.952075 -3.290151 -2.843642 -1.914040 -1.994629 -1.419686 -2.438792 -2.533636 -2.642266 -3.344881 -3.158191 -3.233775 -3.709456 -3.576166 -3.229316 -3.497017 -2.129938 -2.156794 -2.559112 -3.513793 -4.063528 -2.786660 -2.038717 -2.085594 -3.634228 -3.915751 -4.124780 -2.592927 -2.108649 -2.614095 -3.372176 -2.810707 -2.867012 -3.461161 -2.892531 -3.297913 -2.832667 -2.258654 -3.257089 -4.376615 -3.592979 -2.721301 -2.475874 -2.554641 -2.251838 -3.065073 -2.637996 -2.766674 -3.761954 -2.010285 -2.141358 -2.753509 -3.143199 -2.399393 -2.248729 -0.820394 -1.894125 -3.378604 -2.543326 -1.753728 -2.277313 -1.562392 -3.102121 -3.200404 -2.872827 -3.235613 -3.431116 -2.252232 -2.405991 -1.943148 -1.480154 -2.196839 -1.015218 -0.169561 -0.495516 -0.438443 -0.523742 0.770679 1.054844 0.380075 -0.089919 -0.768991 -0.115617 0.391946 0.103656 -0.457451 -0.951374 -2.080589 -1.189991 -1.635242 -1.202488 -1.667406 0.160586 0.814578 1.202498 0.591795 0.699479 2.079644 3.641686 3.179182 2.281590 1.890179 