4.534988 4.534988 4.534988 4.534988 4.534988 4.534988 4.534988 4.534988 3.743207 3.740957 3.738709 3.736462 3.734216 3.731972 3.729729 3.727487 3.725247 3.725512 3.723611 3.722269 3.720073 3.717837 3.715602 3.735399 3.733154 3.730934 3.728692 3.726451 3.724211 3.722743 3.725548 3.725691 3.807386 3.805474 3.826715 3.824637 3.822406 3.830908 3.828606 3.827858 3.825561 3.823262 3.821145 3.818851 3.826622 3.824335 3.822037 3.822679 3.821473 3.819176 3.827940 3.830445 3.828725 3.828164 3.826982 3.828235 3.826388 3.824609 3.822702 3.820405 3.822337 3.820066 3.817819 3.815863 3.820349 3.818283 3.816052 3.813837 3.811731 3.812517 3.810543 3.808310 3.806240 3.804294 3.804442 3.807500 3.811744 3.813584 3.812194 3.810031 3.807750 3.805651 3.803922 3.801737 3.799452 3.797671 3.800820 3.802040 3.801427 3.799184 3.797114 3.794873 3.792985 3.792760 3.790883 3.792958 3.792239 3.789964 3.787906 3.787185 3.786575 3.796119 3.797432 3.795174 3.795137 3.792882 3.793956 3.796371 3.794938 3.796441 3.796873 3.797612 3.795729 3.796987 3.794972 3.793868 3.793182 3.793956 3.792254 3.790179 3.789167 3.794588 3.792726 3.792636 3.791032 3.790343 3.788082 3.786384 3.789361 3.793081 3.791800 3.791112 3.792660 3.791463 3.791700 3.790694 3.790461 3.789068 3.789702 3.797759 3.796361 3.794283 3.792294 3.790684 3.788834 3.787063 3.784814 3.784237 3.782160 3.785692 3.784095 3.784009 3.782311 3.782687 3.783672 3.783762 3.783501 3.781266 3.781761 3.779870 3.780376 3.778557 3.778892 3.776839 3.776728 3.775312 3.775313 3.774471 3.775922 3.778499 3.778243 3.780261 3.779856 3.782706 3.780495 3.787543 3.785842 3.783913 3.782624 3.780796 3.779099 3.778685 3.778445 3.779326 3.781416 3.783030 3.782270 3.787662 3.786882 3.788675 3.790130 3.789864 3.788903 3.788934 3.792556 3.790876 3.790500 3.792745 3.793891 3.796027 3.797623 3.796866 3.795349 3.793119 3.792670 3.793310 3.793105 3.795143 3.793863 3.792113 3.794775 3.793378 3.797804 3.796059 3.797575 3.796783 3.794745 3.793783 3.792487 3.791194 3.792304 3.790283 3.788470 3.787767 3.791719 3.791538 3.789684 3.787783 3.788347 3.789764 3.790802 3.788625 3.792153 3.791122 3.790012 3.790136 3.789299 3.793019 3.793783 3.792248 3.798489 3.799195 3.796947 3.798680 3.797571 3.796408 3.798500 3.799639 3.798134 3.797722 3.796711 3.795116 3.792904 3.794557 3.792664 3.791068 3.789955 3.788959 3.789884 3.787764 3.789717 3.793625 3.792571 3.791155 3.790022 3.789034 3.787198 3.786184 3.785193 3.782997 3.781328 3.785123 3.783396 3.782653 3.783206 3.781812 3.785601 3.784643 3.785109 3.785785 3.784057 3.782013 3.780784 3.779579 3.780453 3.780229 3.782885 3.781129 3.779086 3.779851 3.779050 3.777754 3.777885 3.776124 3.773946 3.775296 3.776672 3.776711 3.775244 3.775898 3.776820 3.776799 3.778425 3.779235 3.778262 3.777189 3.775285 3.775088 3.775745 3.774694 3.773652 3.771500 3.771724 3.773720 3.771784 3.769842 3.770768 3.771238 3.772730 3.775726 3.774814 3.775758 3.773744 3.773149 3.772817 3.771116 3.772999 3.774646 3.773649 3.775141 3.784754 3.783660 3.787494 3.785496 3.786075 3.785017 3.782861 3.783736 3.785226 3.783929 3.783045 3.782759 3.782135 3.782230 3.781552 3.779532 3.777376 3.783799 3.782027 3.781206 3.782906 3.782588 3.781870 3.779803 3.778872 3.777615 3.779672 3.779526 3.777399 3.777723 3.776705 3.779428 3.779703 3.778827 3.777612 3.778881 3.777659 3.776450 3.776462 3.778284 3.777346 3.775926 3.774849 3.773962 3.772654 3.772701 3.771034 3.773341 3.771635 3.770315 3.768338 3.766738 3.770090 3.769739 3.768255 3.766896 3.770224 3.773052 3.773566 3.773054 3.774046 3.772132 3.772906 3.771733 3.772804 3.774004 3.774031 3.774157 3.773080 3.771768 3.769782 3.770257 3.770298 3.768406 3.773199 3.771500 3.772466 3.773377 3.773417 3.771832 3.771844 3.770810 3.770357 3.771808 3.771758 3.772944 3.772387 3.773560 3.774122 3.774194 3.774302 3.776264 3.775465 3.775014 3.776829 3.775467 3.773447 3.773317 3.774451 3.772698 3.771074 3.770028 3.770199 3.768352 3.770047 3.769724 3.768333 3.769628 3.769142 3.769057 3.768941 3.769192 3.768978 3.768385 3.769166 3.769419 3.769327 3.768817 3.767031 3.768412 3.768762 3.768151 3.771016 3.769487 3.768014 3.766628 3.767370 3.767593 3.771610 3.769475 3.769222 3.769613 3.770727 3.772728 3.772380 3.770344 3.770547 3.771699 3.771940 3.777220 3.777236 3.775025 3.773504 3.772213 3.772291 3.774334 3.776178 3.775884 3.775688 3.774729 3.775663 3.775561 3.773895 3.771656 3.774719 3.775679 3.777319 3.775176 3.774394 3.772330 3.771323 3.771508 3.770451 3.769002 3.768001 3.766974 3.766197 3.764682 3.763548 3.763128 3.765425 3.763729 3.764961 3.764395 3.765556 3.764449 3.766353 3.764485 3.766754 3.765598 3.764993 3.765495 3.766914 3.767396 3.768781 3.768203 3.766958 3.767209 3.766373 3.764419 3.763817 3.763772 3.762773 3.760681 3.759815 3.758585 3.760339 3.759018 3.757258 3.756792 3.755412 3.757413 3.756518 3.754776 3.752943 3.753530 3.752092 3.752292 3.751192 3.751342 3.752657 3.752051 3.751838 3.753385 3.757273 3.756906 3.757007 3.756896 3.756720 3.755651 3.756290 3.755968 3.755575 3.755299 3.754784 3.753145 3.752925 3.753427 3.753656 3.753666 3.753675 3.752304 3.752423 3.751077 3.749731 3.747833 3.746342 3.746954 3.746297 3.745670 3.746100 3.745240 3.744714 3.748269 3.746832 3.744960 3.747073 3.746536 3.746060 3.744881 3.745601 3.744437 3.746022 3.747688 3.747635 3.746411 3.745274 3.744383 3.744130 3.744656 3.744126 3.746290 3.745337 3.746090 3.746041 3.744542 3.745856 3.747256 3.746584 3.746541 3.745496 3.744878 3.746370 3.745118 3.745333 3.745946 3.749056 3.749841 3.749431 3.748544 3.748550 3.749344 3.749341 3.749290 3.750763 3.750041 3.749457 3.748827 3.749714 3.750274 3.749996 3.751823 3.752292 3.753579 3.752242 3.751724 3.751305 3.752528 3.751231 3.750654 3.752666 3.751212 3.751678 3.750410 3.749414 3.750574 3.750734 3.750459 3.749204 3.748182 3.747918 3.746345 3.747194 3.746468 3.746556 3.745679 3.747692 3.747871 3.749613 3.748860 3.748448 3.746604 3.746457 3.746192 3.745178 3.746815 3.746113 3.744443 3.744115 3.743497 3.745017 3.743108 3.743794 3.747235 3.751016 3.750919 3.749848 3.749279 3.747975 3.750132 3.749018 3.749533 3.749415 3.748150 3.747613 3.748004 3.749801 3.750062 3.752931 3.755227 3.755515 3.755990 3.754384 3.755728 3.755719 3.756492 3.757769 3.758120 3.756918 3.755845 3.755515 3.754912 3.754827 3.754260 3.755337 3.753447 3.752200 3.750832 3.749755 3.750760 3.750021 3.751772 3.750493 3.749019 3.749423 3.750347 3.751673 3.750510 3.752222 3.751948 3.751562 3.753175 3.752915 3.752854 3.752229 3.750639 3.751275 3.750465 3.749468 3.747876 3.747299 3.752325 3.751457 3.750670 3.751057 3.751644 3.752179 3.751491 3.751484 3.750056 3.749685 3.748742 3.749910 3.750121 3.749700 3.748688 3.749368 3.747645 3.746432 3.745154 3.744742 3.745423 3.746710 3.744809 3.743903 3.745058 3.743487 3.742806 3.744212 3.743138 3.742651 3.743703 3.743610 3.746038 3.744612 3.744528 3.742914 3.741850 3.742933 3.742639 3.741709 3.741171 3.741910 3.742818 3.743653 3.744630 3.745783 3.743909 3.744594 3.743687 3.741966 3.741140 3.741500 3.740837 3.741463 3.740137 3.739318 3.738104 3.738018 3.737545 3.736234 3.736151 3.735436 3.733974 3.733555 3.732130 3.734447 3.735998 3.735917 3.735057 3.734613 3.734911 3.734087 3.733835 3.733162 3.732023 3.731332 3.731143 3.730573 3.729738 3.728928 3.729364 3.729416 3.730098 3.730095 3.728635 3.727390 3.726920 3.726021 3.725815 3.725020 3.726289 3.725340 3.724564 3.727048 3.728018 3.727698 3.727546 3.726743 3.726353 3.724791 3.724336 3.723134 3.724792 3.723313 3.727157 3.726155 3.725767 3.724920 3.723755 3.724232 3.724930 3.724132 3.723532 3.724501 3.724906 3.724849 3.725697 3.725522 3.726044 3.725451 3.728031 3.729001 3.727120 3.728602 3.727388 3.726686 3.727469 3.727364 3.726123 3.728461 3.727662 3.727819 3.727749 3.728368 3.727464 3.726105 3.725570 3.724595 3.724534 3.727330 3.726313 3.726785 3.724869 3.723861 3.722557 3.722648 3.721513 3.721342 3.719626 3.718307 3.718271 3.718147 3.717434 3.717318 3.717962 3.717821 3.717438 3.717779 3.716823 3.717943 3.718675 3.721933 3.723402 3.722254 3.721069 3.721405 3.719699 3.721035 3.720927 3.720699 3.720294 3.721227 3.719773 3.723039 3.723240 3.727571 3.726719 3.725811 3.725510 3.726425 3.725732 3.724475 3.723516 3.722238 3.720320 3.721789 3.720143 3.722166 3.722135 3.723032 3.721124 3.723210 3.722861 3.722656 3.723875 3.724797 3.727316 3.726578 3.725076 3.723512 3.722866 3.720829 3.719844 3.718822 3.718013 3.720050 3.721225 3.720166 3.719266 3.720093 3.720420 3.719119 3.718452 3.718802 3.720190 3.718941 3.721468 3.719738 3.717896 3.717964 3.717489 3.717140 3.716407 3.715117 3.714997 3.714485 3.714678 3.713837 3.713344 3.712434 3.710766 3.710525 3.709085 3.708232 3.706459 3.710043 3.708396 3.710972 3.710933 3.710044 3.708862 3.708806 3.708832 3.708563 3.706686 3.706364 3.707686 3.709136 3.709095 3.708062 3.710892 3.712209 3.710735 3.708995 3.710877 3.710616 3.711154 3.710052 3.709777 3.710413 3.709668 3.713045 3.713353 3.714069 3.714406 3.713347 3.713359 3.712485 3.711099 3.711613 3.712614 3.714553 3.714185 3.714529 3.716416 3.715665 3.715190 3.713564 3.712933 3.712076 3.711443 3.711117 3.712674 3.713243 3.713185 3.712638 3.713101 3.712113 3.712604 3.712438 3.713415 3.711918 3.712090 3.711452 3.711027 3.711554 3.711332 3.711782 3.713148 3.711837 3.711085 3.710948 3.709384 3.709462 3.710531 3.710425 3.708881 3.708387 3.709256 3.709132 3.708522 3.707324 3.705420 3.704139 3.704146 3.704666 3.704529 3.703616 3.704628 3.704438 3.705022 3.705927 3.707437 3.706800 3.706090 3.706099 3.706334 3.705985 3.704349 3.703298 3.703340 3.705679 3.707996 3.708506 3.707511 3.708313 3.706980 3.705808 3.705783 3.706352 3.707836 3.706850 3.706672 3.708877 3.708117 3.708073 3.709536 3.710448 3.709388 3.709795 3.709728 3.708449 3.708302 3.708341 3.710440 3.711427 3.712518 3.711026 3.712142 3.711252 3.711049 3.710085 3.708622 3.709972 3.709797 3.709420 3.708949 3.709390 3.711980 3.710353 3.712943 3.712773 3.713093 3.712604 3.712948 3.712614 3.711612 3.711378 3.711416 3.711486 3.710677 3.709741 3.708823 3.708948 3.709368 3.709504 3.710072 3.708980 3.710856 3.712784 3.713242 3.712057 3.710054 3.709598 3.708325 3.709162 3.709818 3.708750 3.710698 3.710011 3.710175 3.709445 3.708270 3.707436 3.706948 3.706318 3.709041 3.707748 3.708223 3.708144 3.708554 3.707914 3.706716 3.707457 3.708376 3.710688 3.710042 3.708873 3.708565 3.709232 3.708411 3.710006 3.710376 3.713909 3.713676 3.713080 3.714725 3.713873 3.713824 3.712218 3.710858 3.710440 3.709867 3.709368 3.710661 3.710092 3.708508 3.707083 3.705737 3.705098 3.703204 3.702758 3.700983 3.703989 3.702908 3.702859 3.702564 3.701069 3.701971 3.701074 3.701000 3.700570 3.700228 3.700660 3.700371 3.699959 3.699931 3.698569 3.697695 3.696711 3.696620 3.694771 3.695038 3.694934 3.693051 3.693511 3.694785 3.695045 3.693543 3.694443 3.694163 3.694614 3.693835 3.693198 3.692881 3.692868 3.693629 3.692976 3.692512 3.692610 3.691752 3.691367 3.692168 3.692700 3.692031 3.694305 3.694894 3.695201 3.694991 3.693995 3.694699 3.692804 3.693330 3.696025 3.694293 3.694162 3.695553 3.695219 3.695550 3.695274 3.694478 3.694935 3.693796 3.693348 3.694637 3.695651 3.697303 3.697607 3.697757 3.699356 3.699461 3.698628 3.696921 3.696441 3.695397 3.696135 3.695810 3.696032 3.694790 3.692954 3.693109 3.692923 3.693754 3.692875 3.692222 3.692999 3.692040 3.694596 3.694799 3.696971 3.696884 3.699364 3.700163 3.701074 3.702647 3.702009 3.700982 3.700229 3.698912 3.697624 3.697588 3.697446 3.699067 3.700753 3.699675 3.700324 3.700245 3.699630 3.700244 3.700633 3.698598 3.698155 3.698428 3.696737 3.696586 3.694892 3.694590 3.693629 3.695403 3.694913 3.693626 3.695456 3.694222 3.695257 3.694425 3.693840 3.692469 3.691719 3.692612 3.690555 3.689358 3.687846 3.687301 3.687507 3.687733 3.688098 3.687888 3.689130 3.688109 3.688967 3.688294 3.691176 3.690467 3.689617 3.688188 3.688478 3.688070 3.686540 3.686405 3.686871 3.687535 3.688643 3.690564 3.691666 3.693219 3.692977 3.693641 3.693969 3.698369 3.698020 3.698519 3.698181 3.697997 3.698197 3.699206 3.698861 3.698958 3.698061 3.697470 3.696907 3.697063 3.697244 3.695537 3.696518 3.696798 3.695737 3.695455 3.697143 3.697088 3.696613 3.697427 3.698283 3.696643 3.697150 3.697382 3.700132 3.700001 3.701251 3.700630 3.699174 3.699711 3.699098 3.699906 3.699995 3.700467 3.704454 3.703574 3.702752 3.706051 3.705837 3.705909 3.706130 3.707261 3.709725 3.711406 3.713543 3.713263 3.712521 3.711336 3.710532 3.710369 3.709621 3.708231 3.708643 3.709907 3.709918 3.709551 3.709699 3.709371 3.709068 3.708331 3.707644 3.706081 3.706048 3.705094 3.703581 3.703708 3.704539 3.703131 3.701876 3.700090 3.700064 3.698911 3.697987 3.699725 3.699151 3.699040 3.701184 3.700366 3.703677 3.703039 3.705081 3.705300 3.704936 3.705177 3.704279 3.704502 3.702936 3.701772 3.701304 3.701940 3.702642 3.706499 3.708051 3.706454 3.706009 3.704557 3.704255 3.704769 3.705874 3.705718 3.705408 3.705148 3.704972 3.704467 3.703903 3.704878 3.705783 3.705687 3.704339 3.704585 3.705552 3.704465 3.703246 3.702319 3.701956 3.701329 3.702776 3.703219 3.702397 3.702532 3.705751 3.705343 3.705321 3.704198 3.702977 3.702608 3.701322 3.700787 3.702466 3.701301 3.701990 3.700483 3.699238 3.698178 3.699041 3.699362 3.699181 3.698345 3.698240 3.697247 3.696748 3.696278 3.694643 3.694294 3.695351 3.694940 3.695217 3.694764 3.694618 3.694009 3.692440 3.691326 3.693512 3.692273 3.693610 3.693756 3.693034 3.691962 3.690537 3.689608 3.688751 3.688307 3.688120 3.688176 3.688000 3.687468 3.686522 3.685673 3.688558 3.691035 3.690242 3.690380 3.690819 3.689360 3.688012 3.687077 3.686374 3.689478 3.690181 3.688660 3.688900 3.690961 3.689892 3.690434 3.690273 3.693253 3.692564 3.691533 3.691035 3.691519 3.691758 3.692052 3.690798 3.692658 3.692785 3.691414 3.691093 3.691295 3.693485 3.692166 3.690858 3.690517 3.689629 3.689573 3.689909 3.692187 3.690546 3.690329 3.691820 3.691154 3.690463 3.690855 3.689846 3.689740 3.689336 3.690462 3.690764 3.689112 3.692721 3.694088 3.694137 3.693517 3.694462 3.693971 3.693647 3.699331 3.697824 3.699211 3.699551 3.698945 3.697789 3.696424 3.694579 3.694997 3.695142 3.694824 3.694675 3.694995 3.696722 3.695198 3.694063 3.693675 3.692326 3.691565 3.690880 3.691633 3.691162 3.690143 3.690717 3.689866 3.689407 3.692402 3.692553 3.691889 3.693840 3.694778 3.693330 3.692819 3.691903 3.690742 3.691516 3.690187 3.690762 3.690110 3.689965 3.689804 3.690353 3.689087 3.691934 3.691953 3.690960 3.690963 3.690472 3.690616 3.689631 3.690182 3.690104 3.689350 3.688736 3.688356 3.689774 3.690884 3.693790 3.693642 3.696776 3.696369 3.696966 3.696521 3.695546 3.696959 3.696660 3.696975 3.695820 3.700665 3.701845 3.702057 3.701393 3.701399 3.702379 3.701602 3.700811 3.699339 3.699273 3.697914 3.696440 3.696319 3.697179 3.696343 3.697097 3.698940 3.702445 3.702912 3.701792 3.701010 3.701561 3.702301 3.701062 3.700865 3.699124 3.700364 3.700134 3.700772 3.701538 3.700894 3.702133 3.701161 3.702001 3.702442 3.702179 3.702571 3.703927 3.703401 3.702517 3.702313 3.701784 3.701409 3.700667 3.700697 3.701014 3.699640 3.702213 3.702733 3.702126 3.702946 3.704692 3.703567 3.702218 3.703589 3.702227 3.700380 3.701431 3.700965 3.701544 3.702173 3.703774 3.704048 3.703675 3.703240 3.704201 3.703661 3.703345 3.702239 3.703056 3.703827 3.704057 3.706414 3.706629 3.704883 3.703761 3.705098 3.704201 3.709229 3.708235 3.707300 3.706869 3.705937 3.705029 3.705262 3.705094 3.705467 3.705151 3.704007 3.702701 3.701254 3.702884 3.702974 3.703251 3.703966 3.703440 3.704718 3.703888 3.702392 3.700995 3.700466 3.700206 3.699932 3.700566 3.703924 3.703338 3.703611 3.704042 3.703513 3.703567 3.701915 3.701601 3.702656 3.703980 3.703013 3.702311 3.706742 3.706591 3.706137 3.707770 3.706161 3.705204 3.704874 3.704616 3.704069 3.702468 3.706431 3.705320 3.705094 3.706120 3.705982 3.705605 3.706002 3.704368 3.704180 3.703507 3.704071 3.702651 3.701787 3.705002 3.705260 3.704000 3.703197 3.704757 3.705680 3.704610 3.704902 3.704452 3.705150 3.707731 3.709579 3.711300 3.710847 3.709726 3.710206 3.711166 3.712236 3.711709 3.711270 3.710106 3.710684 3.709730 3.709395 3.708040 3.707785 3.706760 3.706313 3.705642 3.704813 3.704289 3.703381 3.702627 3.702602 3.702209 3.702356 3.702277 3.703831 3.703620 3.702404 3.701438 3.701853 3.700666 3.700205 3.700711 3.699745 3.698969 3.697319 3.698137 3.698566 3.697530 3.696554 3.696318 3.698784 3.698031 3.697339 3.696986 3.695587 3.695756 3.694604 3.693825 3.694980 3.695601 3.694681 3.695616 3.696204 3.696550 3.696391 3.696188 3.695513 3.695585 3.694557 3.693669 3.692841 3.693936 3.694318 3.693568 3.691966 3.691901 3.690723 3.690685 3.689806 3.689258 3.687475 3.687214 3.686807 3.688882 3.688131 3.687971 3.688177 3.686915 3.686459 3.690007 3.688963 3.688413 3.687530 3.687545 3.687522 3.685783 3.686943 3.688409 3.687421 3.686241 3.685547 3.684820 3.686178 3.686538 3.687596 3.686708 3.685759 3.685763 3.685408 3.685850 3.688049 3.689124 3.688647 3.688797 3.688639 3.689240 3.689902 3.689320 3.688524 3.688181 3.687770 3.688419 3.687931 3.687708 3.687856 3.687863 3.689474 3.689883 3.691231 3.691162 3.693191 3.692262 3.691355 3.690848 3.692183 3.692557 3.691274 3.689786 3.691396 3.692393 3.690907 3.691427 3.691426 3.689750 3.688794 3.687682 3.686240 3.686192 3.686424 3.685488 3.684544 3.684747 3.683987 3.683889 3.684289 3.685173 3.684814 3.684112 3.682235 3.681289 3.679725 3.678689 3.679853 3.680229 3.679445 3.677566 3.676342 3.675365 3.675275 3.674141 3.672894 3.671636 3.671347 3.670392 3.669353 3.669912 3.669648 3.669382 3.671947 3.670980 3.672246 3.672502 3.671940 3.674323 3.674282 3.674507 3.675183 3.674494 3.674409 3.675428 3.675596 3.674804 3.676054 3.676534 3.676756 3.675952 3.675130 3.673788 3.673938 3.674079 3.672831 3.673430 3.673593 3.673769 3.674386 3.672933 3.674978 3.674500 3.674035 3.674900 3.674996 3.675251 3.675108 3.674409 3.673445 3.672700 3.673185 3.674159 3.672567 3.672439 3.672163 3.672755 3.673359 3.674853 3.674057 3.673737 3.673243 3.673949 3.672082 3.670376 3.669293 3.670948 3.673133 3.673233 3.673892 3.673692 3.674338 3.673398 3.671912 3.671388 3.671906 3.671494 3.670074 3.669639 3.669514 3.668771 3.668313 3.667636 3.667682 3.666328 3.666472 3.666700 3.666707 3.670451 3.670598 3.670732 3.670658 3.670743 3.669527 3.668391 3.668287 3.667339 3.667481 3.667881 3.667293 3.666786 3.669648 3.669693 3.671072 3.669746 3.670495 3.670351 3.670766 3.670800 3.670543 3.669660 3.672959 3.673924 3.673432 3.675233 3.675701 3.674968 3.675624 3.675455 3.674310 3.675896 3.675611 3.674582 3.674676 3.673435 3.672735 3.671893 3.671694 3.672450 3.671948 3.671448 3.670917 3.672506 3.674138 3.674945 3.676999 3.676183 3.675837 3.676076 3.675626 3.675923 3.676152 3.674098 3.675345 3.676350 3.676105 3.677678 3.676983 3.678702 3.678140 3.677705 3.678055 3.677448 3.677794 3.678255 3.678701 3.679659 3.679280 3.680176 3.679285 3.678516 3.678694 3.678384 3.678433 3.681154 3.683087 3.682926 3.682464 3.681310 3.683010 3.681828 3.680409 3.680544 3.679751 3.678620 3.679120 3.678876 3.678524 3.677762 3.676873 3.676519 3.675126 3.673822 3.674152 3.676937 3.677186 3.677914 3.677808 3.676345 3.677280 3.676407 3.675003 3.675190 3.675322 3.674261 3.676037 3.676407 3.675236 3.675431 3.674782 3.676677 3.675540 3.677374 3.677261 3.677891 3.677141 3.676729 3.675245 3.676399 3.675059 3.674312 3.672986 3.674123 3.674805 3.675186 3.676594 3.675956 3.676432 3.676299 3.676088 3.676583 3.676798 3.676554 3.675254 3.674053 3.672666 3.671510 3.671326 3.671190 3.670336 3.670282 3.670398 3.671023 3.669909 3.669809 3.669996 3.668754 3.667796 3.667852 3.668282 3.668329 3.668346 3.667168 3.667085 3.667708 3.666732 3.667296 3.667895 3.667634 3.667356 3.667606 3.669515 3.669320 3.669468 3.670147 3.670008 3.670158 3.668896 3.671982 3.674446 3.673869 3.674955 3.676057 3.674508 3.674097 3.673157 3.675537 3.674467 3.676226 3.676384 3.676707 3.677037 3.676453 3.674999 3.675680 3.677883 3.679721 3.679702 3.679055 3.678143 3.678133 3.680755 3.680235 3.680666 3.681348 3.680368 3.680184 3.680308 3.678886 3.679850 3.679603 3.680800 3.679473 3.681439 3.681004 3.680022 3.681100 3.680264 3.680513 3.680414 3.679921 3.682067 3.682141 3.681921 3.681885 3.681799 3.683044 3.682664 3.682350 3.681691 3.682435 3.682518 3.681454 3.683293 3.684117 3.684977 3.685187 3.685551 3.687229 3.686992 3.688113 3.687946 3.689472 3.690343 3.689534 3.687809 3.687207 3.687010 3.687104 3.687988 3.687620 3.687702 3.688206 3.690853 3.692447 3.692590 3.691738 3.690923 3.690130 3.689204 3.688685 3.687419 3.687946 3.688436 3.688035 3.688625 3.689780 3.689868 3.690299 3.692298 3.690913 3.691522 3.691295 3.690398 3.689803 3.691462 3.691269 3.690738 3.690985 3.689912 3.688558 3.688168 3.687293 3.686902 3.685216 3.685850 3.685801 3.686356 3.685600 3.684213 3.685510 3.689023 3.690009 3.690108 3.689026 3.687618 3.687240 3.687853 3.688444 3.688332 3.688396 3.689049 3.688434 3.688246 3.688646 3.689632 3.691060 3.690961 3.691235 3.692981 3.691519 3.691093 3.689961 3.690656 3.690316 3.691203 3.691275 3.690872 3.690206 3.690402 3.690386 3.689405 3.689258 3.690640 3.690264 3.689172 3.689853 3.691004 3.689490 3.689444 3.690467 3.690735 3.693915 3.693056 3.693557 3.691917 3.692487 3.692229 3.691584 3.691880 3.691225 3.691521 3.695331 3.695807 3.696306 3.696375 3.696064 3.696743 3.697809 3.697728 3.698425 3.697796 3.698195 3.698883 3.699311 3.699114 3.701722 3.703360 3.704953 3.703949 3.702827 3.702921 3.703037 3.702636 3.702667 3.701070 3.700192 3.701861 3.704204 3.703862 3.703320 3.703528 3.703789 3.703416 3.702579 3.700740 3.698938 3.699514 3.701056 3.700586 3.700550 3.701738 3.703168 3.703255 3.703980 3.705104 3.705310 3.707896 3.708388 3.708786 3.708643 3.708299 3.707495 3.706932 3.706834 3.708022 3.707636 3.708545 3.708983 3.709640 3.708674 3.708282 3.709827 3.713428 3.712217 3.712953 3.712942 3.712485 3.713040 3.711990 3.711928 3.712860 3.713625 3.713065 3.714241 3.714537 3.715554 3.715795 3.716221 3.717688 3.716417 3.715335 3.714576 3.714076 3.713114 3.712701 3.713654 3.714339 3.713177 3.712645 3.712210 3.711338 3.710822 3.712754 3.710838 3.711238 3.710651 3.710973 3.711033 3.710020 3.710147 3.712423 3.712963 3.712565 3.713987 3.714144 3.714765 3.716159 3.715845 3.714559 3.714628 3.714534 3.714639 3.712766 3.711549 3.711792 3.710913 3.711273 3.712030 3.711371 3.711949 3.712850 3.714872 3.714840 3.714533 3.715421 3.714770 3.714178 3.715331 3.715795 3.719603 3.719361 3.719780 3.720078 3.720476 3.719911 3.720079 3.719380 3.720367 3.720816 3.720561 3.719546 3.719729 3.720807 3.720125 3.720223 3.724555 3.724400 3.725252 3.726304 3.725695 3.726217 3.725731 3.726230 3.725388 3.727763 3.727323 3.726280 3.724767 3.724442 3.725671 3.725027 3.723676 3.722927 3.723151 3.721458 3.720292 3.720769 3.721084 3.719912 3.721123 3.721320 3.720824 3.722523 3.722234 3.722432 3.721739 3.720818 3.721275 3.721105 3.720556 3.719203 3.719017 3.717810 3.719272 3.717675 3.718110 3.720461 3.719707 3.719379 3.718234 3.718151 3.718651 3.718206 3.717585 3.717090 3.717399 3.719176 3.718947 3.718108 3.718135 3.719609 3.718384 3.717417 3.718248 3.717750 3.718168 3.718533 3.718965 3.718936 3.719685 3.719590 3.719014 3.719494 3.718390 3.718455 3.719416 3.718599 3.717707 3.716926 3.716660 3.715552 3.716326 3.715452 3.714896 3.715164 3.714557 3.713962 3.713982 3.713158 3.714424 3.713737 3.713560 3.711908 3.713208 3.711971 3.712089 3.712007 3.711758 3.710849 3.710168 3.709124 3.709135 3.709828 3.712799 3.712579 3.711920 3.713770 3.713503 3.713133 3.713715 3.713465 3.712635 3.712249 3.712772 3.712893 3.713469 3.714207 3.714498 3.713044 3.715099 3.715570 3.716171 3.717572 3.715811 3.715885 3.718093 3.720076 3.721068 3.720445 3.721286 3.721183 3.721960 3.721378 3.722370 3.721910 3.722807 3.722251 3.721026 3.721626 3.720604 3.720768 3.721216 3.721333 3.721295 3.721304 3.720742 3.719664 3.721197 3.720480 3.719479 3.718524 3.718599 3.718433 3.718035 3.717296 3.717336 3.718744 3.718498 3.717064 3.716518 3.717980 3.719502 3.720889 3.719874 3.721403 3.722972 3.722688 3.723038 3.722548 3.721866 3.720687 3.721418 3.721070 3.720887 3.720732 3.722315 3.724302 3.723686 3.722025 3.720548 3.720171 3.718756 3.718983 3.724582 3.725190 3.726454 3.727774 3.727721 3.727103 3.726872 3.728123 3.727003 3.727725 3.727077 3.725237 3.725455 3.724859 3.724084 3.724170 3.723240 3.722787 3.721350 3.720476 3.720192 3.719429 3.719843 3.720228 3.720602 3.721209 3.720228 3.719450 3.718849 3.719807 3.720131 3.719971 3.721766 3.721545 3.721522 3.722885 3.722418 3.723601 3.722949 3.722372 3.720691 3.721001 3.720268 3.719576 3.719493 3.719591 3.718165 3.720899 3.721021 3.721005 3.720313 3.719291 3.720006 3.719525 3.720862 3.721984 3.720816 3.720494 3.720565 3.721431 3.720847 3.722448 3.722647 3.727107 3.726168 3.725722 3.725394 3.724919 3.723715 3.723569 3.722634 3.722044 3.721427 3.720206 3.720438 3.720245 3.720875 3.721540 3.721333 3.722423 3.721438 3.720292 3.719504 3.719002 3.717611 3.719706 3.719293 3.719585 3.719190 3.717568 3.716825 3.715251 3.715052 3.713435 3.713118 3.712736 3.712861 3.711689 3.712261 3.713267 3.712099 3.711860 3.711026 3.711881 3.710089 3.709127 3.708618 3.707844 3.707494 3.706065 3.705440 3.705449 3.705012 3.703873 3.704750 3.705523 3.705626 3.705057 3.704535 3.705901 3.705553 3.705090 3.705439 3.704728 3.704137 3.704973 3.706204 3.707328 3.708306 3.707914 3.708740 3.708000 3.707491 3.706563 3.708115 3.706924 3.706482 3.705339 3.704673 3.704799 3.704426 3.703747 3.703566 3.703895 3.703338 3.702417 3.700643 3.699751 3.699020 3.697867 3.698055 3.698224 3.697999 3.697832 3.697068 3.696219 3.696837 3.698372 3.699547 3.698725 3.698241 3.697586 3.698706 3.697628 3.696323 3.695318 3.695429 3.695058 3.694806 3.694618 3.693990 3.692620 3.691387 3.691123 3.690472 3.689647 3.689444 3.689137 3.691211 3.691741 3.693179 3.692654 3.692994 3.692852 3.693588 3.692561 3.692889 3.694190 3.692252 3.692450 3.693157 3.692548 3.691592 3.690784 3.690066 3.690760 3.689868 3.688983 3.689083 3.690349 3.690220 3.690648 3.690093 3.688593 3.689520 3.688859 3.689493 3.689220 3.690277 3.690068 3.689416 3.690652 3.689530 3.688749 3.688048 3.687263 3.691169 3.690057 3.690336 3.689479 3.690067 3.689779 3.688660 3.689880 3.692618 3.691548 3.690566 3.689564 3.689829 3.690567 3.691242 3.691694 3.692543 3.693551 3.692842 3.692126 3.693218 3.692323 3.692891 3.693584 3.695561 3.693858 3.694339 3.693470 3.693334 3.694258 3.694134 3.692813 3.692011 3.692200 3.691430 3.689829 3.689071 3.687857 3.686758 3.686264 3.687059 3.685612 3.686731 3.686734 3.687117 3.687161 3.687841 3.688692 3.688369 3.687453 3.686276 3.685373 3.685833 3.685406 3.685634 3.685671 3.684641 3.684164 3.682709 3.682970 3.684826 3.685881 3.684843 3.685756 3.685704 3.685336 3.685245 3.687675 3.686285 3.686220 3.684779 3.684553 3.685594 3.685521 3.687369 3.686784 3.687600 3.688596 3.688558 3.688281 3.688145 3.688647 3.688616 3.690145 3.688674 3.687524 3.686869 3.687315 3.686543 3.686169 3.686120 3.685085 3.686102 3.686330 3.688386 3.687012 3.685208 3.684693 3.685293 3.684879 3.684685 3.684455 3.684233 3.683892 3.684382 3.683818 3.683818 3.684493 3.684398 3.685108 3.684437 3.683484 3.683479 3.683645 3.683235 3.682271 3.681417 3.681006 3.682207 3.680703 3.679766 3.679149 3.679666 3.679676 3.677872 3.678771 3.679051 3.679239 3.679669 3.678654 3.677837 3.678432 3.680851 3.680607 3.680438 3.680818 3.680851 3.681136 3.681333 3.680757 3.681225 3.682357 3.683644 3.684357 3.685957 3.686132 3.687658 3.687015 3.686915 3.686341 3.686926 3.686910 3.687097 3.686357 3.685547 3.687241 3.686337 3.687282 3.686171 3.684937 3.684355 3.687411 3.686772 3.689729 3.690258 3.690063 3.691273 3.690703 3.690258 3.689475 3.689625 3.689846 3.689377 3.690009 3.690935 3.689236 3.689186 3.689666 3.689836 3.690642 3.690548 3.690318 3.690573 3.689711 3.689771 3.689808 3.689591 3.690272 3.689936 3.691074 3.692576 3.691959 3.690729 3.690959 3.690655 3.691295 3.690323 3.692669 3.692160 3.691882 3.692084 3.692875 3.693385 3.693497 3.693283 3.695181 3.693685 3.693045 3.693614 3.693479 3.695238 3.694427 3.694360 3.694802 3.695527 3.697627 3.697729 3.696243 3.696553 3.696119 3.697227 3.696294 3.695539 3.695529 3.694334 3.695753 3.694889 3.693782 3.693751 3.694424 3.694883 3.693780 3.693366 3.694040 3.693719 3.694590 3.693729 3.693194 3.691823 3.691408 3.690405 3.692209 3.693549 3.694077 3.694945 3.694852 3.694497 3.694708 3.696712 3.696104 3.696838 3.698122 3.697543 3.696181 3.697571 3.696629 3.698202 3.696807 3.696547 3.697886 3.697530 3.698141 3.697988 3.697664 3.696601 3.695801 3.695504 3.694919 3.694361 3.695844 3.695983 3.695377 3.697622 3.698481 3.697784 3.699078 3.697985 3.698203 3.698462 3.699432 3.698956 3.698254 3.698031 3.698555 3.699215 3.699327 3.699580 3.697982 3.699617 3.699286 3.698481 3.698580 3.699166 3.698782 3.699132 3.698838 3.697693 3.700049 3.700059 3.700783 3.700007 3.699070 3.699857 3.699018 3.698410 3.697771 3.697563 3.699488 3.698644 3.698539 3.697045 3.697080 3.696290 3.695383 3.695039 3.694300 3.693672 3.692917 3.694479 3.696865 3.697315 3.699720 3.698506 3.702117 3.705155 3.705349 3.705159 3.705721 3.704425 3.705315 3.706556 3.706369 3.706835 3.709337 3.708692 3.708816 3.708249 3.707945 3.707991 3.710820 3.709094 3.709748 3.709226 3.708104 3.707690 3.706997 3.707129 3.706731 3.706664 3.707047 3.705911 3.705068 3.703749 3.702842 3.704002 3.703031 3.704018 3.703626 3.703597 3.703239 3.705792 3.705708 3.705315 3.706084 3.705342 3.705549 3.704508 3.703545 3.702914 3.703300 3.702067 3.701270 3.700796 3.699949 3.698496 3.697678 3.697007 3.698953 3.698879 3.700229 3.699958 3.700541 3.700377 3.702389 3.702086 3.701201 3.700545 3.700539 3.699780 3.700654 3.700430 3.701568 3.701382 3.700582 3.700193 3.699420 3.699489 3.699207 3.699332 3.698149 3.698878 3.700626 3.699622 3.700112 3.699676 3.702129 3.700915 3.699165 3.698009 3.696575 3.696906 3.697640 3.696819 3.696131 3.697644 3.698891 3.698972 3.697432 3.697209 3.696809 3.696260 3.696484 3.696144 3.696520 3.698307 3.698027 3.697201 3.698185 3.697228 3.697194 3.698770 3.698225 3.701569 3.700036 3.699468 3.700592 3.699611 3.699177 3.698477 3.698641 3.699598 3.699471 3.699200 3.700007 3.699266 3.697970 3.698275 3.697392 3.696362 3.697644 3.696679 3.696921 3.698363 3.698625 3.699100 3.699836 3.699451 3.699780 3.699686 3.699136 3.699203 3.698411 3.698649 3.700579 3.700173 3.701258 3.703082 3.701834 3.701234 3.704444 3.703398 3.703076 3.704760 3.703017 3.704517 3.704595 3.703820 3.703754 3.703751 3.704403 3.704070 3.707771 3.708991 3.707472 3.706707 3.709374 3.708451 3.707821 3.708135 3.709056 3.708440 3.707173 3.706857 3.706431 3.706684 3.705741 3.705329 3.705674 3.705666 3.706218 3.705830 3.707784 3.709695 3.711678 3.710211 3.709941 3.710590 3.710555 3.710153 3.711647 3.711021 3.710591 3.709448 3.709797 3.710087 3.710136 3.710659 3.711407 3.712972 3.713594 3.715162 3.714713 3.715708 3.717679 3.718009 3.717717 3.717371 3.717843 3.717730 3.718978 3.718299 3.718409 3.718160 3.717782 3.719572 3.719501 3.719038 3.720127 3.720559 3.720869 3.720541 3.723048 3.723187 3.722607 3.721605 3.721062 3.721676 3.722916 3.721269 3.721883 3.720528 3.719792 3.720431 3.722556 3.722356 3.722057 3.722961 3.722283 3.722490 3.721334 3.720841 3.719914 3.720573 3.719265 3.718603 3.719528 3.720712 3.720242 3.721018 3.719762 3.719495 3.718327 3.716962 3.717034 3.716532 3.715717 3.716221 3.716987 3.718436 3.717779 3.716884 3.717555 3.716587 3.717394 3.716842 3.716053 3.716189 3.716541 3.716662 3.716142 3.714611 3.713802 3.714219 3.714546 3.718267 3.717862 3.717079 3.720550 3.721461 3.720014 3.720476 3.719938 3.720338 3.720003 3.718679 3.717664 3.716398 3.717467 3.716685 3.715710 3.715569 3.715677 3.715838 3.715548 3.715522 3.714464 3.713982 3.714534 3.713040 3.712533 3.712551 3.716165 3.718978 3.718600 3.719549 3.720306 3.718634 3.718105 3.717016 3.717368 3.719487 3.719033 3.719898 3.720021 3.721132 3.720260 3.720505 3.720130 3.721072 3.721810 3.721306 3.720183 3.718788 3.717763 3.717898 3.719272 3.718067 3.718306 3.718622 3.717365 3.718580 3.718118 3.718447 3.722388 3.723506 3.725133 3.725854 3.725264 3.726429 3.725382 3.725441 3.726300 3.726369 3.727943 3.727331 3.726696 3.727072 3.726532 3.726144 3.725455 3.725454 3.724209 3.724338 3.725635 3.726395 3.725641 3.724163 3.724739 3.724398 3.723489 3.722941 3.724271 3.723338 3.724054 3.726832 3.727256 3.726163 3.726407 3.725925 3.727465 3.726440 3.726992 3.728047 3.727678 3.726917 3.726708 3.727328 3.729829 3.729216 3.728616 3.730044 3.731903 3.731948 3.734739 3.735271 3.735723 3.738028 3.738504 3.736939 3.737727 3.736739 3.738132 3.737571 3.736902 3.736883 3.735407 3.735741 3.736640 3.735931 3.735996 3.736069 3.735735 3.734726 3.734891 3.733954 3.732813 3.732786 3.732235 3.732021 3.731170 3.730737 3.731017 3.729728 3.730628 3.729129 3.731195 3.732005 3.730998 3.730322 3.729595 3.728249 3.727974 3.728599 3.729012 3.730738 3.731564 3.730008 3.730414 3.729439 3.728294 3.728623 3.727169 3.727583 3.727636 3.727139 3.726994 3.729085 3.729756 3.730662 3.731798 3.731380 3.730719 3.730787 3.730745 3.729537 3.729812 3.730928 3.729611 3.729363 3.728684 3.729397 3.728550 3.728354 3.727481 3.726120 3.725051 3.724936 3.723771 3.722515 3.722775 3.721833 3.721702 3.721282 3.720688 3.720259 3.719504 3.718648 3.717780 3.718365 3.719331 3.719086 3.718298 3.717884 3.716714 3.716252 3.716135 3.715204 3.715821 3.715638 3.715631 3.714552 3.714862 3.713884 3.714122 3.713101 3.712434 3.711939 3.712508 3.711485 3.712873 3.714710 3.714429 3.713562 3.712449 3.711051 3.712744 3.713219 3.712965 3.712265 3.712082 3.713162 3.713813 3.714998 3.715014 3.714101 3.714075 3.715823 3.716654 3.716404 3.717337 3.717331 3.721352 3.721843 3.721625 3.720477 3.722147 3.721898 3.721185 3.720170 3.720773 3.721099 3.723230 3.723171 3.721605 3.720888 3.723391 3.723305 3.722322 3.722557 3.721567 3.721526 3.721432 3.723479 3.723422 3.722706 3.721503 3.720543 3.719775 3.721532 3.721489 3.720649 3.720279 3.719558 3.718933 3.718613 3.717472 3.717059 3.718058 3.717468 3.717579 3.716309 3.715385 3.716218 3.716212 3.715469 3.715980 3.716353 3.717337 3.717328 3.717592 3.716454 3.715102 3.715418 3.714986 3.715329 3.716157 3.715567 3.717021 3.717659 3.719141 3.718748 3.718906 3.719148 3.719055 3.717346 3.717323 3.717854 3.720313 3.719491 3.719709 3.718301 3.718768 3.719977 3.719707 3.719251 3.719599 3.719439 3.719380 3.718988 3.718345 3.718137 3.716949 3.718295 3.718682 3.719061 3.719480 3.719359 3.720290 3.718183 3.717631 3.718050 3.717843 3.717474 3.718596 3.717929 3.716948 3.715561 3.715174 3.715805 3.716388 3.717947 3.717580 3.718345 3.719396 3.719498 3.719993 3.720654 3.720007 3.722159 3.721857 3.720677 3.720200 3.720151 3.720298 3.720711 3.719215 3.718642 3.717014 3.717199 3.716739 3.715984 3.715609 3.714771 3.714727 3.714395 3.714257 3.713432 3.714349 3.713631 3.714286 3.714534 3.714610 3.716189 3.717690 3.716988 3.717934 3.718038 3.717971 3.718480 3.718329 3.718145 3.718530 3.718210 3.717738 3.718542 3.719482 3.718928 3.721468 3.720520 3.719857 3.718524 3.717400 3.719197 3.718079 3.720829 3.719948 3.719083 3.718214 3.717937 3.719125 3.719152 3.718398 3.719976 3.722426 3.723847 3.725030 3.724020 3.723296 3.722305 3.720947 3.722438 3.724911 3.724500 3.725155 3.724033 3.722438 3.722106 3.722135 3.721543 3.723760 3.722741 3.722345 3.722279 3.721727 3.720943 3.721077 3.721492 3.721151 3.720567 3.721581 3.722946 3.721545 3.720892 3.721105 3.721422 3.721333 3.720455 3.719809 3.720443 3.720371 3.720865 3.720531 3.720513 3.721426 3.721199 3.721637 3.721683 3.722382 3.721925 3.721727 3.723132 3.722992 3.723275 3.723130 3.723447 3.723357 3.723164 3.721782 3.722268 3.721696 3.721839 3.720639 3.721935 3.721301 3.721227 3.720917 3.720636 3.720467 3.719466 3.721098 3.721166 3.722587 3.721308 3.721543 3.721023 3.719734 3.720572 3.720400 3.721843 3.720885 3.720633 3.724246 3.723154 3.721772 3.721141 3.720694 3.721010 3.720985 3.722267 3.720903 3.721956 3.722416 3.722183 3.725430 3.725706 3.724461 3.723909 3.723130 3.721719 3.721690 3.721622 3.722529 3.721466 3.721229 3.721508 3.722132 3.721210 3.721462 3.722024 3.720795 3.722655 3.722768 3.722263 3.721221 3.723239 3.722855 3.722409 3.722298 3.722295 3.723067 3.723067 3.722032 3.724728 3.725863 3.725149 3.725424 3.724836 3.725302 3.724807 3.724010 3.723733 3.722765 3.722675 3.722505 3.723299 3.724185 3.725091 3.725960 3.725865 3.726211 3.725619 3.726063 3.729289 3.731265 3.730701 3.730684 3.729372 3.729205 3.728725 3.727323 3.727796 3.729005 3.729010 3.728992 3.728713 3.729645 3.732100 3.731395 3.731379 3.732617 3.733367 3.734482 3.734172 3.733806 3.735403 3.734934 3.733492 3.733510 3.734192 3.735049 3.735293 3.734988 3.734485 3.733845 3.732562 3.731101 3.731953 3.732106 3.732353 3.731793 3.730358 3.733038 3.733212 3.732587 3.731590 3.729920 3.729778 3.730211 3.731767 3.730775 3.732229 3.731165 3.730161 3.729258 3.729192 3.728737 3.728986 3.728745 3.727460 3.727873 3.727327 3.727790 3.727287 3.725802 3.725300 3.725295 3.724789 3.725171 3.723902 3.723371 3.724546 3.725043 3.724285 3.723236 3.722300 3.721802 3.721426 3.721163 3.720933 3.719994 3.719654 3.719797 3.719925 3.721628 3.720625 3.720507 3.720202 3.720189 3.718735 3.718032 3.718243 3.718932 3.718775 3.718614 3.718090 3.717657 3.717169 3.715890 3.715883 3.715600 3.715192 3.715622 3.716050 3.716839 3.715925 3.715466 3.715408 3.716032 3.718157 3.717788 3.717757 3.719220 3.718345 3.717835 3.719078 3.721602 3.720678 3.720337 3.718498 3.718481 3.717088 3.716738 3.717202 3.717172 3.719266 3.720078 3.719588 3.720609 3.720527 3.721321 3.721453 3.720913 3.721355 3.720531 3.719447 3.718615 3.717532 3.716570 3.715737 3.714290 3.714322 3.712825 3.712995 3.713393 3.712348 3.711200 3.711256 3.714320 3.715956 3.720718 3.720391 3.721171 3.719885 3.719389 3.721106 3.721582 3.722476 3.722534 3.721634 3.722508 3.722668 3.721947 3.722598 3.722379 3.721595 3.721972 3.721943 3.722188 3.722308 3.721548 3.721604 3.720292 3.723818 3.723445 3.722695 3.724221 3.723311 3.723979 3.724494 3.723728 3.724154 3.722895 3.722848 3.722276 3.721170 3.720288 3.720433 3.720406 3.720391 3.718570 3.717732 3.719180 3.717687 3.717437 3.717743 3.717001 3.715593 3.715836 3.715904 3.715716 3.714656 3.712999 3.712961 3.711869 3.713861 3.713847 3.713735 3.712499 3.712453 3.712092 3.713558 3.713711 3.713498 3.712305 3.711406 3.711210 3.711033 3.709106 3.709805 3.709082 3.708426 3.710697 3.709787 3.709108 3.708227 3.706743 3.708006 3.706540 3.705685 3.705399 3.704790 3.704981 3.704187 3.706192 3.704713 3.707517 3.708117 3.707633 3.706964 3.707444 3.706749 3.706728 3.706878 3.706135 3.706244 3.706836 3.705480 3.705091 3.705019 3.707276 3.706866 3.708467 3.708382 3.707679 3.707448 3.707151 3.707390 3.706592 3.705893 3.705649 3.705695 3.705298 3.705459 3.706886 3.705817 3.706453 3.705895 3.705767 3.707093 3.707211 3.708660 3.709366 3.709709 3.709785 3.709417 3.707860 3.710709 3.710514 3.710065 3.709727 3.708664 3.709332 3.710166 3.709364 3.708938 3.708952 3.707740 3.707627 3.708436 3.709674 3.710700 3.711032 3.711764 3.711712 3.711437 3.711877 3.713197 3.714178 3.713028 3.714086 3.715255 3.717096 3.715610 3.716118 3.715633 3.714900 3.715886 3.715389 3.713711 3.713286 3.714303 3.714957 3.714482 3.715424 3.715773 3.716427 3.716377 3.715948 3.714693 3.714344 3.713844 3.713106 3.713003 3.712162 3.713044 3.713319 3.713527 3.713794 3.715318 3.716011 3.717011 3.715793 3.713993 3.712877 3.713328 3.714444 3.715573 3.716170 3.716975 3.718317 3.718625 3.719500 3.718370 3.719017 3.718661 3.718242 3.719375 3.718341 3.717784 3.718488 3.717358 3.720312 3.718848 3.717695 3.717538 3.717202 3.718241 3.719526 3.722414 3.721861 3.721814 3.720877 3.721299 3.723846 3.725778 3.724887 3.725353 3.724224 3.724414 3.725239 3.725827 3.727284 3.726329 3.725245 3.725498 3.724199 3.723843 3.725439 3.724414 3.724703 3.723942 3.723255 3.722835 3.723591 3.723526 3.725334 3.724733 3.726759 3.726216 3.725152 3.724109 3.725040 3.726886 3.727203 3.728693 3.728079 3.728648 3.730013 3.733079 3.733692 3.734096 3.734017 3.733725 3.734040 3.733491 3.732860 3.731448 3.731869 3.730967 3.730589 3.730602 3.729521 3.728950 3.728025 3.727205 3.727303 3.727055 3.725765 3.727506 3.725906 3.725380 3.724295 3.723199 3.723215 3.723363 3.723054 3.722853 3.721455 3.721048 3.720849 3.721786 3.721805 3.720751 3.719725 3.721358 3.722220 3.721790 3.724976 3.726276 3.727137 3.727544 3.727176 3.727542 3.725742 3.725288 3.725018 3.727331 3.726777 3.727471 3.727825 3.727999 3.726894 3.726507 3.725289 3.724887 3.724809 3.724302 3.723760 
