0.000000 0.000000 0.000000 0.000000 0.000000 0.000000 0.000000 0.000000 0.000000 0.000000 0.000000 0.000000 0.000000 0.000000 0.000000 0.000000 -0.000000 -0.000000 -0.000000 0.000000 0.000000 0.000000 0.000000 0.000000 0.000000 0.000000 0.000000 0.000000 0.000000 0.000000 0.000000 -0.000000 0.000000 -0.000000 0.000000 -0.000000 0.000000 0.000000 0.000000 0.000000 0.000000 -0.000000 0.000000 0.000000 0.000000 0.000000 0.000000 0.000000 0.000000 0.000000 0.000000 -0.000000 0.000000 0.000000 0.000000 0.000000 0.000000 0.000000 0.000000 0.000000 0.000000 -0.000000 0.000000 0.000000 0.000000 0.000000 0.000000 0.000000 0.000000 0.000000 0.000000 0.000000 0.000000 0.000000 -0.000000 0.000000 0.000000 -0.000000 0.000000 0.000000 0.000000 -0.000000 0.000000 0.000000 0.000000 0.000000 0.000000 0.000000 0.000000 -0.000000 0.000000 0.000000 -0.000000 -0.000000 0.000000 -0.000000 0.000000 0.000000 -0.000000 -0.000000 -0.000000 -0.000001 -0.000005 -0.000015 -0.000037 -0.000080 -0.000157 -0.000281 -0.000470 -0.000746 -0.001132 -0.001653 -0.002335 -0.003206 -0.004294 -0.005626 -0.007231 -0.009133 -0.011357 -0.013926 -0.016858 -0.020171 -0.023880 -0.027996 -0.032526 -0.037477 -0.042850 -0.048643 -0.054854 -0.061475 -0.068496 -0.075905 -0.083689 -0.091831 -0.100312 -0.109112 -0.118211 -0.127586 -0.137213 -0.147069 -0.157129 -0.167368 -0.177761 -0.188283 -0.198910 -0.209617 -0.220380 -0.231176 -0.241984 -0.252780 -0.263544 -0.274257 -0.284900 -0.295454 -0.305903 -0.316233 -0.326427 -0.336473 -0.346359 -0.356072 -0.365605 -0.374945 -0.384085 -0.393013 -0.401719 -0.410188 -0.418406 -0.426355 -0.434014 -0.441361 -0.448373 -0.455023 -0.461287 -0.467136 -0.472544 -0.477484 -0.481932 -0.485863 -0.489257 -0.492095 -0.494365 -0.496058 -0.497171 -0.497709 -0.497682 -0.497106 -0.496004 -0.494404 -0.492338 -0.489845 -0.486966 -0.483745 -0.480227 -0.476462 -0.472496 -0.468380 -0.464159 -0.459881 -0.455590 -0.451329 -0.447137 -0.443053 -0.439110 -0.435340 -0.431769 -0.428421 -0.425319 -0.422479 -0.419915 -0.417638 -0.415657 -0.413976 -0.412598 -0.411522 -0.410747 -0.410267 -0.410077 -0.410167 -0.410529 -0.411152 -0.412023 -0.413130 -0.414459 -0.415996 -0.417727 -0.419636 -0.421709 -0.423931 -0.426287 -0.428762 -0.431342 -0.434013 -0.436762 -0.439576 -0.442441 -0.445347 -0.448281 -0.451233 -0.454193 -0.457150 -0.460091 -0.463003 -0.465871 -0.468676 -0.471399 -0.474015 -0.476501 -0.478828 -0.480968 -0.482892 -0.484569 -0.485969 -0.487062 -0.487819 -0.488213 -0.488220 -0.487817 -0.486988 -0.485721 -0.484010 -0.481857 -0.479267 -0.476254 -0.472836 -0.469040 -0.464894 -0.460433 -0.455694 -0.450720 -0.445554 -0.440239 -0.434822 -0.429348 -0.423862 -0.418408 -0.413027 -0.407759 -0.402643 -0.397712 -0.392999 -0.388531 -0.384334 -0.380430 -0.376837 -0.373571 -0.370643 -0.368062 -0.365833 -0.363961 -0.362445 -0.361283 -0.360470 -0.360000 -0.359865 -0.360055 -0.360558 -0.361361 -0.362450 -0.363812 -0.365430 -0.367290 -0.369373 -0.371665 -0.374148 -0.376807 -0.379624 -0.382584 -0.385671 -0.388869 -0.392163 -0.395540 -0.398985 -0.402485 -0.406028 -0.409602 -0.413194 -0.416793 -0.420385 -0.423957 -0.427491 -0.430969 -0.434368 -0.437666 -0.440836 -0.443850 -0.446678 -0.449291 -0.451657 -0.453744 -0.455523 -0.456963 -0.458038 -0.458721 -0.458990 -0.458828 -0.458222 -0.457164 -0.455654 -0.453698 -0.451308 -0.448503 -0.445305 -0.441745 -0.437856 -0.433677 -0.429246 -0.424609 -0.419810 -0.414893 -0.409905 -0.404891 -0.399895 -0.394960 -0.390126 -0.385430 -0.380908 -0.376593 -0.372514 -0.368695 -0.365160 -0.361928 -0.359014 -0.356431 -0.354188 -0.352291 -0.350745 -0.349548 -0.348700 -0.348197 -0.348032 -0.348197 -0.348682 -0.349477 -0.350567 -0.351940 -0.353582 -0.355476 -0.357607 -0.359960 -0.362516 -0.365261 -0.368176 -0.371247 -0.374456 -0.377789 -0.381229 -0.384761 -0.388371 -0.392046 -0.395771 -0.399535 -0.403325 -0.407130 -0.410937 -0.414734 -0.418508 -0.422241 -0.425915 -0.429511 -0.433003 -0.436367 -0.439576 -0.442599 -0.445408 -0.447970 -0.450256 -0.452234 -0.453875 -0.455150 -0.456034 -0.456502 -0.456533 -0.456108 -0.455212 -0.453831 -0.451958 -0.449585 -0.446711 -0.443337 -0.439466 -0.435106 -0.430265 -0.424957 -0.419197 -0.413001 -0.406389 -0.399382 -0.392001 -0.384271 -0.376216 -0.367862 -0.359235 -0.350361 -0.341266 -0.331978 -0.322522 -0.312925 -0.303212 -0.293408 -0.283538 -0.273625 -0.263691 -0.253757 -0.243846 -0.233974 -0.224163 -0.214427 -0.204784 -0.195249 -0.185835 -0.176555 -0.167420 -0.158441 -0.149626 -0.140986 -0.132526 -0.124253 -0.116173 -0.108291 -0.100609 -0.093132 -0.085861 -0.078799 -0.071945 -0.065301 -0.058866 -0.052640 -0.046621 -0.040808 -0.035198 -0.029784 -0.024557 -0.019506 -0.014612 -0.009853 -0.005200 -0.000622 0.003919 0.008463 0.013053 0.017737 0.022560 0.027570 0.032815 0.038341 0.044191 0.050407 0.057027 0.064085 0.071610 0.079627 0.088159 0.097218 0.106818 0.116963 0.127653 0.138886 0.150654 0.162943 0.175737 0.189017 0.202760 0.216939 0.231526 0.246491 0.261801 0.277421 0.293318 0.309456 0.325798 0.342307 0.358948 0.375684 0.392479 0.409300 0.426111 0.442882 0.459580 0.476175 0.492638 0.508944 0.525065 0.540979 0.556664 0.572098 0.587263 0.602143 0.616721 0.630983 0.644918 0.658511 0.671747 0.684609 0.697078 0.709130 0.720738 0.731871 0.742496 0.752575 0.762072 0.770944 0.779152 0.786654 0.793412 0.799387 0.804544 0.808851 0.812282 0.814817 0.816446 0.817164 0.816978 0.815907 0.813975 0.811219 0.807685 0.803423 0.798495 0.792966 0.786905 0.780386 0.773485 0.766279 0.758844 0.751257 0.743591 0.735918 0.728305 0.720815 0.713509 0.706441 0.699660 0.693210 0.687130 0.681453 0.676208 0.671416 0.667096 0.663260 0.659916 0.657069 0.654719 0.652861 0.651488 0.650591 0.650157 0.650170 0.650613 0.651466 0.652710 0.654322 0.656280 0.658561 0.661140 0.663994 0.667100 0.670432 0.673968 0.677685 0.681560 0.685572 0.689699 0.693922 0.698220 0.702576 0.706973 0.711394 0.715821 0.720236 0.724618 0.728943 0.733184 0.737309 0.741283 0.745067 0.748619 0.751895 0.754848 0.757431 0.759596 0.761297 0.762488 0.763126 0.763171 0.762589 0.761354 0.759446 0.756854 0.753577 0.749627 0.745020 0.739788 0.733966 0.727600 0.720744 0.713455 0.705796 0.697835 0.689639 0.681280 0.672827 0.664350 0.655917 0.647593 0.639439 0.631513 0.623871 0.616560 0.609625 0.603106 0.597036 0.591445 0.586355 0.581787 0.577753 0.574264 0.571323 0.568932 0.567088 0.565783 0.565009 0.564752 0.564997 0.565727 0.566922 0.568561 0.570621 0.573078 0.575909 0.579087 0.582589 0.586388 0.590458 0.594775 0.599314 0.604050 0.608959 0.614019 0.619206 0.624500 0.629880 0.635327 0.640822 0.646347 0.651884 0.657411 0.662907 0.668345 0.673697 0.678927 0.684001 0.688876 0.693509 0.697855 0.701865 0.705491 0.708686 0.711401 0.713590 0.715210 0.716222 0.716594 0.716299 0.715320 0.713648 0.711287 0.708247 0.704550 0.700227 0.695317 0.689868 0.683934 0.677573 0.670849 0.663828 0.656581 0.649175 0.641682 0.634167 0.626699 0.619341 0.612153 0.605190 0.598506 0.592148 0.586157 0.580571 0.575423 0.570739 0.566542 0.562849 0.559672 0.557018 0.554893 0.553295 0.552221 0.551663 0.551610 0.552049 0.552966 0.554341 0.556156 0.558389 0.561017 0.564017 0.567366 0.571038 0.575008 0.579252 0.583745 0.588461 0.593377 0.598470 0.603715 0.609091 0.614576 0.620150 0.625793 0.631486 0.637211 0.642951 0.648686 0.654396 0.660056 0.665641 0.671119 0.676456 0.681613 0.686549 0.691219 0.695577 0.699575 0.703165 0.706299 0.708929 0.711012 0.712504 0.713366 0.713565 0.713067 0.711848 0.709885 0.707163 0.703670 0.699400 0.694352 0.688531 0.681945 0.674608 0.666538 0.657755 0.648286 0.638159 0.627405 0.616058 0.604155 0.591732 0.578829 0.565487 0.551746 0.537647 0.523232 0.508543 0.493618 0.478500 0.463227 0.447837 0.432368 0.416854 0.401330 0.385829 0.370381 0.355016 0.339761 0.324642 0.309683 0.294907 0.280334 0.265981 0.251866 0.238004 0.224409 0.211092 0.198065 0.185336 0.172914 0.160803 0.149011 0.137540 0.126393 0.115573 0.105081 0.094916 0.085077 0.075564 0.066373 0.057503 0.048953 0.040721 0.032812 0.025231 0.017989 0.011103 0.004592 -0.001519 -0.007202 -0.012424 -0.017151 -0.021344 -0.024967 -0.027981 -0.030349 -0.032034 -0.033003 -0.033224 -0.032669 -0.031316 -0.029143 -0.026137 -0.022287 -0.017588 -0.012039 -0.005645 0.001585 0.009639 0.018496 0.028137 0.038534 0.049659 0.061480 0.073963 0.087068 0.100759 0.114994 0.129730 0.144926 0.160537 0.176520 0.192832 0.209429 0.226268 0.243308 0.260507 0.277825 0.295224 0.312666 0.330116 0.347540 0.364905 0.382181 0.399339 0.416352 0.433194 0.449844 0.466279 0.482479 0.498426 0.514102 0.529490 0.544569 0.559319 0.573713 0.587725 0.601321 0.614467 0.627124 0.639251 0.650804 0.661739 0.672012 0.681577 0.690393 0.698417 0.705612 0.711946 0.717391 0.721928 0.725548 0.728251 0.730046 0.730953 0.731003 0.730233 0.728693 0.726437 0.723527 0.720030 0.716016 0.711560 0.706737 0.701622 0.696292 0.690819 0.685277 0.679732 0.674250 0.668892 0.663714 0.658766 0.654094 0.649739 0.645736 0.642115 0.638900 0.636112 0.633764 0.631867 0.630427 0.629445 0.628919 0.628843 0.629209 0.630005 0.631217 0.632828 0.634821 0.637177 0.639874 0.642891 0.646205 0.649793 0.653633 0.657699 0.661971 0.666423 0.671034 0.675782 0.680644 0.685602 0.690634 0.695722 0.700849 0.705996 0.711147 0.716286 0.721394 0.726451 0.731435 0.736319 0.741071 0.745657 0.750040 0.754176 0.758022 0.761530 0.764654 0.767345 0.769556 0.771239 0.772352 0.772852 0.772704 0.771880 0.770357 0.768125 0.765181 0.761533 0.757199 0.752207 0.746593 0.740404 0.733692 0.726516 0.718940 0.711032 0.702863 0.694504 0.686027 0.677505 0.669006 0.660600 0.652349 0.644315 0.636553 0.629116 0.622050 0.615396 0.609191 0.603465 0.598244 0.593548 0.589393 0.585790 0.582744 0.580257 0.578327 0.576948 0.576111 0.575804 0.576010 0.576714 0.577894 0.579530 0.581600 0.584080 0.586945 0.590170 0.593729 0.597595 0.601744 0.606148 0.610783 0.615624 0.620646 0.625825 0.631139 0.636565 0.642084 0.647675 0.653318 0.658994 0.664686 0.670372 0.676030 0.681633 0.687154 0.692558 0.697808 0.702864 0.707680 0.712212 0.716410 0.720225 0.723607 0.726507 0.728879 0.730676 0.731858 0.732387 0.732235 0.731378 0.729804 0.727510 0.724502 0.720799 0.716426 0.711422 0.705830 0.699704 0.693102 0.686089 0.678732 0.671102 0.663272 0.655315 0.647302 0.639306 0.631393 0.623629 0.616075 0.608789 0.601823 0.595224 0.589035 0.583292 0.578026 0.573264 0.569026 0.565329 0.562184 0.559595 0.557567 0.556095 0.555175 0.554798 0.554950 0.555616 0.556778 0.558418 0.560513 0.563042 0.565978 0.569299 0.572977 0.576987 0.581302 0.585896 0.590743 0.595816 0.601091 0.606542 0.612146 0.617880 0.623720 0.629646 0.635637 0.641675 0.647739 0.653812 0.659874 0.665902 0.671872 0.677755 0.683518 0.689125 0.694537 0.699709 0.704596 0.709150 0.713322 0.717063 0.720322 0.723053 0.725211 0.726752 0.727638 0.727833 0.727307 0.726033 0.723991 0.721165 0.717545 0.713127 0.707909 0.701898 0.695103 0.687540 0.679227 0.670187 0.660447 0.650037 0.638990 0.627340 0.615126 0.602385 0.589159 0.575488 0.561416 0.546983 0.532233 0.517208 0.501949 0.486498 0.470893 0.455175 0.439380 0.423546 0.407705 0.391893 0.376140 0.360475 0.344926 0.329520 0.314280 0.299231 0.284391 0.269778 0.255411 0.241304 0.227472 0.213925 0.200675 0.187730 0.175099 0.162787 0.150800 0.139142 0.127815 0.116821 0.106161 0.095834 0.085841 0.076179 0.066846 0.057840 0.049159 0.040804 0.032777 0.025087 0.017744 0.010765 0.004168 -0.002020 -0.007771 -0.013053 -0.017833 -0.022073 -0.025737 -0.028788 -0.031190 -0.032908 -0.033909 -0.034165 -0.033648 -0.032337 -0.030214 -0.027265 -0.023482 -0.018860 -0.013401 -0.007109 0.000005 0.007927 0.016639 0.026117 0.036336 0.047267 0.058877 0.071132 0.083995 0.097427 0.111388 0.125836 0.140730 0.156026 0.171682 0.187654 0.203902 0.220382 0.237054 0.253878 0.270814 0.287826 0.304876 0.321931 0.338957 0.355922 0.372797 0.389554 0.406168 0.422613 0.438867 0.454910 0.470722 0.486286 0.501583 0.516597 0.531307 0.545692 0.559726 0.573382 0.586627 0.599425 0.611739 0.623527 0.634748 0.645356 0.655310 0.664564 0.673079 0.680812 0.687730 0.693800 0.698998 0.703307 0.706719 0.709235 0.710868 0.711638 0.711577 0.710725 0.709129 0.706846 0.703936 0.700465 0.696503 0.692124 0.687400 0.682406 0.677216 0.671900 0.666529 0.661168 0.655880 0.650724 0.645753 0.641016 0.636557 0.632414 0.628621 0.625205 0.622190 0.619594 0.617430 0.615707 0.614431 0.613601 0.613216 0.613268 0.613749 0.614647 0.615947 0.617633 0.619689 0.622093 0.624827 0.627868 0.631194 0.634783 0.638611 0.642657 0.646897 0.651309 0.655871 0.660562 0.665360 0.670246 0.675201 0.680207 0.685245 0.690300 0.695354 0.700393 0.705397 0.710347 0.715220 0.719988 0.724621 0.729084 0.733339 0.737344 0.741056 0.744429 0.747416 0.749971 0.752046 0.753596 0.754579 0.754955 0.754687 0.753744 0.752099 0.749733 0.746635 0.742803 0.738247 0.732983 0.727040 0.720456 0.713275 0.705553 0.697349 0.688729 0.679765 0.670530 0.661098 0.651548 0.641953 0.632390 0.622930 0.613643 0.604594 0.595843 0.587448 0.579459 0.571922 0.564877 0.558359 0.552395 0.547010 0.542221 0.538040 0.534476 0.531530 0.529203 0.527487 0.526373 0.525849 0.525898 0.526503 0.527643 0.529294 0.531433 0.534034 0.537069 0.540512 0.544333 0.548505 0.552999 0.557785 0.562837 0.568127 0.573626 0.579310 0.585153 0.591131 0.597220 0.603396 0.609639 0.615929 0.622247 0.628572 0.634884 0.641161 0.647377 0.653505 0.659511 0.665360 0.671011 0.676423 0.681550 0.686345 0.690760 0.694745 0.698254 0.701239 0.703656 0.705466 0.706632 0.707128 0.706932 0.706035 0.704435 0.702142 0.699175 0.695561 0.691337 0.686550 0.681251 0.675497 0.669350 0.662877 0.656146 0.649225 0.642184 0.635091 0.628013 0.621014 0.614155 0.607494 0.601082 0.594970 0.589199 0.583810 0.578835 0.574303 0.570238 0.566657 0.563576 0.561002 0.558942 0.557396 0.556361 0.555830 0.555796 0.556244 0.557161 0.558529 0.560331 0.562545 0.565150 0.568123 0.571441 0.575079 0.579014 0.583220 0.587673 0.592348 0.597223 0.602272 0.607474 0.612806 0.618248 0.623777 0.629375 0.635024 0.640705 0.646401 0.652093 0.657761 0.663383 0.668932 0.674379 0.679690 0.684827 0.689750 0.694414 0.698775 0.702784 0.706393 0.709555 0.712222 0.714349 0.715893 0.716815 0.717079 0.716652 0.715508 0.713625 0.710984 0.707575 0.703390 0.698426 0.692689 0.686184 0.678926 0.670930 0.662219 0.652816 0.642749 0.632050 0.620752 0.608890 0.596502 0.583627 0.570305 0.556576 0.542483 0.528066 0.513366 0.498426 0.483284 0.467980 0.452553 0.437040 0.421477 0.405899 0.390337 0.374824 0.359389 0.344060 0.328864 0.313824 0.298963 0.284302 0.269859 0.255652 0.241696 0.228005 0.214592 0.201468 0.188641 0.176119 0.163911 0.152019 0.140450 0.129206 0.118290 0.107701 0.097441 0.087509 0.077903 0.068622 0.059662 0.051020 0.042690 0.034665 0.026932 0.019480 0.012290 0.005343 -0.001386 -0.007923 -0.014298 -0.020541 -0.026686 -0.032766 -0.038816 -0.044871 -0.050963 -0.057125 -0.063387 -0.069779 -0.076325 -0.083049 -0.089971 -0.097110 -0.104478 -0.112087 -0.119943 -0.128053 -0.136416 -0.145032 -0.153895 -0.162999 -0.172335 -0.181890 -0.191652 -0.201605 -0.211731 -0.222014 -0.232434 -0.242971 -0.253606 -0.264315 -0.275079 -0.285877 -0.296686 -0.307487 -0.318260 -0.328983 -0.339639 -0.350209 -0.360675 -0.371021 -0.381230 -0.391289 -0.401183 -0.410899 -0.420425 -0.429752 -0.438869 -0.447768 -0.456442 -0.464884 -0.473086 -0.481040 -0.488737 -0.496167 -0.503315 -0.510167 -0.516703 -0.522905 -0.528750 -0.534215 -0.539275 -0.543905 -0.548080 -0.551776 -0.554968 -0.557636 -0.559758 -0.561321 -0.562311 -0.562723 -0.562556 -0.561817 -0.560517 -0.558674 -0.556313 -0.553463 -0.550159 -0.546440 -0.542347 -0.537927 -0.533225 -0.528291 -0.523173 -0.517919 -0.512579 -0.507197 -0.501820 -0.496489 -0.491245 -0.486124 -0.481161 -0.476386 -0.471826 -0.467506 -0.463446 -0.459664 -0.456172 -0.452983 -0.450103 -0.447538 -0.445290 -0.443358 -0.441740 -0.440432 -0.439427 -0.438717 -0.438291 -0.438140 -0.438250 -0.438609 -0.439204 -0.440020 -0.441042 -0.442256 -0.443648 -0.445201 -0.446901 -0.448734 -0.450686 -0.452741 -0.454887 -0.457112 -0.459401 -0.461742 -0.464126 -0.466540 -0.468975 -0.471419 -0.473860 -0.476283 -0.478673 -0.481009 -0.483273 -0.485438 -0.487481 -0.489373 -0.491084 -0.492585 -0.493846 -0.494835 -0.495522 -0.495880 -0.495880 -0.495498 -0.494712 -0.493508 -0.491872 -0.489800 -0.487292 -0.484355 -0.481003 -0.477256 -0.473139 -0.468681 -0.463919 -0.458889 -0.453634 -0.448196 -0.442622 -0.436955 -0.431243 -0.425530 -0.419859 -0.414273 -0.408811 -0.403511 -0.398407 -0.393531 -0.388911 -0.384572 -0.380536 -0.376820 -0.373439 -0.370406 -0.367729 -0.365412 -0.363460 -0.361871 -0.360643 -0.359772 -0.359250 -0.359068 -0.359218 -0.359686 -0.360461 -0.361526 -0.362868 -0.364471 -0.366319 -0.368394 -0.370681 -0.373163 -0.375822 -0.378643 -0.381608 -0.384703 -0.387911 -0.391217 -0.394606 -0.398065 -0.401580 -0.405138 -0.408728 -0.412338 -0.415955 -0.419567 -0.423158 -0.426712 -0.430210 -0.433630 -0.436948 -0.440139 -0.443174 -0.446023 -0.448657 -0.451043 -0.453152 -0.454951 -0.456412 -0.457507 -0.458210 -0.458499 -0.458355 -0.457765 -0.456722 -0.455224 -0.453276 -0.450890 -0.448084 -0.444882 -0.441311 -0.437405 -0.433203 -0.428745 -0.424073 -0.419234 -0.414272 -0.409233 -0.404164 -0.399109 -0.394110 -0.389209 -0.384445 -0.379853 -0.375466 -0.371314 -0.367423 -0.363816 -0.360513 -0.357530 -0.354880 -0.352573 -0.350615 -0.349010 -0.347760 -0.346862 -0.346313 -0.346106 -0.346234 -0.346687 -0.347455 -0.348523 -0.349879 -0.351508 -0.353394 -0.355521 -0.357874 -0.360435 -0.363187 -0.366115 -0.369202 -0.372431 -0.375785 -0.379251 -0.382811 -0.386453 -0.390160 -0.393921 -0.397722 -0.401551 -0.405397 -0.409247 -0.413089 -0.416909 -0.420691 -0.424417 -0.428068 -0.431620 -0.435048 -0.438325 -0.441422 -0.444309 -0.446955 -0.449330 -0.451402 -0.453142 -0.454521 -0.455513 -0.456092 -0.456238 -0.455930 -0.455153 -0.453893 -0.452141 -0.449890 -0.447137 -0.443882 -0.440129 -0.435884 -0.431157 -0.425958 -0.420303 -0.414209 -0.407694 -0.400778 -0.393484 -0.385835 -0.377856 -0.369572 -0.361009 -0.352193 -0.343151 -0.333909 -0.324495 -0.314933 -0.305250 -0.295471 -0.285620 -0.275721 -0.265796 -0.255868 -0.245957 -0.236082 -0.226263 -0.216516 -0.206858 -0.197305 -0.187870 -0.178566 -0.169405 -0.160398 -0.151553 -0.142880 -0.134386 -0.126078 -0.117961 -0.110041 -0.102321 -0.094804 -0.087493 -0.080390 -0.073495 -0.066810 -0.060333 -0.054066 -0.048006 -0.042152 -0.036502 -0.031053 -0.025801 -0.020737 -0.015850 -0.011124 -0.006537 -0.002065 0.002324 0.006665 0.010997 0.015362 0.019807 0.024378 0.029122 0.034087 0.039319 0.044863 0.050762 0.057055 0.063777 0.070960 0.078631 0.086812 0.095520 0.104769 0.114566 0.124913 0.135809 0.147246 0.159215 0.171700 0.184683 0.198141 0.212051 0.226383 0.241109 0.256197 0.271612 0.287321 0.303288 0.319476 0.335850 0.352372 0.369007 0.385718 0.402470 0.419230 0.435963 0.452639 0.469227 0.485696 0.502020 0.518173 0.534130 0.549867 0.565364 0.580602 0.595562 0.610230 0.624589 0.638627 0.652331 0.665686 0.678676 0.691283 0.703484 0.715254 0.726564 0.737380 0.747668 0.757389 0.766504 0.774973 0.782753 0.789806 0.796092 0.801575 0.806222 0.810007 0.812907 0.814911 0.816015 0.816224 0.815554 0.814031 0.811688 0.808571 0.804730 0.800223 0.795115 0.789473 0.783371 0.776882 0.770081 0.763044 0.755845 0.748556 0.741248 0.733986 0.726834 0.719850 0.713086 0.706593 0.700412 0.694582 0.689136 0.684101 0.679500 0.675350 0.671664 0.668451 0.665715 0.663455 0.661669 0.660350 0.659488 0.659071 0.659085 0.659512 0.660334 0.661531 0.663083 0.664968 0.667163 0.669645 0.672391 0.675379 0.678585 0.681986 0.685561 0.689287 0.693144 0.697111 0.701168 0.705298 0.709482 0.713705 0.717948 0.722196 0.726430 0.730628 0.734767 0.738817 0.742747 0.746521 0.750099 0.753440 0.756499 0.759228 0.761581 0.763510 0.764969 0.765912 0.766296 0.766084 0.765240 0.763738 0.761558 0.758691 0.755136 0.750902 0.746008 0.740484 0.734367 0.727703 0.720546 0.712953 0.704990 0.696722 0.688221 0.679557 0.670802 0.662025 0.653296 0.644682 0.636244 0.628042 0.620131 0.612561 0.605378 0.598621 0.592325 0.586520 0.581230 0.576474 0.572267 0.568618 0.565533 0.563011 0.561051 0.559644 0.558782 0.558452 0.558638 0.559322 0.560484 0.562102 0.564154 0.566615 0.569461 0.572665 0.576202 0.580046 0.584171 0.588551 0.593160 0.597974 0.602967 0.608118 0.613401 0.618796 0.624282 0.629838 0.635446 0.641088 0.646744 0.652395 0.658018 0.663587 0.669075 0.674447 0.679669 0.684698 0.689493 0.694008 0.698196 0.702007 0.705394 0.708309 0.710705 0.712538 0.713770 0.714364 0.714294 0.713540 0.712094 0.709954 0.707130 0.703642 0.699520 0.694800 0.689529 0.683759 0.677549 0.670961 0.664061 0.656919 0.649602 0.642182 0.634727 0.627302 0.619974 0.612802 0.605843 0.599151 0.592774 0.586755 0.581133 0.575941 0.571206 0.566953 0.563199 0.559958 0.557239 0.555045 0.553378 0.552234 0.551607 0.551486 0.551859 0.552712 0.554025 0.555781 0.557958 0.560534 0.563486 0.566789 0.570420 0.574354 0.578564 0.583028 0.587719 0.592614 0.597688 0.602919 0.608285 0.613763 0.619332 0.624974 0.630669 0.636398 0.642145 0.647891 0.653615 0.659294 0.664902 0.670409 0.675782 0.680982 0.685969 0.690698 0.695125 0.699200 0.702877 0.706106 0.708841 0.711036 0.712649 0.713639 0.713971 0.713613 0.712538 0.710723 0.708151 0.704809 0.700691 0.695795 0.690124 0.683686 0.676494 0.668563 0.659917 0.650578 0.640575 0.629938 0.618702 0.606901 0.594574 0.581758 0.568495 0.554825 0.540788 0.526427 0.511783 0.496897 0.481809 0.466557 0.451182 0.435719 0.420206 0.404676 0.389161 0.373695 0.358305 0.343021 0.327867 0.312869 0.298048 0.283427 0.269024 0.254854 0.240936 0.227281 0.213903 0.200812 0.188018 0.175529 0.163351 0.151490 0.139950 0.128734 0.117844 0.107282 0.097047 0.087139 0.077557 0.068298 0.059361 0.050742 0.042443 0.034466 0.026815 0.019501 0.012539 0.005948 -0.000249 -0.006022 -0.011342 -0.016173 -0.020479 -0.024222 -0.027364 -0.029866 -0.031693 -0.032810 -0.033185 -0.032790 -0.031600 -0.029594 -0.026758 -0.023079 -0.018552 -0.013174 -0.006950 0.000112 0.008000 0.016697 0.026182 0.036428 0.047409 0.059092 0.071444 0.084427 0.098003 0.112131 0.126769 0.141876 0.157407 0.173318 0.189566 0.206108 0.222902 0.239904 0.257073 0.274370 0.291755 0.309191 0.326642 0.344073 0.361452 0.378747 0.395930 0.412973 0.429851 0.446541 0.463020 0.479268 0.495267 0.510998 0.526445 0.541587 0.556404 0.570871 0.584962 0.598644 0.611882 0.624640 0.636876 0.648547 0.659609 0.670017 0.679727 0.688696 0.696881 0.704245 0.710754 0.716380 0.721104 0.724915 0.727811 0.729801 0.730904 0.731150 0.730576 0.729228 0.727162 0.724438 0.721121 0.717283 0.712996 0.708335 0.703375 0.698192 0.692858 0.687445 0.682022 0.676653 0.671397 0.666313 0.661449 0.656853 0.652565 0.648620 0.645048 0.641874 0.639118 0.636795 0.634916 0.633486 0.632508 0.631979 0.631894 0.632245 0.633022 0.634209 0.635790 0.637750 0.640068 0.642724 0.645696 0.648963 0.652502 0.656289 0.660303 0.664518 0.668914 0.673467 0.678155 0.682958 0.687855 0.692827 0.697854 0.702920 0.708006 0.713097 0.718175 0.723223 0.728222 0.733147 0.737973 0.742668 0.747198 0.751525 0.755607 0.759399 0.762856 0.765929 0.768569 0.770731 0.772366 0.773431 0.773885 0.773693 0.772824 0.771259 0.768986 0.766001 0.762313 0.757940 0.752910 0.747261 0.741036 0.734289 0.727080 0.719471 0.711531 0.703331 0.694942 0.686436 0.677885 0.669360 0.660926 0.652650 0.644591 0.636805 0.629344 0.622255 0.615579 0.609353 0.603606 0.598365 0.593651 0.589477 0.585856 0.582793 0.580290 0.578344 0.576950 0.576098 0.575776 0.575970 0.576660 0.577828 0.579453 0.581512 0.583981 0.586836 0.590051 0.593600 0.597458 0.601599 0.605995 0.610623 0.615457 0.620473 0.625646 0.630955 0.636376 0.641890 0.647477 0.653116 0.658789 0.664477 0.670160 0.675816 0.681418 0.686936 0.692339 0.697588 0.702642 0.707459 0.711990 0.716188 0.720003 0.723385 0.726286 0.728658 0.730457 0.731640 0.732172 0.732023 0.731172 0.729608 0.727327 0.724337 0.720658 0.716318 0.711352 0.705808 0.699738 0.693200 0.686261 0.678986 0.671448 0.663718 0.655868 0.647969 0.640093 0.632306 0.624672 0.617253 0.610103 0.603274 0.596813 0.590761 0.585154 0.580021 0.575390 0.571279 0.567703 0.564674 0.562196 0.560271 0.558896 0.558066 0.557770 0.557996 0.558729 0.559951 0.561641 0.563778 0.566341 0.569305 0.572644 0.576334 0.580349 0.584662 0.589247 0.594078 0.599130 0.604378 0.609798 0.615365 0.621056 0.626851 0.632727 0.638665 0.644645 0.650650 0.656661 0.662656 0.668614 0.674510 0.680313 0.685991 0.691506 0.696818 0.701883 0.706655 0.711085 0.715125 0.718724 0.721834 0.724408 0.726401 0.727770 0.728478 0.728489 0.727775 0.726310 0.724075 0.721054 0.717240 0.712627 0.707216 0.701015 0.694034 0.686289 0.677800 0.668590 0.658686 0.648119 0.636923 0.625133 0.612786 0.599922 0.586582 0.572806 0.558638 0.544119 0.529292 0.514198 0.498880 0.483378 0.467731 0.451979 0.436159 0.420306 0.404455 0.388639 0.372889 0.357233 0.341700 0.326314 0.311101 0.296082 0.281276 0.266703 0.252379 0.238318 0.224535 0.211040 0.197844 0.184955 0.172382 0.160130 0.148204 0.136608 0.125343 0.114413 0.103817 0.093555 0.083625 0.074027 0.064758 0.055813 0.047187 0.038872 0.030856 0.023125 0.015662 0.008446 0.001452 -0.005347 -0.011980 -0.018480 -0.024880 -0.031214 -0.037515 -0.043820 -0.050160 -0.056568 -0.063074 -0.069707 -0.076491 -0.083451 -0.090605 -0.097970 -0.105561 -0.113387 -0.121456 -0.129771 -0.138333 -0.147141 -0.156189 -0.165470 -0.174975 -0.184691 -0.194605 -0.204701 -0.214963 -0.225372 -0.235909 -0.246554 -0.257287 -0.268087 -0.278933 -0.289805 -0.300680 -0.311538 -0.322359 -0.333125 -0.343815 -0.354411 -0.364897 -0.375256 -0.385472 -0.395532 -0.405420 -0.415126 -0.424638 -0.433945 -0.443037 -0.451907 -0.460547 -0.468952 -0.477112 -0.485021 -0.492668 -0.500044 -0.507132 -0.513919 -0.520385 -0.526510 -0.532272 -0.537647 -0.542611 -0.547138 -0.551204 -0.554784 -0.557855 -0.560395 -0.562386 -0.563812 -0.564662 -0.564930 -0.564618 -0.563730 -0.562281 -0.560289 -0.557778 -0.554780 -0.551329 -0.547465 -0.543230 -0.538671 -0.533835 -0.528769 -0.523525 -0.518150 -0.512693 -0.507201 -0.501718 -0.496287 -0.490949 -0.485741 -0.480695 -0.475844 -0.471215 -0.466830 -0.462711 -0.458876 -0.455336 -0.452104 -0.449187 -0.446589 -0.444312 -0.442357 -0.440719 -0.439395 -0.438378 -0.437658 -0.437228 -0.437074 -0.437185 -0.437548 -0.438149 -0.438973 -0.440006 -0.441232 -0.442638 -0.444206 -0.445923 -0.447774 -0.449744 -0.451820 -0.453987 -0.456232 -0.458543 -0.460906 -0.463312 -0.465750 -0.468208 -0.470675 -0.473139 -0.475585 -0.477998 -0.480357 -0.482643 -0.484832 -0.486896 -0.488810 -0.490544 -0.492066 -0.493348 -0.494358 -0.495066 -0.495443 -0.495462 -0.495099 -0.494329 -0.493133 -0.491495 -0.489403 -0.486850 -0.483836 -0.480366 -0.476452 -0.472113 -0.467372 -0.462259 -0.456810 -0.451063 -0.445061 -0.438850 -0.432477 -0.425992 -0.419443 -0.412880 -0.406352 -0.399905 -0.393583 -0.387429 -0.381484 -0.375782 -0.370357 -0.365239 -0.360453 -0.356022 -0.351963 -0.348293 -0.345021 -0.342156 -0.339703 -0.337664 -0.336036 -0.334815 -0.333997 -0.333571 -0.333528 -0.333856 -0.334539 -0.335563 -0.336911 -0.338567 -0.340512 -0.342728 -0.345196 -0.347898 -0.350815 -0.353927 -0.357216 -0.360664 -0.364252 -0.367964 -0.371782 -0.375690 -0.379673 -0.383715 -0.387804 -0.391925 -0.396065 -0.400213 -0.404354 -0.408476 -0.412560 -0.416591 -0.420546 -0.424404 -0.428140 -0.431725 -0.435133 -0.438331 -0.441290 -0.443978 -0.446365 -0.448420 -0.450114 -0.451421 -0.452315 -0.452778 -0.452793 -0.452349 -0.451442 -0.450076 -0.448257 -0.446001 -0.443328 -0.440265 -0.436844 -0.433100 -0.429072 -0.424802 -0.420334 -0.415714 -0.410987 -0.406200 -0.401396 -0.396621 -0.391915 -0.387318 -0.382868 -0.378599 -0.374541 -0.370723 -0.367169 -0.363901 -0.360936 -0.358289 -0.355971 -0.353991 -0.352353 -0.351060 -0.350112 -0.349506 -0.349237 -0.349299 -0.349683 -0.350378 -0.351373 -0.352654 -0.354207 -0.356018 -0.358072 -0.360352 -0.362842 -0.365527 -0.368388 -0.371411 -0.374578 -0.377874 -0.381284 -0.384792 -0.388383 -0.392043 -0.395759 -0.399518 -0.403307 -0.407116 -0.410931 -0.414742 -0.418535 -0.422295 -0.426006 -0.429648 -0.433199 -0.436636 -0.439932 -0.443058 -0.445987 -0.448686 -0.451125 -0.453273 -0.455101 -0.456578 -0.457678 -0.458376 -0.458647 -0.458473 -0.457835 -0.456719 -0.455114 -0.453013 -0.450411 -0.447307 -0.443703 -0.439604 -0.435019 -0.429959 -0.424436 -0.418467 -0.412070 -0.405264 -0.398072 -0.390516 -0.382620 -0.374410 -0.365911 -0.357149 -0.348150 -0.338943 -0.329552 -0.320005 -0.310327 -0.300543 -0.290679 -0.280757 -0.270803 -0.260836 -0.250879 -0.240952 -0.231073 -0.221262 -0.211534 -0.201905 -0.192390 -0.183001 -0.173751 -0.164652 -0.155712 -0.146941 -0.138348 -0.129938 -0.121719 -0.113695 -0.105870 -0.098248 -0.090832 -0.083623 -0.076624 -0.069834 -0.063254 -0.056884 -0.050723 -0.044769 -0.039021 -0.033474 -0.028123 -0.022960 -0.017970 -0.013135 -0.008433 -0.003835 0.000692 0.005186 0.009689 0.014245 0.018900 0.023704 0.028704 0.033950 0.039487 0.045361 0.051615 0.058285 0.065408 0.073014 0.081128 0.089772 0.098961 0.108705 0.119012 0.129881 0.141308 0.153285 0.165800 0.178835 0.192371 0.206383 0.220844 0.235726 0.250997 0.266624 0.282573 0.298806 0.315288 0.331981 0.348848 0.365851 0.382954 0.400120 0.417313 0.434500 0.451646 0.468720 0.485691 0.502528 0.519206 0.535697 0.551976 0.568022 0.583814 0.599332 0.614558 0.629478 0.644077 0.658341 0.672256 0.685808 0.698978 0.711746 0.724089 0.735978 0.747382 0.758266 0.768594 0.778326 0.787419 0.795833 0.803527 0.810458 0.816590 0.821885 0.826314 0.829852 0.832483 0.834199 0.835001 0.834902 0.833924 0.832099 0.829467 0.826077 0.821986 0.817257 0.811957 0.806157 0.799933 0.793359 0.786512 0.779468 0.772299 0.765079 0.757874 0.750750 0.743767 0.736980 0.730441 0.724194 0.718281 0.712736 0.707589 0.702865 0.698583 0.694757 0.691398 0.688512 0.686100 0.684161 0.682689 0.681675 0.681109 0.680975 0.681260 0.681944 0.683008 0.684432 0.686195 0.688275 0.690648 0.693292 0.696183 0.699299 0.702617 0.706114 0.709769 0.713561 0.717468 0.721472 0.725552 0.729692 0.733875 0.738084 0.742301 0.746509 0.750686 0.754808 0.758848 0.762774 0.766550 0.770136 0.773490 0.776566 0.779317 0.781695 0.783651 0.785137 0.786107 0.786517 0.786326 0.785501 0.784014 0.781846 0.778987 0.775438 0.771209 0.766322 0.760805 0.754699 0.748050 0.740912 0.733345 0.725414 0.717186 0.708733 0.700124 0.691431 0.682725 0.674073 0.665542 0.657193 0.649086 0.641274 0.633807 0.626728 0.620078 0.613889 0.608191 0.603007 0.598355 0.594248 0.590697 0.587704 0.585271 0.583393 0.582063 0.581272 0.581005 0.581247 0.581981 0.583185 0.584838 0.586917 0.589398 0.592257 0.595467 0.599002 0.602838 0.606948 0.611306 0.615888 0.620669 0.625624 0.630730 0.635966 0.641308 0.646737 0.652232 0.657776 0.663349 0.668932 0.674505 0.680043 0.685519 0.690902 0.696158 0.701247 0.706127 0.710753 0.715078 0.719052 0.722626 0.725751 0.728378 0.730460 0.731953 0.732818 0.733019 0.732529 0.731329 0.729408 0.726767 0.723415 0.719373 0.714670 0.709347 0.703450 0.697035 0.690162 0.682896 0.675309 0.667470 0.659454 0.651333 0.643180 0.635066 0.627058 0.619222 0.611617 0.604300 0.597323 0.590730 0.584565 0.578861 0.573650 0.568955 0.564797 0.561190 0.558143 0.555662 0.553748 0.552397 0.551601 0.551352 0.551634 0.552433 0.553730 0.555505 0.557735 0.560396 0.563465 0.566914 0.570719 0.574852 0.579287 0.583997 0.588956 0.594138 0.599517 0.605068 0.610768 0.616593 0.622520 0.628529 0.634599 0.640711 0.646846 0.652985 0.659107 0.665191 0.671210 0.677135 0.682932 0.688565 0.693992 0.699170 0.704052 0.708591 0.712736 0.716438 0.719649 0.722321 0.724409 0.725872 0.726670 0.726770 0.726142 0.724761 0.722607 0.719665 0.715927 0.711389 0.706051 0.699920 0.693007 0.685328 0.676902 0.667754 0.657911 0.647403 0.636263 0.624527 0.612233 0.599420 0.586129 0.572401 0.558279 0.543804 0.529020 0.513968 0.498690 0.483226 0.467616 0.451900 0.436114 0.420294 0.404475 0.388689 0.372968 0.357340 0.341833 0.326473 0.311283 0.296287 0.281504 0.266952 0.252647 0.238605 0.224839 0.211361 0.198181 0.185307 0.172748 0.160509 0.148595 0.137009 0.125755 0.114834 0.104247 0.093992 0.084070 0.074478 0.065215 0.056275 0.047653 0.039341 0.031328 0.023600 0.016139 0.008924 0.001931 -0.004868 -0.011502 -0.018003 -0.024404 -0.030739 -0.037043 -0.043350 -0.049693 -0.056104 -0.062614 -0.069251 -0.076039 -0.083003 -0.090162 -0.097533 -0.105129 -0.112960 -0.121034 -0.129355 -0.137924 -0.146737 -0.155792 -0.165080 -0.174591 -0.184314 -0.194235 -0.204338 -0.214606 -0.225022 -0.235566 -0.246218 -0.256958 -0.267765 -0.278618 -0.289496 -0.300378 -0.311244 -0.322072 -0.332844 -0.343541 -0.354144 -0.364637 -0.375002 -0.385225 -0.395291 -0.405186 -0.414898 -0.424416 -0.433729 -0.442827 -0.451703 -0.460349 -0.468759 -0.476925 -0.484840 -0.492493 -0.499873 -0.506967 -0.513759 -0.520230 -0.526360 -0.532127 -0.537507 -0.542475 -0.547007 -0.551077 -0.554661 -0.557736 -0.560281 -0.562276 -0.563707 -0.564562 -0.564838 -0.564535 -0.563660 -0.562227 -0.560254 -0.557768 -0.554798 -0.551382 -0.547557 -0.543368 -0.538859 -0.534078 -0.529074 -0.523895 -0.518591 -0.513208 -0.507794 -0.502392 -0.497044 -0.491791 -0.486668 -0.481709 -0.476944 -0.472400 -0.468099 -0.464063 -0.460307 -0.456844 -0.453686 -0.450839 -0.448307 -0.446092 -0.444194 -0.442609 -0.441333 -0.440358 -0.439676 -0.439279 -0.439153 -0.439287 -0.439668 -0.440282 -0.441114 -0.442151 -0.443377 -0.444777 -0.446337 -0.448041 -0.449876 -0.451826 -0.453879 -0.456020 -0.458236 -0.460516 -0.462846 -0.465216 -0.467616 -0.470035 -0.472461 -0.474881 -0.477281 -0.479644 -0.481951 -0.484180 -0.486308 -0.488307 -0.490150 -0.491807 -0.493248 -0.494443 -0.495360 -0.495971 -0.496246 -0.496159 -0.495686 -0.494807 -0.493505 -0.491772 -0.489601 -0.486996 -0.483966 -0.480524 -0.476691 -0.472494 -0.467964 -0.463136 -0.458050 -0.452747 -0.447271 -0.441667 -0.435981 -0.430258 -0.424543 -0.418880 -0.413309 -0.407871 -0.402602 -0.397536 -0.392704 -0.388133 -0.383848 -0.379870 -0.376215 -0.372899 -0.369933 -0.367323 -0.365076 -0.363192 -0.361672 -0.360513 -0.359709 -0.359252 -0.359135 -0.359347 -0.359875 -0.360706 -0.361826 -0.363219 -0.364870 -0.366762 -0.368879 -0.371204 -0.373720 -0.376412 -0.379261 -0.382252 -0.385368 -0.388595 -0.391918 -0.395321 -0.398791 -0.402314 -0.405879 -0.409473 -0.413084 -0.416700 -0.420307 -0.423891 -0.427435 -0.430918 -0.434319 -0.437613 -0.440774 -0.443774 -0.446582 -0.449168 -0.451500 -0.453549 -0.455282 -0.456672 -0.457690 -0.458311 -0.458513 -0.458279 -0.457595 -0.456456 -0.454860 -0.452813 -0.450327 -0.447422 -0.444119 -0.440451 -0.436449 -0.432153 -0.427604 -0.422845 -0.417921 -0.412879 -0.407766 -0.402626 -0.397505 -0.392446 -0.387489 -0.382675 -0.378038 -0.373611 -0.369425 -0.365504 -0.361874 -0.358552 -0.355555 -0.352895 -0.350583 -0.348625 -0.347024 -0.345781 -0.344894 -0.344359 -0.344171 -0.344320 -0.344797 -0.345590 -0.346688 -0.348074 -0.349736 -0.351656 -0.353820 -0.356209 -0.358809 -0.361601 -0.364569 -0.367697 -0.370967 -0.374363 -0.377870 -0.381473 -0.385156 -0.388906 -0.392708 -0.396551 -0.400421 -0.404307 -0.408197 -0.412078 -0.415936 -0.419757 -0.423521 -0.427208 -0.430796 -0.434259 -0.437571 -0.440701 -0.443621 -0.446300 -0.448706 -0.450808 -0.452578 -0.453986 -0.455006 -0.455612 -0.455784 -0.455502 -0.454750 -0.453514 -0.451785 -0.449557 -0.446826 -0.443593 -0.439860 -0.435635 -0.430927 -0.425747 -0.420110 -0.414033 -0.407535 -0.400635 -0.393357 -0.385723 -0.377759 -0.369489 -0.360939 -0.352136 -0.343107 -0.333878 -0.324475 -0.314924 -0.305252 -0.295483 -0.285642 -0.275753 -0.265837 -0.255917 -0.246014 -0.236148 -0.226336 -0.216596 -0.206945 -0.197399 -0.187970 -0.178672 -0.169516 -0.160514 -0.151674 -0.143006 -0.134516 -0.126212 -0.118099 -0.110182 -0.102465 -0.094951 -0.087643 -0.080542 -0.073649 -0.066966 -0.060491 -0.054225 -0.048166 -0.042313 -0.036663 -0.031212 -0.025951 -0.020870 -0.015952 -0.011176 -0.006516 -0.001941 0.002586 0.007104 0.011657 0.016290 0.021052 0.025991 0.031155 0.036593 0.042350 0.048468 0.054989 0.061949 0.069379 0.077308 0.085758 0.094747 0.104288 0.114389 0.125052 0.136275 0.148052 0.160372 0.173219 0.186574 0.200415 0.214716 0.229450 0.244585 0.260089 0.275928 0.292066 0.308467 0.325094 0.341909 0.358876 0.375956 0.393114 0.410313 0.427519 0.444697 0.461815 0.478841 0.495746 0.512501 0.529079 0.545456 0.561608 0.577514 0.593152 0.608505 0.623558 0.638294 0.652701 0.666765 0.680470 0.693802 0.706739 0.719261 0.731341 0.742948 0.754050 0.764610 0.774589 0.783947 0.792642 0.800632 0.807877 0.814336 0.819972 0.824752 0.828647 0.831636 0.833703 0.834845 0.835067 0.834384 0.832820 0.830410 0.827199 0.823238 0.818586 0.813309 0.807477 0.801164 0.794446 0.787400 0.780104 0.772635 0.765068 0.757475 0.749925 0.742483 0.735210 0.728162 0.721388 0.714935 0.708843 0.703145 0.697871 0.693044 0.688684 0.684804 0.681413 0.678516 0.676114 0.674203 0.672777 0.671826 0.671339 0.671299 0.671691 0.672494 0.673689 0.675255 0.677168 0.679406 0.681945 0.684761 0.687830 0.691128 0.694632 0.698319 0.702166 0.706151 0.710254 0.714453 0.718730 0.723066 0.727444 0.731847 0.736258 0.740657 0.745023 0.749333 0.753558 0.757665 0.761620 0.765382 0.768909 0.772155 0.775073 0.777614 0.779730 0.781373 0.782496 0.783055 0.783009 0.782322 0.780964 0.778912 0.776155 0.772688 0.768517 0.763661 0.758144 0.752004 0.745286 0.738041 0.730329 0.722214 0.713764 0.705051 0.696148 0.687127 0.678063 0.669027 0.660088 0.651312 0.642761 0.634494 0.626563 0.619018 0.611900 0.605249 0.599095 0.593467 0.588385 0.583865 0.579920 0.576556 0.573775 0.571574 0.569950 0.568891 0.568386 0.568421 0.568976 0.570031 0.571566 0.573557 0.575978 0.578806 0.582012 0.585571 0.589456 0.593640 0.598096 0.602797 0.607718 0.612833 0.618117 0.623547 0.629099 0.634751 0.640483 0.646275 0.652107 0.657961 0.663816 0.669651 0.675441 0.681157 0.686769 0.692239 0.697529 0.702595 0.707392 0.711871 0.715984 0.719681 0.722913 0.725631 0.727789 0.729345 0.730258 0.730498 0.730037 0.728861 0.726961 0.724340 0.721012 0.717001 0.712338 0.707066 0.701235 0.694901 0.688127 0.680978 0.673526 0.665842 0.657998 0.650068 0.642124 0.634234 0.626465 0.618880 0.611538 0.604493 0.597795 0.591488 0.585612 0.580198 0.575277 0.570871 0.566998 0.563670 0.560896 0.558679 0.557020 0.555913 0.555351 0.555322 0.555812 0.556806 0.558284 0.560224 0.562606 0.565404 0.568595 0.572152 0.576050 0.580263 0.584764 0.589526 0.594525 0.599733 0.605127 0.610682 0.616374 0.622182 0.628082 0.634054 0.640079 0.646138 0.652212 0.658283 0.664327 0.670323 0.676244 0.682057 0.687728 0.693220 0.698489 0.703492 0.708180 0.712505 0.716417 0.719868 0.722809 0.725194 0.726979 0.728122 0.728589 0.728345 0.727363 0.725621 0.723100 0.719789 0.715679 0.710770 0.705064 0.698570 0.691301 0.683274 0.674511 0.665036 0.654878 0.644070 0.632645 0.620640 0.608093 0.595045 0.581535 0.567607 0.553301 0.538662 0.523730 0.508548 0.493157 0.477598 0.461910 0.446130 0.430296 0.414443 0.398605 0.382814 0.367100 0.351491 0.336015 0.320697 0.305559 0.290623 0.275908 0.261432 0.247210 0.233257 0.219586 0.206207 0.193131 0.180365 0.167917 0.155792 0.143994 0.132527 0.121392 0.110591 0.100125 0.089992 0.080191 0.070720 0.061577 0.052761 0.044271 0.036110 0.028285 0.020805 0.013686 0.006948 0.000614 -0.005287 -0.010725 -0.015666 -0.020074 -0.023911 -0.027142 -0.029729 -0.031637 -0.032833 -0.033288 -0.032974 -0.031869 -0.029953 -0.027213 -0.023638 -0.019224 -0.013971 -0.007882 -0.000968 0.006759 0.015280 0.024574 0.034616 0.045376 0.056823 0.068924 0.081640 0.094935 0.108768 0.123097 0.137881 0.153077 0.168642 0.184533 0.200708 0.217126 0.233744 0.250522 0.267422 0.284404 0.301434 0.318475 0.335494 0.352460 0.369342 0.386112 0.402744 0.419213 0.435497 0.451574 0.467424 0.483029 0.498372 0.513436 0.528200 0.542645 0.556745 0.570472 0.583796 0.596681 0.609090 0.620982 0.632316 0.643046 0.653131 0.662526 0.671189 0.679079 0.686161 0.692401 0.697774 0.702260 0.705851 0.708545 0.710353 0.711294 0.711397 0.710700 0.709250 0.707100 0.704311 0.700949 0.697081 0.692782 0.688123 0.683179 0.678024 0.672730 0.667367 0.662002 0.656698 0.651514 0.646505 0.641721 0.637206 0.633000 0.629138 0.625648 0.622555 0.619877 0.617629 0.615822 0.614460 0.613544 0.613074 0.613043 0.613443 0.614262 0.615486 0.617101 0.619087 0.621428 0.624101 0.627085 0.630360 0.633902 0.637688 0.641695 0.645902 0.650285 0.654822 0.659492 0.664273 0.669147 0.674092 0.679093 0.684129 0.689185 0.694244 0.699290 0.704306 0.709271 0.714164 0.718958 0.723623 0.728126 0.732428 0.736489 0.740266 0.743713 0.746784 0.749431 0.751607 0.753268 0.754370 0.754873 0.754740 0.753941 0.752453 0.750260 0.747356 0.743746 0.739442 0.734470 0.728862 0.722659 0.715913 0.708678 0.701017 0.692997 0.684686 0.676158 0.667484 0.658737 0.649988 0.641307 0.632760 0.624409 0.616315 0.608530 0.601104 0.594082 0.587503 0.581401 0.575803 0.570733 0.566209 0.562244 0.558846 0.556019 0.553762 0.552072 0.550939 0.550354 0.550302 0.550766 0.551727 0.553164 0.555057 0.557380 0.560109 0.563218 0.566682 0.570474 0.574567 0.578935 0.583552 0.588392 0.593429 0.598641 0.604001 0.609489 0.615082 0.620759 0.626501 0.632287 0.638099 0.643918 0.649725 0.655495 0.661202 0.666817 0.672307 0.677634 0.682757 0.687633 0.692215 0.696457 0.700310 0.703724 0.706654 0.709052 0.710875 0.712084 0.712644 0.712528 0.711715 0.710195 0.707966 0.705039 0.701432 0.697173 0.692299 0.686858 0.680900 0.674486 0.667679 0.660545 0.653155 0.645580 0.637892 0.630159 0.622452 0.614837 0.607376 0.600129 0.593151 0.586491 0.580197 0.574307 0.568856 0.563876 0.559389 0.555415 0.551969 0.549062 0.546697 0.544876 0.543597 0.542853 0.542634 0.542927 0.543717 0.544987 0.546717 0.548886 0.551471 0.554449 0.557794 0.561483 0.565488 0.569785 0.574348 0.579150 0.584168 0.589376 0.594750 0.600267 0.605905 0.611641 0.617456 0.623329 0.629243 0.635178 0.641117 0.647039 0.652922 0.658742 0.664470 0.670074 0.675516 0.680758 0.685757 0.690467 0.694841 0.698831 0.702389 0.705467 0.708019 0.710002 0.711373 0.712096 0.712138 0.711468 0.710063 0.707904 0.704976 0.701270 0.696783 