0.000000 0.000000 0.000000 0.000000 0.000000 0.000000 0.000000 0.000000 1.188413 -0.742359 -1.330183 -1.424649 0.030297 0.134974 -0.014795 -0.559239 -1.005322 -1.636018 -1.212450 -0.884339 -0.717368 0.860719 1.171925 1.897205 2.135455 2.377664 2.446716 1.279504 2.650431 1.510597 0.744032 1.386671 1.020658 0.802351 -0.042194 -1.181029 -1.565467 -0.523276 0.267737 1.395745 -0.183022 -1.162298 -1.593457 -1.237781 0.106821 1.329934 0.571736 -0.463094 -1.686784 -1.289023 0.168592 1.103252 3.645114 0.813334 -0.338528 -1.938948 0.210591 2.036299 2.267244 0.403882 0.777895 0.233628 0.229626 2.094827 1.108383 0.927361 -0.345922 0.208233 0.010074 0.996118 -0.141795 -0.621022 -0.898279 -1.230782 -1.172757 0.168525 -0.304691 -0.289088 -0.148880 -0.182419 0.175266 -1.107100 -1.493936 -1.779702 -0.621690 1.688440 0.023544 1.508601 -1.163370 -0.835564 -0.009658 1.387425 2.698214 0.133331 -0.254188 -0.619229 -0.029655 0.009958 -0.169745 -0.959778 -1.390048 -1.694776 -0.576753 -0.258466 0.573495 -0.204558 -0.737738 -1.601276 -1.107393 0.348236 1.943909 1.228432 -1.451200 -2.225779 -1.796463 2.149304 0.882625 0.433669 -0.786395 -0.823163 0.508467 1.670326 1.852468 -1.350889 -1.208059 -1.859692 -0.854070 -0.765073 -1.730835 -2.310304 -2.294430 -0.887851 -2.029468 -2.294440 -1.265202 -0.807437 -0.629314 -2.459998 -2.516470 -1.714373 -0.048884 0.476732 -0.913687 -2.147120 -2.475892 -2.366578 -0.483522 0.704234 0.197161 -2.424436 -3.419259 -2.737365 -2.666289 -1.560223 -0.082301 -0.431039 -0.013015 -1.809523 -0.828923 -0.871822 0.488033 0.431665 -0.886233 -2.318874 -2.803198 -1.303631 -1.169750 -1.280079 -1.530197 -1.817017 -1.157466 -2.213432 -2.580546 -1.935872 -0.746297 -1.060095 -1.199500 -1.573572 -2.849315 -3.821378 -2.902176 -1.829965 -1.052085 -1.786529 -3.426708 -3.586320 -2.694895 -0.538151 0.197217 0.091571 1.125347 0.095284 -0.853889 -2.528631 -0.556005 0.676917 1.993774 0.888213 0.677324 -1.283694 -0.446896 -0.096125 3.104938 3.481310 4.223784 1.975815 0.894954 3.318102 4.597921 4.260653 2.669059 2.169676 3.487919 4.594856 4.049107 4.157000 3.473498 4.874308 4.941631 6.337214 5.464128 4.122854 4.344279 5.121762 4.253618 5.571567 3.670844 3.977509 4.683464 6.033581 5.282670 5.299909 5.526080 4.621454 5.769234 6.092886 5.050314 5.544719 4.593729 5.038542 5.634027 7.081108 7.824673 7.984996 6.769496 6.487622 6.238012 7.291373 6.937934 7.646710 8.732011 8.179085 6.234106 6.052300 6.403945 7.684107 6.915881 7.649050 6.045947 4.475432 3.439581 3.391821 6.981756 6.195122 6.586511 6.186428 4.550879 4.640862 6.216288 6.700118 6.786979 6.923570 4.895547 3.440382 3.447305 2.575629 2.294467 2.538640 2.597771 0.563961 -0.162513 1.377013 1.032162 1.806393 1.577182 1.780133 3.312151 1.977366 0.884275 0.808345 1.162393 1.258413 1.941505 1.246530 0.734725 1.178293 -0.272560 -0.470787 -0.733426 -1.653167 -0.734812 -0.832497 -1.391602 -2.791560 -3.297675 -4.702508 -4.215914 -3.174421 -3.050269 -3.289680 -3.473194 -4.619068 -3.626252 -3.322825 -0.851520 -1.480048 -2.879933 -4.283149 -3.160226 -1.060300 -0.125804 -0.181968 -1.464106 -2.614961 -2.106767 0.894429 1.817448 1.644232 -0.497067 -2.599819 -1.528833 -0.046563 3.910301 2.207199 1.397757 0.203240 0.301386 1.006526 1.555861 3.987418 3.342764 3.093604 1.677293 2.818894 2.196505 3.380541 3.529130 3.922431 3.936259 2.462546 1.487672 1.273913 3.259454 2.858732 4.222373 3.681404 2.883955 2.412398 3.248785 4.317295 3.471644 2.863466 2.941708 2.295958 3.363442 5.357260 6.134512 3.608723 1.740560 1.001105 4.688415 4.168413 2.393535 1.830213 -0.341037 0.096660 0.269479 1.233669 0.835438 1.802974 2.198804 1.672074 2.032819 2.360905 1.493602 2.217641 2.788132 4.357086 2.824976 1.625250 -0.464272 -0.519433 2.428063 2.578456 1.488992 -0.399223 -1.208055 -0.919075 0.864968 0.283405 -0.156912 -0.465448 -1.356648 -1.334633 -1.318438 -1.414344 -0.465529 -1.255772 -1.704575 -1.613238 -0.577268 -0.840059 1.101580 0.812792 -0.091947 -2.675415 -2.984595 -2.282502 -0.837547 0.547592 -1.637397 -3.423775 -5.024642 -4.074462 -2.812648 -1.930064 0.180151 -1.410894 -1.643705 -2.551144 -2.547165 -1.805194 -1.830437 -0.989557 -0.475095 -0.595499 -3.166657 -5.013595 -3.919865 -1.760413 -1.446083 -1.629480 -2.607079 -3.709903 -4.337549 -3.983190 -2.126663 -1.837517 -2.306008 -3.318386 -4.294124 -3.810343 -1.431221 -0.900916 -1.432618 -2.688947 -3.555262 -2.678507 -2.774342 -2.360331 -2.615611 -3.839831 -3.975327 -4.573816 -3.369399 -3.486873 -2.409405 -3.448363 -1.232674 -2.239776 -1.733529 -2.006756 -2.160779 -2.802877 -2.566543 0.066844 -1.713350 -1.020370 -3.154147 -4.220715 -4.228240 -2.797512 -0.731061 -2.215930 -3.123859 -4.082385 -3.388495 -2.064628 -2.013554 -1.249963 -0.706913 -0.456283 -0.710403 -1.692652 -2.287061 -0.515645 2.223333 0.701230 -0.817299 -0.558995 0.359485 1.178394 1.272304 2.328332 0.059306 1.206592 0.709090 0.659499 0.232185 1.094840 0.815800 -0.905718 -1.197302 -1.393755 -2.911132 -3.024381 -1.015028 -0.114754 1.345946 -0.385793 -1.330201 -0.905386 0.656697 2.133604 3.420485 2.494665 0.703734 -0.174271 -0.137093 0.276192 1.294421 1.180851 0.524285 1.257650 1.002996 1.027837 -0.457192 0.558930 2.308438 1.908382 0.505604 -0.640523 0.049240 -0.471400 1.246266 2.179524 0.772420 0.415472 -1.946050 -2.263993 -1.921725 1.609629 2.286519 0.758364 -0.639884 -2.403111 -0.617172 3.845463 3.985602 1.611759 0.538233 1.024828 1.198958 0.906240 2.242131 1.184344 1.366719 1.719533 2.874333 0.863354 2.233513 3.293637 4.419745 2.501727 0.741080 0.493695 0.313396 1.841899 1.557194 2.428101 0.413026 -1.526108 -2.044768 -0.983750 1.552124 1.481717 0.519546 -0.661392 -1.654760 -1.058290 -1.491320 -0.747645 -1.235435 -1.870056 -3.234758 -4.186119 -3.378846 -4.555778 -3.584200 -4.292849 -3.430845 -4.588259 -3.921875 -4.890513 -4.415900 -3.494420 -4.110175 -3.052675 -3.991578 -6.284460 -6.232430 -4.124777 -4.679479 -4.090448 -3.783090 -5.316579 -6.003435 -2.909191 -1.240058 -2.469102 -1.910119 -1.710640 -3.286474 -3.385265 -1.790002 -1.213593 -3.094303 -2.364506 -1.477471 -2.431716 -3.823787 -3.326387 -2.046311 -0.627716 -1.786861 -3.458627 -4.137968 -3.546827 -2.188532 -0.693554 -1.511303 -2.860097 -3.418329 -2.536735 -1.125548 -0.469321 -1.817114 -2.637359 -1.883775 -1.791556 -0.579605 0.439718 1.424632 0.392838 -0.917728 0.393575 0.331812 0.083634 0.907961 1.477458 0.852646 -1.689868 -2.021446 -1.932698 -1.141600 -0.557522 0.126924 -2.224394 -2.449588 -2.507329 -1.655082 -1.844207 -2.259497 -1.247979 -2.344445 -1.316861 -2.861396 -3.827578 -3.597954 -1.962683 -0.980831 -1.319541 -2.855295 -4.019605 -2.158175 -1.308108 -0.773260 0.079657 -0.863772 -2.545666 -2.796269 -3.713868 -4.357212 -3.330735 -3.828801 -2.902338 -4.092660 -5.449312 -4.510093 -5.545913 -5.880187 -4.660803 -5.232923 -4.674003 -6.449906 -5.693261 -4.640910 -4.396026 -3.884879 -4.358537 -2.911757 -3.750741 -3.828893 -2.603452 -1.049613 -0.607685 -0.920469 -3.257743 -3.622223 -1.316611 0.769213 1.546093 -0.892379 -1.079969 -0.675734 2.135468 1.844942 2.605985 2.792533 3.797751 4.282494 3.856373 2.439649 2.546441 4.872086 3.953341 4.084639 1.029526 1.798599 2.667340 2.319276 2.961415 2.610082 2.382916 2.327124 2.818650 5.224932 4.212091 3.677477 3.535962 3.112458 2.946407 3.373628 5.088261 4.515230 2.321145 1.237904 2.028342 3.551543 5.537364 7.624668 4.744192 3.431814 3.835036 4.326013 4.718259 5.849066 5.105491 4.343519 4.878108 3.689882 3.330470 3.697031 6.001244 4.931902 4.506125 4.630031 3.288400 3.537067 5.170351 5.562335 4.062076 3.284340 3.548339 4.730365 4.317924 3.354169 2.526439 2.027904 3.786301 3.345601 1.588729 0.819936 1.361028 2.486837 1.879192 0.373182 -0.203153 1.564860 1.781368 2.089548 2.495332 -0.146774 0.582137 -0.050437 0.844798 0.597646 -0.316935 0.170906 -0.865079 0.559701 -1.010052 1.206182 2.441154 2.251244 1.592499 2.109897 1.842065 1.571412 3.168324 3.700457 2.708485 1.509357 1.009369 0.739948 1.893792 1.599335 2.412832 2.033285 1.334016 1.076713 2.308795 1.539990 3.463103 2.757723 3.819105 2.584100 0.768666 2.251456 2.826274 3.018334 1.506251 2.623837 1.244579 0.602533 0.451403 1.928231 1.724224 0.731482 0.672333 -0.408762 -0.030263 1.348554 1.057570 -0.263825 -0.280909 1.884275 1.542526 0.081054 -0.059197 -0.141339 -0.984095 -0.538280 -0.399452 -1.382314 -2.454359 -3.137369 -2.023152 -1.974131 -2.160881 -3.578775 -2.048493 -1.355122 -0.027158 0.190066 -0.513737 -0.810968 -0.716811 0.812826 -0.214209 0.106302 1.321687 1.627344 0.956632 0.063681 -1.257626 -2.236133 -1.208243 0.969059 0.664589 -0.591098 -1.310773 -1.242952 -0.911811 -0.700434 0.464278 1.904244 2.007959 0.613197 -0.674007 -1.167147 0.067308 0.965549 0.868629 -1.018204 -0.912500 -1.358533 -0.368283 -2.325816 -1.846563 -1.657116 -0.996980 -0.617910 -1.772839 -1.557550 -0.728119 0.486436 0.251148 0.906474 1.335519 1.643601 3.805935 6.073282 4.886781 3.347705 1.411892 2.347126 3.905769 4.617175 2.442650 0.232501 -0.363592 -0.831207 -1.094567 1.135462 1.250380 0.561841 0.556677 2.128729 2.515517 2.462696 2.519111 2.354971 3.026736 2.435995 1.480349 0.039473 0.236341 0.324058 0.456927 1.237560 2.823361 1.357429 0.249137 1.539777 2.742026 1.363976 0.528255 1.656288 1.538000 1.535653 2.068091 1.977791 0.368639 -1.048417 0.472478 1.350610 2.776878 0.414223 -1.469392 -0.405301 -1.743851 0.457363 0.976189 0.178747 -0.532911 0.517367 0.831333 -1.198585 -1.754388 -1.120828 -0.905851 0.568734 -0.710017 -1.754128 -2.644164 -2.001324 -1.219086 -0.921134 -0.936630 -0.814373 -1.044650 -1.943721 -1.597620 -1.955969 -2.183238 -3.297646 -3.178463 -3.747329 -3.053726 -2.763115 -2.682350 -2.437506 -3.950856 -4.963361 -4.831139 -3.674567 -3.597003 -2.942275 -1.966371 -4.476992 -6.177685 -4.936367 -3.702766 -2.732353 -2.699545 -3.256209 -4.044065 -4.511022 -4.215590 -5.414940 -5.304685 -3.982460 -2.403183 -2.470956 -3.669954 -3.518372 -3.133136 -0.948610 -0.869290 0.853359 1.387193 0.486749 -0.008619 -1.355257 -0.669924 0.498856 0.247086 0.056492 0.096518 0.783967 -0.166446 -0.012508 -0.664609 0.037050 0.727066 -0.169814 -1.743795 -2.394172 -1.532401 -0.160970 -0.893644 -1.976970 -1.026057 -0.057867 0.391330 -0.608243 0.369753 -0.515219 1.312791 0.238687 0.734496 0.082627 -0.513509 0.599734 0.229976 0.673614 -0.252819 0.416793 -0.275494 -1.537573 -1.004792 -0.882267 -0.369981 -1.246970 -1.693731 -0.893643 -1.397478 -1.649291 -0.879888 -0.086866 -0.200150 -0.657228 -1.303830 -1.752989 -0.334718 0.015132 0.069115 1.456024 0.759151 0.240346 -0.101529 0.865168 1.107957 1.718389 1.299505 1.096737 2.425162 1.583863 1.113828 2.193326 2.508779 1.461420 1.730472 2.222815 1.981130 2.676780 2.665990 2.071431 1.593447 3.134908 4.439561 2.906937 1.199040 1.343033 2.253821 2.571468 2.885839 1.082637 -0.507248 -0.632373 0.715189 1.132750 0.905056 0.123886 -0.752272 -0.686620 -0.053912 0.668250 0.711904 1.425138 2.161129 1.501324 0.245028 2.096350 3.235766 2.180505 1.993180 -0.409421 0.407415 -0.467274 1.289584 0.784949 0.393262 1.717283 0.945687 0.625536 -0.157080 2.770421 2.320340 1.150237 1.987856 0.760009 -0.181088 0.132250 0.462354 -0.015936 -0.005490 -0.876771 -0.515473 1.563555 2.600362 2.521158 2.304718 3.042991 3.374485 4.846542 4.669718 4.792567 4.820210 4.743656 4.298656 3.985624 3.822430 3.475141 4.616871 4.096463 3.540127 2.048082 1.690334 1.359115 2.263469 2.540169 2.171111 1.073905 0.549538 -0.176726 0.787370 0.780113 0.986247 1.616816 0.564114 0.264648 -0.954772 -0.367919 -0.727084 -1.148534 -1.693910 -2.819000 -2.082541 -3.274188 -2.990977 -2.363401 -2.316187 -3.639449 -3.590307 -3.836174 -3.144135 -3.220346 -3.677879 -5.340142 -5.101653 -3.613231 -3.402922 -4.552903 -3.641681 -1.487957 -1.834214 -3.262155 -3.753804 -4.960556 -4.849761 -3.252998 -4.278486 -4.972246 -5.799155 -6.145779 -6.836985 -5.420884 -5.244251 -3.810686 -4.079671 -3.996194 -5.274376 -5.487388 -4.224416 -3.980348 -3.139732 -4.376085 -4.886916 -4.644498 -3.906643 -5.464848 -4.326232 -3.058432 -1.702955 -3.140199 -4.445606 -4.729454 -3.181720 -1.522079 -3.150818 -3.273909 -3.087674 -3.188073 -1.392457 -1.325381 -1.640541 -2.135796 -1.146061 -1.709454 -2.396583 -0.405935 -1.018839 -1.632460 -1.266995 -0.807408 -1.033751 -0.952596 1.485726 2.426297 0.562135 0.781978 1.028461 0.450792 1.394509 3.876349 3.519809 1.709204 0.897464 0.820234 1.119809 1.824591 0.754400 -0.588803 -0.734874 -0.844591 -0.237552 0.854551 2.474672 2.879713 1.864744 1.121642 2.430527 3.755179 3.129567 2.543049 1.699081 -0.066384 1.198838 1.525586 0.981219 0.174613 2.071028 0.004225 0.834176 1.907153 1.939219 1.841129 2.600206 3.297318 3.159163 3.694363 1.819920 1.938675 2.529578 3.081737 3.627971 3.729716 2.831622 1.557324 0.451393 1.648907 2.254904 2.466564 2.092542 0.552780 0.034927 -0.838867 0.844018 1.136883 1.168832 -0.018338 -2.609159 -1.930638 -2.855986 0.132969 0.240029 -0.711904 -2.243092 -3.378833 -2.043853 -1.781494 -1.206717 -2.897996 -3.373737 -3.367002 -3.180777 -2.392407 -2.964974 -3.277940 -2.770012 -1.995142 -3.243433 -3.644557 -3.420026 -2.964701 -2.248022 -2.160389 -1.390895 -2.155245 -0.768283 -1.174769 -0.374030 -0.039780 0.358855 -1.384525 -0.953050 0.083274 -1.401687 -1.635282 -0.685693 -0.373980 -1.927073 -1.940398 -0.734244 0.951619 1.639165 1.349343 0.620919 0.585847 0.569999 3.313302 3.978865 3.139670 2.511375 2.117117 2.457339 1.938801 2.817990 2.301384 2.953937 3.860006 3.728817 3.953729 2.787989 4.910193 5.578137 6.255030 5.153552 5.246869 6.432269 4.342958 5.407857 5.774602 8.886564 7.290913 7.442323 6.917087 5.577046 6.679689 7.617346 7.799402 7.036537 7.971574 7.425994 6.305699 6.651286 8.297688 7.641057 6.050651 5.347576 5.350238 5.287899 5.278240 5.927295 4.431866 3.182521 2.163930 2.945853 2.894872 3.377348 2.393366 1.097680 0.489701 1.331055 3.309734 3.543532 3.468888 2.122935 2.314485 3.259434 4.750981 4.811758 5.215806 4.181819 4.257635 3.449704 3.649877 4.782627 5.900923 5.171662 3.694128 2.830063 4.018605 5.554713 5.788728 4.564687 3.983627 3.402776 2.833608 4.229164 3.158062 2.429337 2.160977 0.805654 0.211087 1.319115 2.552133 1.886357 -0.804570 -1.210335 -0.504317 0.076340 0.290773 1.164710 0.394219 -1.946740 -2.174500 -0.831391 -1.965698 -1.254544 -1.795901 -2.272974 -3.430556 -2.883182 -4.046167 -3.877930 -3.885116 -1.565380 -1.933374 -2.770289 -3.878718 -2.868564 -1.191106 -2.202260 -1.493823 -1.807197 -1.715149 -0.875214 -1.088327 -1.004849 -1.718934 -0.649653 -0.138742 1.319453 0.746729 0.456878 0.538264 -0.042969 -0.051613 -1.221510 -1.742073 -2.057225 -0.886130 -1.383192 -1.617409 -2.011757 -2.063506 -0.502554 -0.207656 -0.796367 0.049922 -0.480971 0.241737 -0.701199 -1.562440 -1.658223 -0.450465 -0.594802 -1.428349 -0.377423 0.962850 1.697664 1.292223 -1.001594 -1.456736 0.488463 1.023953 2.632395 2.312794 1.630247 -0.288577 -0.117013 1.627873 1.408987 3.214578 1.745649 0.695492 -1.558605 -1.495502 0.349818 1.437770 0.971604 -0.300843 -1.239343 -0.766889 1.523180 3.778948 1.243380 -1.145098 -1.474053 -0.818093 0.526284 1.238053 0.975213 -0.946358 -1.376727 -1.651553 -1.799111 -1.754870 -0.346818 -0.158370 1.170866 0.331360 -1.088830 -3.091718 -1.841633 0.401496 0.126350 -0.965668 -1.552221 -3.666710 -4.782527 -4.954357 -2.755531 -1.981246 -2.207048 -3.307876 -6.410507 -7.739330 -5.663750 -3.585439 -4.048319 -4.812131 -6.447618 -8.263312 -7.823253 -5.918836 -5.237601 -5.329718 -5.042594 -5.343045 -6.597146 -6.066167 -6.530276 -6.157392 -6.150949 -7.809788 -7.724246 -7.162751 -7.100580 -6.555372 -6.120563 -5.840769 -4.488114 -4.612809 -4.437966 -5.191376 -4.688123 -5.440330 -5.805827 -5.363083 -5.943614 -5.179834 -5.967928 -7.209546 -7.031344 -5.439781 -4.653296 -4.752479 -4.654611 -5.462974 -4.862678 -5.463451 -5.110606 -5.072535 -3.491974 -3.967804 -4.533518 -4.131233 -5.674541 -5.077674 -4.180562 -1.560893 -2.355473 -2.882700 -2.641628 -2.914360 -2.066510 -2.401881 -1.258891 -0.043912 -0.241211 -1.516065 -1.665285 -0.465623 0.873131 1.457864 0.487098 0.937618 2.457022 3.096017 1.876673 2.346869 4.436447 3.330485 4.131513 3.136296 1.956683 3.018886 4.190532 4.000370 1.104427 0.329228 0.582663 1.930350 3.628709 2.317119 0.916026 0.739185 2.321228 2.862195 3.766795 4.319078 4.283617 2.087908 2.040310 4.031033 3.978585 3.996193 3.592006 2.379755 1.874287 1.559586 1.221427 0.639354 3.027362 4.156733 3.725341 4.208322 1.322705 2.548289 3.381683 4.976316 2.960852 1.724007 1.123453 0.984440 -0.502413 -0.826755 -1.122710 -0.725342 -1.670130 -1.882180 -4.181570 -5.157496 -3.470613 -2.736915 -1.777032 -2.590541 -3.388171 -5.187231 -2.208453 -0.440354 0.160349 -1.875801 -3.664470 -3.668979 -2.158628 -1.107613 -3.490991 -3.095333 -3.744364 -3.163827 -3.983963 -4.325369 -5.000837 -4.937148 -2.255226 -2.328882 -3.275144 -5.902109 -5.374653 -4.573774 -4.283817 -5.027131 -4.761743 -3.661594 -5.013155 -6.275721 -7.402348 -5.297921 -3.651499 -3.223628 -2.976494 -3.391374 -3.100909 -3.750615 -2.810999 -2.252931 -3.086767 -4.524781 -4.687462 -2.613949 -3.822204 -4.233445 -4.126287 -3.587279 -4.451529 -4.726209 -4.151289 -2.012729 -2.771000 -3.482560 -3.153459 -1.931852 -1.666221 -1.093484 0.170860 -0.065671 0.919144 -1.947472 -2.845884 -2.050443 0.334520 -1.181730 -0.661559 0.983713 -0.865595 -1.520747 -0.479120 0.070464 1.262583 3.609798 2.456649 1.170812 2.492269 2.641677 3.625887 4.933216 3.261325 1.711006 1.988648 3.570428 4.445379 4.042010 2.013066 2.958400 4.903331 4.986807 4.715048 4.594700 5.025792 4.504326 4.617280 5.167006 4.606344 3.556785 4.761852 5.636888 4.540458 3.996182 4.192149 3.348333 4.515730 7.120379 7.914514 6.281165 4.354785 4.158865 5.201419 5.800377 6.923830 6.313491 5.193290 5.005146 5.621672 5.805250 5.769410 5.881522 6.922895 7.329424 8.670821 7.003706 5.752094 6.763684 8.168925 7.642285 7.015945 5.606036 4.148716 5.329078 6.452448 5.456746 4.371220 5.332213 5.801716 5.271064 5.586752 5.355267 6.600400 5.724588 4.648514 4.479996 3.777347 5.519048 4.881036 3.514069 2.088664 3.436716 4.412296 5.051775 6.608445 5.614719 3.865485 4.097234 4.411221 4.829834 4.406904 4.016576 2.683484 3.574589 3.093821 1.982781 3.415719 2.010391 2.932805 1.914067 3.441239 3.885522 4.583272 3.974100 3.076336 4.881602 3.350132 3.470074 3.284459 4.428282 2.468218 1.533089 1.019453 2.901083 4.231001 5.089431 4.887809 4.276488 4.046915 5.461133 6.324666 6.543338 5.391916 3.965444 4.003668 4.341785 5.398903 4.254853 3.268235 3.278331 2.833765 3.835899 3.949618 3.329137 1.847596 1.766610 2.985270 3.576823 4.294523 2.738342 2.765469 4.615913 4.638370 4.516595 3.443656 4.136297 3.385181 3.386125 2.529647 1.501275 1.866590 3.007243 3.520791 1.213833 1.728604 1.488522 2.268566 3.281211 3.390752 1.564485 -0.212749 0.681063 1.900063 1.447036 0.828681 1.170716 1.543863 -0.049243 0.238327 1.742066 0.561940 -0.460808 -0.152108 0.114753 -1.222570 -2.496870 -2.548365 -2.782040 -2.160057 -2.135970 -2.828802 -3.839477 -4.364679 -3.528437 -4.178433 -4.675977 -4.470322 -3.706920 -3.072526 -4.216537 -4.445385 -4.269946 -1.033897 -0.009328 -1.021628 -3.188904 -4.490625 -3.975395 -1.970080 -3.283789 -3.996703 -4.852721 -3.747539 -4.084077 -4.681220 -5.055512 -4.924645 -2.896434 -3.263930 -3.710811 -3.885384 -4.825252 -5.392423 -3.883741 -3.059364 -2.798805 -3.316971 -4.175763 -5.728403 -3.781202 -2.799875 -3.209776 -2.810950 -3.287918 -4.051327 -3.857204 -3.671170 -3.923004 -3.502118 -3.277213 -2.402112 -1.763107 -1.123461 -3.427583 -4.630340 -4.520777 -2.487758 -1.944461 -2.713556 -4.239929 -5.207848 -4.664230 -2.133623 -2.470120 -1.677257 -0.631545 -0.081346 -1.104973 0.032812 -0.519209 -1.555269 0.381491 1.657945 0.712124 -0.545519 -1.026245 -1.800098 -1.507399 -0.074002 1.394708 1.203576 -0.656167 -1.125855 -1.445588 -1.231385 -1.032774 1.166419 0.115878 -0.233532 -1.547189 -2.176807 -2.716185 -2.867096 -1.044230 -0.312494 -0.458023 -2.614590 -2.381052 -2.031261 -1.111207 0.059169 0.562085 -0.582043 -1.767747 -2.146450 -1.524066 -1.784596 -2.749805 -1.883651 -1.774304 -1.561327 -2.801743 -1.887355 -2.149842 -3.336256 -3.471367 -1.280413 -0.940691 -1.920113 -2.039236 -2.493232 -1.087084 0.024301 0.646673 -0.973885 -0.748562 -1.224050 -1.286140 -0.548990 -1.804689 -1.340665 -2.086898 -0.986212 0.026675 0.619288 0.792711 0.299382 0.695025 -0.237860 -0.995079 -0.585810 0.907830 0.437188 -0.969830 -1.442596 -1.382390 -0.835212 0.259767 0.825353 1.401979 1.089673 1.707525 2.325927 1.762953 -0.166882 1.675671 2.491324 2.023479 1.100193 0.433784 -2.355875 -3.573891 -2.187100 -2.550663 -2.653158 -3.346870 -3.627075 -4.493100 -3.024731 -2.182044 -3.489227 -3.531063 -2.989578 -2.938870 -4.739324 -4.521322 -4.133274 -3.435796 -3.412094 -5.191348 -5.763306 -4.249164 -3.747623 -3.709698 -2.525751 -2.831616 -3.119675 -4.288607 -4.029111 -4.150978 -3.789887 -4.417960 -4.592880 -4.149933 -5.697578 -5.905717 -5.833988 -3.841822 -3.248843 -2.777210 -3.394619 -3.028227 -2.373851 -2.920018 -3.393344 -3.104130 -2.876281 -2.732386 -4.036516 -4.024306 -2.511763 -1.461706 -3.129914 -2.452728 -0.218449 -1.790189 -1.762378 -0.792670 -0.062536 -1.035423 -0.497608 -1.686831 -2.139062 -0.872156 -2.112713 -2.211668 -1.080112 -1.068350 -2.967631 -2.618546 -1.231376 -0.319426 -0.098716 -0.976407 -2.327590 -2.613167 -1.691326 -1.468696 -1.916203 -1.138108 -1.495533 -2.223341 -3.281207 -4.232591 -2.726325 -1.334520 -1.499127 -3.271740 -3.075397 -3.588650 -2.577878 -1.276722 -0.754725 -2.056772 -2.504893 -1.716878 -0.762946 -0.512330 -0.539239 -1.540703 -1.752847 -1.996740 -1.741143 -2.510363 -3.803524 -3.519605 -2.696786 -2.323610 -2.795815 -4.006444 -4.470808 -3.154979 -1.278072 -1.556420 -2.507547 -3.101340 -2.098648 -2.076630 -1.364873 1.012474 0.040212 -0.578872 -0.494941 -1.217790 -0.718603 0.861019 1.692143 1.304068 0.466450 -0.021352 2.606000 2.140648 1.195420 1.672519 1.639205 1.313292 1.034925 0.660151 0.978743 2.096460 1.655918 2.210261 2.221766 1.180560 1.855848 3.304188 5.063800 4.289634 3.378089 2.053658 2.332682 4.269590 3.778129 2.419170 1.360782 1.821884 2.546797 2.006049 2.908681 2.822031 3.142090 2.359031 3.238505 1.572005 2.135506 3.737179 3.266226 2.141783 0.965589 1.593663 2.700852 3.131344 2.893085 3.934073 3.245412 3.522499 2.682806 1.893016 3.280479 3.621727 2.242656 2.068327 1.811544 -0.325923 -0.305791 -0.842879 0.036028 0.100334 -0.295344 -0.064044 -0.800131 -1.584041 0.718937 1.406344 0.741661 2.276891 0.813800 -0.623662 -0.080956 0.646261 1.448433 1.861684 -0.140472 -0.973517 -0.692381 -2.175581 -2.632500 -0.361147 -0.287760 -1.899920 -4.152754 -4.220510 -4.209955 -2.740631 -1.129687 -1.749643 -2.741722 -3.442393 -2.486137 -2.038760 -1.192907 -0.745988 -1.918654 -2.162139 -2.184682 -0.667476 0.153644 -0.200832 -0.986685 -0.722552 0.024299 -1.660393 -0.886628 0.157299 0.315811 -0.240472 -0.620278 -1.180587 -0.818232 0.277573 -0.308914 -0.073824 -0.827765 -1.709327 -1.602963 -0.129886 0.159956 0.144182 0.248843 0.341811 -2.255365 -1.363999 0.656946 1.844245 1.256335 0.299568 -0.870520 -0.476868 0.375816 -1.118768 -1.097714 -0.243475 1.538826 1.753879 -0.326286 -1.967683 -3.314108 -1.713224 0.121132 0.746065 -0.679329 -1.241858 -2.548871 -2.620583 -0.158229 -0.270789 -0.624244 0.193207 0.277065 -1.110632 -1.558213 -0.804015 0.257476 0.890696 -0.117196 -1.024415 -0.222189 0.989296 2.817306 3.765820 2.906536 1.173540 0.876089 2.417958 3.866458 3.903383 2.078123 0.847661 0.938639 1.865489 2.550455 2.087771 1.228262 2.163206 1.140531 -0.342009 0.863139 1.744268 1.600211 1.838363 1.462485 2.207277 2.657074 0.204803 0.185617 1.882939 1.416770 0.588416 0.739627 -0.090255 -1.833641 -0.206657 0.483257 0.180930 -0.442414 -0.165414 0.477228 1.328215 0.641288 1.045908 1.552577 0.563017 0.310660 0.177453 -0.817074 0.546166 1.620351 -0.162073 -1.296719 0.300377 -0.073161 -0.853809 -1.786926 -2.708018 -2.274675 -1.627229 -2.846461 -3.671080 -4.459759 -5.153673 -4.188767 -2.730355 -2.408213 -4.140194 -5.192599 -4.430659 -4.460310 -4.273033 -4.328311 -5.887530 -6.932810 -6.348138 -7.709311 -7.665114 -7.286909 -6.194316 -5.280604 -4.971444 -4.963336 -5.482897 -4.659153 -3.556621 -2.056782 -2.469023 -3.391199 -4.079300 -3.798771 -4.448487 -4.499323 -3.100769 -1.788834 -3.246638 -1.996411 -2.327234 -4.685077 -3.621479 -1.048865 -1.500655 -1.596796 -0.669703 -2.043602 -3.613375 -2.784654 -1.295020 -1.921390 -2.931990 -2.574853 -2.245603 -2.732531 -2.415587 -0.713899 0.803582 0.924423 -0.509534 -1.234397 -0.925296 -0.750657 -1.847749 -1.255484 -0.537010 -1.281885 -1.625105 -0.454080 0.761063 0.497363 0.059217 0.425335 0.073927 -0.327855 1.518727 1.914494 1.522883 1.714516 1.963999 2.701543 3.410001 3.145761 2.478000 2.940419 2.961858 2.861798 1.788158 1.128313 2.974547 2.850804 1.152864 1.533053 2.662895 1.134516 1.361442 2.122597 3.419867 2.987526 1.919988 0.146862 1.619918 3.684599 4.361100 4.338171 1.838663 1.131450 2.203714 2.813227 3.981527 3.435080 2.271666 2.058482 2.847803 2.482949 3.226640 3.996754 3.092144 1.330905 -0.078138 1.008377 2.312046 3.024419 4.254526 3.900002 1.660539 2.019663 3.082824 2.730976 3.317040 3.405926 1.866789 1.976137 2.015794 0.393081 0.997210 1.632995 1.462022 1.916630 2.691541 -0.887304 -1.271930 0.107020 -0.135464 1.158811 2.270105 0.025926 -1.758585 0.013782 0.261176 0.765135 0.780713 0.130493 -0.714275 0.056780 1.876663 1.555509 0.561184 0.577039 0.043361 -0.721013 1.249389 2.012144 1.071858 -0.103526 -1.740111 -1.699563 -0.243195 1.396654 0.796809 -0.262127 -0.250137 0.496016 1.443820 2.039781 2.226610 0.241120 -1.110009 1.755058 3.263483 2.497424 2.388888 1.028463 0.694947 2.405582 2.432634 2.227454 2.514483 2.463827 1.071717 0.021533 -1.147005 -0.510022 1.028317 1.209970 0.095259 -0.917558 -1.671808 -2.375244 -1.164548 0.115684 -0.145517 -2.136006 -3.837286 -2.850512 -1.697910 -1.372408 -0.485346 -2.197957 -3.074508 -2.304589 0.277074 1.135933 -0.925720 -1.614132 -1.498518 -1.565739 -2.382976 -2.776167 -1.707407 -1.642687 -3.593409 -3.949286 -2.443117 -2.178249 -1.272942 -0.138005 -3.020960 -4.844546 -4.504213 -3.330229 -3.375412 -3.236043 -5.023918 -5.923050 -5.415884 -5.090895 -4.492186 -5.245283 -5.705121 -5.265229 -3.088703 -1.596412 -1.529744 -3.027258 -4.176907 -2.495630 -2.398943 -1.256918 -1.801397 -2.507548 -2.402863 -1.778468 -1.911174 -3.758228 -3.645440 -3.258255 -1.169576 -2.267463 -2.645278 -3.515996 -4.127119 -4.909616 -3.063674 -1.639404 -3.336189 -3.812701 -3.777520 -3.631462 -3.071207 -2.114044 -4.171829 -2.997900 -2.490381 -3.238939 -3.554089 -1.947420 -0.365625 -1.283086 -2.739879 -3.645844 -2.415107 -2.231440 -1.972148 -2.328803 -2.878510 -3.290990 -3.755846 -2.699437 -1.221200 0.441998 0.802804 -0.416065 -1.006259 0.148656 1.282546 0.746890 -0.777967 -1.997735 -1.816761 -1.533642 -0.910514 -1.051935 -1.553860 -0.726114 -0.177248 -1.822471 -1.219120 -0.741824 -0.679173 1.233055 2.488858 1.006976 -0.149799 0.243495 0.325456 1.262147 1.681160 2.130773 1.022886 0.719158 1.913346 1.343819 0.766442 1.392602 0.888726 0.465138 1.298460 2.087957 1.667201 0.937312 0.816708 1.181888 2.193162 2.705710 2.378742 1.178784 -0.337488 0.015812 0.952570 1.594375 1.295877 1.100885 0.104863 0.530742 1.720024 2.691021 3.129200 2.372472 0.604942 1.006341 1.630651 3.319591 3.907828 2.169585 1.979792 2.038654 4.207205 4.490563 3.422461 3.544907 3.662813 2.857435 4.136021 5.380048 3.875684 3.704480 5.239229 3.168383 2.690295 4.837476 6.024367 4.616801 2.940481 3.010199 3.667987 4.925039 5.813540 4.525229 2.844819 3.260535 4.308012 5.397569 4.117732 4.465591 3.935679 3.662943 3.744181 3.130770 2.023176 1.920559 4.011142 3.274507 2.457720 1.635103 0.491251 1.567862 3.117913 3.268691 2.186508 0.404652 -0.544305 0.080706 1.159578 1.392589 1.712277 -0.526028 -0.688035 -0.104679 0.679261 0.536753 0.128176 1.631826 2.015700 0.345639 -0.557485 0.245192 1.398017 1.332306 0.645043 -0.330082 -0.619806 -0.463375 -1.437699 0.239414 0.932849 0.133592 0.432800 0.688024 -1.321533 -0.734640 1.235203 2.747218 1.831288 0.654073 0.216085 0.308188 1.040863 1.128861 1.636576 1.025294 0.862501 -0.077207 0.235393 1.395988 1.866609 0.915754 -0.507971 -1.783726 -2.107835 -0.017243 0.429613 0.093827 -1.238407 -1.388771 -0.073507 0.907517 2.503077 2.257427 1.072309 0.327661 1.362106 1.178119 1.185734 1.721268 1.797174 0.919270 -0.031936 0.225737 -0.102973 0.123029 0.700472 1.169341 1.072789 1.995413 2.120986 0.349746 0.201436 0.924420 2.354881 3.805882 2.779907 0.886356 0.152493 1.439432 0.344040 0.260045 0.039280 -0.003329 0.340720 0.499996 1.042796 1.658549 1.678538 1.144219 1.969747 3.232807 2.148703 2.016510 1.195554 1.017924 1.222657 0.307117 -0.156699 -1.775672 -1.044541 1.189557 1.003323 -0.461112 -1.608732 -1.385889 -0.583677 0.604317 0.023908 -0.923018 -1.296244 -0.787745 -1.152273 -1.023431 -0.423471 1.171795 1.165280 0.794741 0.585952 -0.730487 1.700028 3.283579 2.659434 1.436520 1.764297 1.512336 1.382715 2.358867 2.387484 0.961015 -0.677544 -0.516727 1.251373 2.609979 1.419612 0.739415 0.679649 1.666839 2.701847 2.608861 2.364003 1.953645 1.268388 0.285049 0.124309 0.639178 1.256487 1.991884 0.909288 0.327600 0.667528 2.542109 3.207081 2.088343 0.980064 0.962956 1.415015 0.033362 0.262301 0.478844 -0.581449 -1.372264 -0.791470 -0.516152 -1.557222 -1.043266 -1.961409 -1.812638 -2.557126 -2.598529 -2.315502 -1.756323 -1.058324 -2.194477 -3.082374 -3.596479 -3.063455 -2.890615 -2.451644 -2.249907 -3.556021 -3.542252 -5.089697 -4.860714 -4.607444 -3.541190 -3.174829 -4.128858 -3.601467 -4.817766 -4.094915 -3.409901 -3.335673 -4.117069 -2.117027 -1.788027 -3.317693 -3.029562 -3.651379 -3.905518 -4.010211 -2.332652 -2.497928 -1.963991 -1.748385 -2.780016 -2.143759 -1.143155 0.026527 0.290729 0.157419 0.465336 0.328285 0.791404 1.929756 1.795968 0.252892 -0.394915 0.547634 2.305532 1.276730 -0.006037 -0.748891 -0.358893 -0.437761 -1.180247 -1.842357 -1.288704 0.964733 0.400565 -1.121664 0.131791 1.186306 0.359514 1.499771 1.381387 2.228375 2.153425 0.498750 1.264599 1.075888 1.806643 2.386681 3.354779 2.777857 2.510211 2.211893 1.381259 1.966165 2.781496 3.340408 2.468503 1.484747 -0.769550 0.463921 1.775623 2.002482 0.429652 0.084702 0.712018 1.128006 0.845738 0.942214 1.319464 1.643126 2.541343 2.408582 3.236636 3.043519 3.313403 3.684321 2.644516 2.468715 2.724895 3.840314 3.823651 3.462040 4.571912 4.797497 3.402799 3.557575 3.815382 4.396374 4.283997 3.308976 2.656454 1.924754 2.234478 2.909079 3.400782 3.178451 1.597783 1.374086 2.974478 2.797860 3.177863 3.095058 2.752332 2.986011 2.432747 2.993157 3.801618 4.013723 2.576649 0.701230 -0.297264 0.258065 0.264209 -0.656017 -1.364610 -0.934208 -2.313515 -2.889088 -4.209620 -3.369211 -1.068551 -0.711308 -1.546943 -3.331670 -2.476544 -1.587153 0.014492 1.119418 -0.490164 -0.948492 -1.395791 -1.226427 -1.940178 -1.271149 -1.225110 -2.519521 -3.653647 -2.786502 -1.689362 -0.047676 0.046751 -0.008106 -1.241246 -0.936504 0.681396 1.209881 1.082890 0.045915 -0.757767 -0.274001 1.249232 1.823180 1.674480 2.104129 2.246948 1.587225 2.243941 2.308610 2.734639 1.779550 1.089887 -0.063368 0.458925 -0.581460 -1.467469 -0.365162 0.276039 1.027157 -0.703919 -1.977030 -1.500777 0.317337 1.123162 -0.242997 -1.344494 0.167477 1.181154 1.519426 1.927895 1.453512 2.029334 2.675199 3.199600 4.042590 3.420587 2.666942 2.199663 1.539589 2.882617 3.641822 4.925553 3.699631 1.528929 2.314509 2.337385 2.783107 2.593629 2.970594 2.235424 1.409925 1.401763 3.082347 3.231860 3.634617 3.373502 3.765961 3.770801 4.715419 3.334400 2.543762 2.975053 2.091518 3.985920 4.405213 2.736553 1.191176 1.513485 1.763657 2.122935 0.957263 -0.998524 -0.027223 -0.912111 -0.940817 -1.264269 -1.965945 -1.420045 -1.517848 -0.940263 -1.735441 -1.975645 -1.836879 -0.883794 -1.202382 -0.647540 -0.276522 -0.909689 -0.973964 -1.780499 -1.091312 -0.162662 0.082195 -1.637794 -2.684466 -1.882274 -1.016571 -1.932855 -1.485945 -1.443842 -2.532843 -2.256730 -3.505171 -3.994332 -2.140398 -1.073887 -0.865513 -2.882615 -5.005939 -4.619334 -2.426465 -1.063112 -2.537600 -2.690096 -3.709232 -3.779973 -4.564040 -4.192218 -3.671626 -2.882973 -2.240878 -1.863243 -3.557759 -3.279393 -2.757207 -1.269506 -0.376099 -1.358472 -1.048581 -0.431328 0.168821 1.583722 0.772091 0.573712 1.495947 2.765847 4.234219 5.093248 4.521355 3.848134 2.639904 2.833749 2.688327 3.414627 2.670770 1.924848 1.723144 1.018785 2.723009 4.221999 3.349743 2.110627 2.456745 3.938956 3.539451 3.323449 1.730440 2.334661 2.710426 1.980112 1.986565 2.215416 3.052658 3.508762 3.248984 2.052225 0.424787 1.251200 2.129443 2.350026 1.706794 -0.583863 0.079133 1.494479 1.676804 1.813729 0.858598 1.676781 2.104881 2.474198 2.006489 2.136868 1.833569 1.825398 0.420584 -0.061121 -0.618955 0.140019 1.209557 -0.409334 -1.524504 -2.629813 -2.009989 -1.462024 0.500545 -0.559457 -3.779903 -6.148609 -5.170543 -2.466365 -1.673366 -1.778714 -5.317864 -6.700663 -4.804841 -2.697979 -2.249924 -2.002861 -2.484101 -2.779606 -1.758705 -1.635730 -0.431391 0.179838 0.059773 -1.125609 -1.965796 -0.129963 -1.013943 -0.263072 -0.916977 -1.645660 -0.959270 -1.655541 -0.610733 -0.739619 -1.832915 -2.796497 -2.632968 -2.368360 -2.036940 -2.146596 -0.664025 -0.334634 -1.608840 -1.523785 -1.081258 -0.881695 -0.375385 -0.413373 -1.409221 -1.937373 -1.425561 -1.078889 -1.715923 -1.897871 -3.056429 -0.427589 0.862668 0.360292 -0.633176 -1.266622 -2.236801 -0.701408 1.558747 1.303710 0.476265 -1.930773 -3.069711 -2.459661 -1.269846 -1.979092 -2.561947 -3.358747 -3.176675 -2.661373 -3.044935 -1.027885 0.150605 -0.633559 0.338630 0.244947 0.601061 0.911267 1.842348 1.495953 0.412946 0.355743 -0.203327 0.276297 1.159022 1.026457 0.099273 -0.023198 0.745386 -0.645404 -0.494256 0.119898 -0.464073 1.800393 1.451211 0.529240 -0.783572 -0.748749 0.074084 1.281241 -0.182772 -2.747359 -2.311257 -0.421413 -0.653680 -0.976510 -1.433568 -0.856015 -0.750367 -0.941870 -0.590448 -0.628899 -1.274095 -1.230497 -2.068868 -1.286622 0.021580 0.845691 1.002488 -0.555723 -0.708224 -0.164333 1.850527 2.568763 2.181606 1.051385 0.423832 1.017250 2.270347 3.891411 3.261645 2.623596 1.051914 1.543994 1.646532 0.322927 0.059137 0.453288 1.211830 1.493696 0.657247 -0.686632 -0.053184 0.785724 0.372007 -0.461323 1.270449 1.008073 -0.076386 -1.313075 -0.460323 -0.395415 0.356680 -0.896529 -1.209911 0.098766 1.023054 0.578168 0.075993 1.720011 0.836507 0.682256 0.825808 0.568282 0.872221 1.096846 -0.420682 -1.136609 -1.326509 -1.299574 -1.646420 0.964715 -0.837622 -1.048472 -0.188502 -0.523562 -0.236604 -1.425089 -1.542325 -1.791933 -0.561212 -1.137648 -2.546723 -2.588785 -3.157528 -1.588150 -1.638481 -2.186913 -2.199858 -2.391197 -1.284162 -1.537948 -3.668273 -3.674831 -2.024302 -1.593966 -1.657256 -2.193979 -2.781676 -1.949292 -0.910023 -0.132326 0.261055 -0.905028 -0.410909 -0.035987 0.225776 1.563932 0.774601 0.851619 1.849220 0.793283 0.594853 0.062353 0.294903 1.614362 1.074526 -0.086492 -0.524649 -1.094431 1.870943 1.729875 1.195330 0.211118 -0.482468 0.669533 1.028344 2.972054 2.664178 2.242413 1.670136 0.610093 2.615252 4.199082 4.534483 3.676899 2.681775 2.576081 3.858332 2.766387 3.139980 3.150195 2.614263 2.441371 2.080980 1.955823 1.015306 1.890081 1.644987 2.113464 1.240974 -0.199685 -0.864187 -1.698076 -0.453107 0.147611 -0.394122 -0.745099 0.021565 0.661096 -0.096090 -0.111108 1.021722 1.243635 1.383835 -0.165478 -1.930459 -0.500862 -1.044310 -0.891973 -1.328207 -2.796536 -2.918794 -1.123812 -1.004957 -0.166116 -0.736981 -0.884395 -1.365293 -1.461703 -0.198219 -0.659638 -0.837166 -1.066408 -0.880653 -0.871277 -2.184113 -1.580423 0.281524 0.538449 -0.743238 -1.058891 -0.267900 1.307441 1.088595 1.067815 1.412661 1.967987 2.018045 2.198666 2.470796 1.493921 2.025133 1.338695 -0.464695 0.012744 0.096477 -0.077191 1.623675 -0.059957 -0.413508 -0.071210 -0.355622 0.932995 0.981204 1.244011 0.395365 0.185827 -0.548315 -0.170987 -0.730755 -0.130502 0.443263 -0.290271 0.716922 0.643140 1.327082 -0.043217 0.373023 2.020895 2.863165 2.146003 -0.050924 -0.202940 0.504991 0.815265 0.693501 0.589733 -0.755760 -1.904803 -0.934718 -0.454575 0.542387 -0.067533 -0.815325 -0.426618 0.411127 0.573977 -1.230576 -0.808713 0.155985 0.784145 0.126328 -2.619253 -3.063278 -2.388118 1.196741 1.693404 0.849375 -0.330782 -0.424692 1.889819 2.362053 2.641789 1.196524 1.847497 -0.592786 -1.318474 -0.762281 -0.893702 0.227095 -1.249253 -1.261056 -1.398928 -1.498972 -1.477096 -2.265781 -2.506270 -2.311069 -1.078873 -1.962680 -2.856321 -4.438309 -3.619983 0.107043 0.422718 -0.304821 -1.978228 -2.328602 0.167921 3.297648 3.483289 2.082502 0.436784 1.290916 3.850792 3.445877 2.823237 1.423441 2.013434 2.701071 2.933940 1.778232 3.538617 3.083834 3.608677 3.496913 3.126078 4.142346 4.454426 4.443235 2.749761 1.908360 1.760715 3.459112 3.392692 2.892346 1.817007 1.772559 3.308180 3.328014 2.735275 3.314080 2.429608 3.508461 4.209123 4.215390 3.430983 3.490085 3.745827 3.968325 3.788116 2.139756 1.315613 1.810146 2.129461 1.323286 0.563949 -1.346811 -0.419608 0.728031 1.995396 0.470635 -1.601885 -1.072233 -0.647495 -0.515335 -0.521954 -1.147718 -0.683662 0.563971 -0.635560 -1.214572 -0.936661 -2.445025 -1.432282 -0.763051 -1.338030 -2.388183 -2.352826 -0.967236 -1.519063 -1.116975 -2.415531 -2.093037 -0.351564 0.200735 -0.216417 -2.900913 -3.411517 -1.695705 -0.194630 -1.235045 -2.645828 -3.000899 -2.901773 -1.580558 -1.867788 -1.813083 -1.733966 -2.383651 -1.532440 -1.181240 -1.247648 -1.536044 -1.242637 -1.335937 -1.240979 -0.531999 0.005867 -0.760470 -0.903268 0.441232 0.326603 -0.731379 -1.945044 -1.928345 -0.478258 -0.567955 0.300580 -0.549145 -1.375028 -1.195981 0.335375 0.807956 1.364754 2.094211 1.249214 -0.350417 -0.202277 0.495253 2.203967 1.375345 0.474601 0.586939 0.886643 -0.093685 -0.811938 -0.716111 0.114338 0.762686 -0.581408 -0.946283 -0.701424 -0.417856 0.079154 0.804879 0.804616 0.657301 0.151690 1.206121 0.849776 0.268948 -0.164592 0.125202 1.472203 1.501012 0.464614 1.146344 0.716685 2.085310 0.934877 -0.479352 -0.173614 0.567042 1.587288 -0.014867 -0.825311 -1.221879 -1.631671 0.373482 0.776688 2.110890 1.304000 -0.121070 0.653491 0.426762 2.090885 1.176205 1.461674 1.561646 0.057959 0.699031 0.350095 -0.348949 0.141750 -0.423764 -0.405481 -0.453147 -1.535299 -1.119984 -0.373958 -0.368644 -2.251646 -2.159490 -1.808449 -0.090451 -0.251606 -2.251613 -1.661963 -0.936015 -0.772254 -0.454868 -0.144237 -0.424770 -0.379000 -0.306016 0.657486 1.320673 -0.282618 -2.043818 -0.800849 0.498235 2.286346 1.722915 -0.683516 -0.862917 -0.997618 -0.733507 0.804241 1.733932 0.766792 -1.250012 -1.298578 -0.086917 1.361834 1.044306 -1.094626 -0.295891 -0.753026 -0.202604 -0.871691 -1.514893 -0.341113 -0.800943 -0.316430 0.019161 0.529212 0.825815 0.848084 0.910515 1.968526 2.837172 4.916750 4.045865 3.389608 2.555505 2.782813 3.289062 2.414647 4.272282 2.649523 1.582797 0.808499 0.877402 2.035490 2.455360 2.424820 2.315431 2.221161 1.553889 1.942862 1.689714 2.945448 2.454283 3.385168 2.664820 1.738781 2.055164 1.542987 1.182958 2.075720 1.169340 0.692347 -0.761527 -2.047520 -0.815194 -1.150281 -0.587951 -1.483947 -1.597317 -3.340982 -4.080931 -2.883464 -1.366747 -0.805143 -3.140239 -3.521046 -2.532504 -2.504922 -2.670101 -4.405681 -5.358139 -4.128907 -4.865788 -4.335035 -5.576094 -6.105737 -4.647965 -4.782432 -4.474696 -2.620110 -2.139107 -2.916193 -4.463330 -5.177607 -4.032151 -2.598493 -2.075186 -2.509590 -3.036121 -4.266214 -3.459221 -2.792980 -1.630214 -1.314696 -2.669626 -2.860492 -3.418221 -3.402081 -2.859663 -3.232637 -3.608507 -2.825730 -1.351470 -1.207175 -1.761103 -0.334608 1.161228 1.393501 1.037280 1.229783 2.026257 3.157734 2.771881 1.961960 1.152134 -0.017233 1.220579 2.072571 3.155309 1.635862 -0.805905 0.093838 1.156578 1.953471 1.856483 1.691118 2.035351 -0.303884 1.012542 2.227791 2.081644 2.390533 0.817201 1.065221 1.061494 2.078354 2.405871 1.032678 0.048177 -0.693910 0.379005 -0.361312 -0.804741 -0.219541 0.600253 0.936344 -0.709472 -1.334665 -0.061154 2.557126 3.047339 0.392689 -1.835628 -1.674004 0.320573 1.868925 0.927675 -0.814463 -2.564180 -2.738699 -0.414575 0.086065 -0.852456 -2.785582 -3.543918 -1.752026 -1.615798 -0.323888 -1.710351 -1.675013 -1.724742 -2.599645 -2.948118 -3.221293 -2.237857 -1.012637 -2.469715 -3.923573 -4.733440 -3.560571 -1.673818 -1.935565 -2.736841 -4.803303 -4.598541 -4.778224 -3.562599 -3.237001 -3.785017 -3.522368 -4.782362 -4.119879 -2.964460 -3.442640 -4.091609 -4.690453 -3.999551 -2.155222 -2.412357 -2.812552 -3.269893 -3.809991 -2.696124 -2.583172 -1.548606 -1.888586 -3.409791 -2.342111 -2.294460 -1.575620 -1.391939 -2.091652 -1.018410 -1.779260 -0.673913 -0.754141 -1.135788 -0.940109 -1.362019 -0.516799 -0.655890 -0.946183 -0.168991 -0.922327 -0.950902 -1.040713 -0.571900 -0.001722 -1.134717 -0.445126 0.617360 1.506169 0.176788 -0.083225 0.772338 1.605565 0.661620 -0.554464 -0.003336 1.112316 0.522896 -0.068337 -0.486491 0.281593 0.306594 0.030484 0.362575 -0.563557 -0.859001 -0.535141 -0.823231 -1.348753 -0.087668 0.906396 1.789100 0.841892 0.778859 0.887083 1.552703 2.669305 2.090758 2.246584 2.988596 2.201239 2.146244 1.895738 2.671229 3.364305 2.312753 0.852631 0.724575 2.074228 2.769978 2.632749 1.549473 0.485331 0.667798 1.652130 2.636951 1.683318 0.282816 0.789318 1.455671 1.404773 0.437110 1.194308 1.816249 3.026049 3.317350 2.035056 2.051764 2.309515 2.672007 2.636079 1.793737 0.582899 0.416142 0.683515 0.655942 1.378613 -0.168770 -1.387976 -1.663986 -0.839201 0.485122 0.093572 -0.618953 -1.319671 -1.659877 -0.633639 -0.976100 -1.582198 -1.884599 -2.254579 -2.351106 -2.162680 -0.959022 -0.824951 -1.059884 -1.884059 -1.109673 -0.001602 1.663443 0.633061 0.702407 0.539304 -1.043989 -0.757021 0.346382 2.278423 0.761461 -0.995719 -2.520941 -0.476070 1.912333 0.808088 0.446225 -1.265306 -0.409061 -0.293836 0.271454 0.877042 1.245691 0.991992 -1.222185 -1.358718 -1.354081 0.758572 0.744850 0.304273 -1.186483 -1.722443 -1.982576 -0.786854 -0.301374 -1.268278 -1.608872 -1.123024 -0.458049 -0.058313 0.097642 0.924146 1.714533 -0.057652 0.354822 1.144717 1.275592 -0.192728 -1.340290 -0.163892 0.082783 -0.721013 -2.260884 -1.801676 -0.210073 0.103128 -0.750594 -1.701389 -2.576921 0.490307 1.312126 -1.229897 -1.339198 -1.906658 0.176224 1.266876 -0.335354 -1.205668 -0.660159 -0.498701 -0.266120 0.287564 -0.301302 1.368721 1.328177 1.251730 0.699361 1.177577 2.674077 2.903497 2.377598 0.979820 0.276610 0.025740 1.672805 2.244381 1.536104 1.078930 1.406814 2.168365 4.106133 2.889935 2.284399 2.058301 0.558980 1.705364 0.962916 0.748253 1.305704 1.821454 1.289739 0.461045 0.783281 2.423641 3.015815 3.055872 2.454369 1.617950 1.711557 2.170914 3.418000 2.133546 1.100314 0.331187 -0.059225 0.129118 -0.153822 0.663241 -0.060788 0.058475 -0.078813 1.004272 1.059585 2.215633 3.364560 2.693001 1.240778 0.288611 1.674154 0.827223 