0.00000000000000008674 0.00000000000000016327 0.00000000000000005782 
0.00000000000000001802 0.00000000000000000000 0.00000000000000008564 
0.00000000000000004921 0.00000000000000010885 0.00000000000000010916 
-0.00000000000000000043 0.00000000000000000000 0.00000000000000002991 
0.00000000000000018070 0.00000000000000010885 0.00000000000000005377 
-0.00000000000000001467 0.00000000000000021769 0.00000000000000004879 
0.00000000000000019027 0.00000000000000010885 0.00000000000000004042 
0.00000000000000003083 0.00000000000000010885 0.00000000000000004619 
0.00000000000000008780 0.00000000000000021769 0.00000000000000000524 
-0.00000000000000007398 0.00000000000000000000 -0.00000000000000002349 
0.00000000000000006123 0.00000000000000010885 0.00000000000000005328 
-0.00000000000000007100 0.00000000000000005442 -0.00000000000000005788 
0.00000000000000005230 0.00000000000000005442 0.00000000000000009620 
-0.00000000000000006293 0.00000000000000005442 0.00000000000000003040 
-0.00000000000000008121 0.00000000000000010885 0.00000000000000004316 
0.00000000000000005527 0.00000000000000010885 0.00000000000000011841 
0.00000000000000015519 0.00000000000000000000 0.00000000000000002455 
0.00000000000000000255 -0.00000000000000010885 0.00000000000000002748 
0.00000000000000011395 -0.00000000000000005442 -0.00000000000000001414 
-0.00000000000000014286 0.00000000000000000000 0.00000000000000009179 
0.00000000000000004507 0.00000000000000021769 0.00000000000000007536 
0.00000000000000007823 0.00000000000000010885 0.00000000000000007457 
0.00000000000000002721 0.00000000000000000000 0.00000000000000011682 
0.00000000000000009609 0.00000000000000016327 0.00000000000000005655 
0.00000000000000006293 0.00000000000000010885 0.00000000000000008721 
0.00000000000000007058 0.00000000000000010885 0.00000000000000003332 
0.00000000000000010374 0.00000000000000021769 0.00000000000000007813 
-0.00000000000000007228 0.00000000000000000000 0.00000000000000005485 
0.00000000000000003657 0.00000000000000005442 0.00000000000000000191 
0.00000000000000000000 0.00000000000000000000 0.00000000000000003407 
-0.00000000000000001871 0.00000000000000005442 0.00000000000000002354 
-0.00000000000000002721 0.00000000000000000000 -0.00000000000000004060 
-0.00000000000000000170 0.00000000000000005442 0.00000000000000004193 
0.00000000000000019983 0.00000000000000000000 0.00000000000000011942 
0.00000000000000009269 0.00000000000000010885 0.00000000000000010305 
-0.00000000000000004252 -0.00000000000000005442 -0.00000000000000001068 
0.00000000000000019388 0.00000000000000005442 0.00000000000000012474 
-0.00000000000000008674 0.00000000000000000000 -0.00000000000000000638 
-0.00000000000000007313 0.00000000000000016327 0.00000000000000001674 
0.00000000000000006463 0.00000000000000010885 0.00000000000000013951 
0.00000000000000004932 0.00000000000000016327 0.00000000000000006596 
0.00000000000000007143 0.00000000000000000000 -0.00000000000000002046 
-0.00000000000000002041 0.00000000000000016327 0.00000000000000004188 
-0.00000000000000009354 0.00000000000000010885 0.00000000000000005155 
-0.00000000000000008163 0.00000000000000010885 0.00000000000000006739 
0.00000000000000004592 0.00000000000000005442 -0.00000000000000000670 
0.00000000000000007313 0.00000000000000016327 -0.00000000000000000181 
0.00000000000000007653 0.00000000000000005442 0.00000000000000004757 
0.00000000000000014796 0.00000000000000010885 0.00000000000000003194 
0.00000000000000012925 0.00000000000000005442 0.00000000000000008769 
0.00000000000000000000 0.00000000000000021769 0.00000000000000008541 
0.00000000000000002381 0.00000000000000000000 0.00000000000000001063 
0.00000000000000003742 0.00000000000000016327 0.00000000000000005915 
-0.00000000000000009014 0.00000000000000010885 0.00000000000000010582 
0.00000000000000007313 0.00000000000000016327 0.00000000000000010428 
0.00000000000000004762 0.00000000000000000000 0.00000000000000008955 
-0.00000000000000005272 0.00000000000000016327 0.00000000000000013425 
0.00000000000000006463 0.00000000000000010885 0.00000000000000001127 
0.00000000000000001531 0.00000000000000010885 -0.00000000000000000574 
-0.00000000000000001191 0.00000000000000010885 0.00000000000000001499 
0.00000000000000005612 0.00000000000000005442 0.00000000000000004927 
-0.00000000000000002891 0.00000000000000000000 -0.00000000000000002354 
0.00000000000000002721 0.00000000000000016327 0.00000000000000007244 
0.00000000000000004592 0.00000000000000010885 -0.00000000000000003731 
0.00000000000000013266 0.00000000000000010885 0.00000000000000006856 
0.00000000000000006973 0.00000000000000005442 0.00000000000000008546 
-0.00000000000000003231 0.00000000000000027211 0.00000000000000007616 
-0.00000000000000000680 0.00000000000000010885 -0.00000000000000003922 
0.00000000000000013266 0.00000000000000016327 0.00000000000000002376 
0.00000000000000006633 0.00000000000000005442 0.00000000000000010289 
0.00000000000000008844 0.00000000000000010885 0.00000000000000001127 
0.00000000000000003401 0.00000000000000005442 0.00000000000000008334 
0.00000000000000000340 0.00000000000000021769 0.00000000000000002546 
0.00000000000000007143 0.00000000000000010885 0.00000000000000010018 
0.00000000000000006803 -0.00000000000000005442 0.00000000000000007627 
0.00000000000000003742 0.00000000000000016327 0.00000000000000000542 
0.00000000000000003061 0.00000000000000000000 0.00000000000000005357 
0.00000000000000001361 0.00000000000000000000 -0.00000000000000004066 
-0.00000000000000000340 0.00000000000000021769 -0.00000000000000002578 
0.00000000000000003742 0.00000000000000005442 0.00000000000000001020 
0.00000000000000004422 0.00000000000000005442 0.00000000000000003412 
0.00000000000000010544 0.00000000000000000000 -0.00000000000000002867 
0.00000000000000010544 0.00000000000000010885 0.00000000000000003858 
-0.00000000000000002041 0.00000000000000005442 0.00000000000000010659 
-0.00000000000000001020 0.00000000000000005442 0.00000000000000005862 
-0.00000000000000001020 0.00000000000000010885 0.00000000000000005854 
0.00000000000000016667 0.00000000000000016327 0.00000000000000005094 
0.00000000000000003401 0.00000000000000000000 0.00000000000000003423 
0.00000000000000000340 0.00000000000000021769 0.00000000000000008472 
0.00000000000000010885 0.00000000000000000000 0.00000000000000003747 
-0.00000000000000001701 0.00000000000000016327 -0.00000000000000000553 
-0.00000000000000004762 0.00000000000000010885 0.00000000000000002793 
0.00000000000000008163 0.00000000000000000000 -0.00000000000000002761 
0.00000000000000002721 0.00000000000000000000 -0.00000000000000007340 
-0.00000000000000009864 0.00000000000000010885 -0.00000000000000007364 
0.00000000000000017347 0.00000000000000000000 -0.00000000000000004826 
0.00000000000000000340 0.00000000000000010885 0.00000000000000008432 
0.00000000000000007143 0.00000000000000010885 0.00000000000000007467 
0.00000000002093857516 0.00000000000000021769 0.00000000000000007988 
0.00000001685718149708 0.00000000000000005442 -0.00000000000000009181 
0.00000033636147589634 0.00000000000000005442 0.00000000000000002285 
0.00000233439626015126 0.00000000000000010885 -0.00000000000000004023 
0.00000969939670460633 0.00000000000000010885 0.00000000000000001836 
0.00002972290189478048 0.00000000000000010885 0.00000000000000004496 
0.00007443404751300941 0.00000000000000021769 0.00000000000000007620 
0.00016145024454888886 0.00000000000000010885 0.00000000000000003934 
0.00031448526866522845 0.00000000000000016327 0.00000000000000001043 
0.00056350393701968453 0.00000000000000005442 -0.00000000000000009561 
0.00094454443065478360 0.00000000000000005442 0.00000000000000004981 
0.00149924909969320424 0.00000000000000005442 -0.00000000000000008632 
0.00227415540947205081 0.00000000000000010885 -0.00000000000000004401 
0.00331980302042618860 0.00000000000000016327 -0.00000000000000011125 
0.00468971276977919998 0.00000000000000010885 0.00000000000000003249 
0.00643929002533602263 0.00000000000000000000 -0.00000000000000004361 
0.00862469964347800828 0.00000000000000008163 -0.00000000000000011153 
0.01130175343474906953 0.00000000000000010885 -0.00000000000000002976 
0.01452484424677612414 0.00000000000000010885 0.00000000000000000352 
0.01834595396460179245 0.00000000000000021769 -0.00000000000000008343 
0.02281375621386168284 0.00000000000000008163 -0.00000000000000004239 
0.02797282853712055456 0.00000000000000005442 -0.00000000000000000632 
0.03386298342143342910 0.00000000000000019048 -0.00000000000000008000 
0.04051872284819115627 0.00000000000000000000 0.00000000000000000016 
0.04796881703215215981 0.00000000000000019048 -0.00000000000000003080 
0.05623600470075178215 0.00000000000000000000 -0.00000000000000005809 
0.06533680960079038536 0.00000000000000005442 -0.00000000000000004868 
0.07528146585648953781 0.00000000000000005442 -0.00000000000000016983 
0.08607394328135115069 0.00000000000000010885 -0.00000000000000009823 
0.09771206270291743490 0.00000000000000000000 -0.00000000000000007806 
0.11018769073038436890 0.00000000000000013606 -0.00000000000000007589 
0.12348700311773792848 -0.00000000000000002721 0.00000000000000000983 
0.13759080589057168242 0.00000000000000013606 -0.00000000000000003411 
0.15247490365836929849 0.00000000000000008163 -0.00000000000000003815 
0.16811050497606822018 0.00000000000000008163 -0.00000000000000012018 
0.18446465520480465061 0.00000000000000002721 -0.00000000000000008145 
0.20150068801282441933 0.00000000000000013606 0.00000000000000001999 
0.21917868741979606995 0.00000000000000006123 -0.00000000000000009502 
0.23745595309237202408 0.00000000000000019048 -0.00000000000000003315 
0.25628746242156669188 0.00000000000000012245 -0.00000000000000001242 
0.27562632373341594549 0.00000000000000017687 -0.00000000000000005640 
0.29542421578733996101 0.00000000000000009524 -0.00000000000000016824 
0.31563180948893959643 0.00000000000000011565 -0.00000000000000002945 
0.33619916847595077147 0.00000000000000011225 -0.00000000000000013246 
0.35707612592069243318 0.00000000000000015647 -0.00000000000000006550 
0.37821263552474265746 0.00000000000000001701 -0.00000000000000007649 
0.39955909525886990075 0.00000000000000009354 -0.00000000000000002160 
0.42106664292207918177 -0.00000000000000000680 -0.00000000000000023429 
0.44268742305800495851 0.00000000000000003401 -0.00000000000000005640 
0.46437482517580230823 -0.00000000000000002764 -0.00000000000000005575 
0.48608369357803671296 0.00000000000000010885 -0.00000000000000008204 
0.50777050940231771570 0.00000000000000010544 -0.00000000000000012573 
0.52939354573955210714 0.00000000000000016497 -0.00000000000000015905 
0.55091299690297290681 0.00000000000000010885 -0.00000000000000011633 
0.57229108309202869620 0.00000000000000001020 -0.00000000000000013409 
0.59349213182739146699 0.00000000000000011565 -0.00000000000000008983 
0.61448263763135124726 0.00000000000000015306 -0.00000000000000008947 
0.63523130149530715460 0.00000000000000013606 -0.00000000000000010121 
0.65570905171636229003 0.00000000000000014966 -0.00000000000000016439 
0.67588904770154023538 0.00000000000000007483 -0.00000000000000017790 
0.69574666833334286586 0.00000000000000010885 -0.00000000000000023119 
0.71525947925987876097 0.00000000000000004082 -0.00000000000000011641 
0.73440702395281431958 0.00000000000000008163 -0.00000000000000014989 
0.75317007138218161622 0.00000000000000014966 -0.00000000000000007713 
0.77152938650716385016 0.00000000000000020409 -0.00000000000000017455 
0.78946436563551170007 0.00000000000000009524 -0.00000000000000017332 
0.80695178494350139342 0.00000000000000019728 -0.00000000000000008951 
0.82396480798802262946 0.00000000000000007483 -0.00000000000000010655 
0.84047232405089522533 0.00000000000000013606 -0.00000000000000015341 
0.85643863734540937038 0.00000000000000000000 -0.00000000000000001919 
0.87182349228359246052 0.00000000000000025851 -0.00000000000000005976 
0.88658239799625138122 0.00000000000000005442 -0.00000000000000002408 
0.90066720282144629994 0.00000000000000019728 -0.00000000000000007283 
0.91402686393594878567 0.00000000000000014286 -0.00000000000000015495 
0.92660835667218022227 0.00000000000000010885 -0.00000000000000012148 
0.93835767077354315102 0.00000000000000014286 -0.00000000000000018323 
0.94922084569710662993 0.00000000000000014966 -0.00000000000000020916 
0.95914500319409790041 0.00000000000000016327 -0.00000000000000015479 
0.96807935876724449109 0.00000000000000009524 -0.00000000000000016125 
0.97597640247085470921 0.00000000000000004082 -0.00000000000000006491 
0.98279356039082144125 0.00000000000000012245 -0.00000000000000015700 
0.98849515402972931710 0.00000000000000005442 -0.00000000000000011047 
0.99305431371017516273 0.00000000000000012245 -0.00000000000000009842 
0.99645461655034617277 0.00000000000000012245 -0.00000000000000017148 
0.99869131990270099131 0.00000000000000009524 -0.00000000000000004665 
0.99977213356273153533 0.00000000000000005442 -0.00000000000000005714 
0.99971752476610353799 0.00000000000000010885 -0.00000000000000019821 
0.99856058402446334910 0.00000000000000009524 -0.00000000000000006521 
0.99634650122938073213 0.00000000000000014966 -0.00000000000000013466 
0.99313171338694550272 0.00000000000000002721 -0.00000000000000012876 
0.98898279036829972455 0.00000000000000014966 -0.00000000000000011041 
0.98397512516337293231 0.00000000000000005442 -0.00000000000000009935 
0.97819149185229981036 0.00000000000000012245 -0.00000000000000013173 
0.97172052904947103791 0.00000000000000012245 -0.00000000000000019372 
0.96465519982934400112 0.00000000000000008163 -0.00000000000000011576 
0.95709127178187114460 0.00000000000000014966 -0.00000000000000009818 
0.94912585335757082561 0.00000000000000013606 -0.00000000000000018419 
0.94085601539353636014 0.00000000000000010885 -0.00000000000000010192 
0.93237751989625561322 0.00000000000000005442 -0.00000000000000007115 
0.92378367194328747658 0.00000000000000004082 -0.00000000000000008122 
0.91516430503658552364 0.00000000000000013606 -0.00000000000000018441 
0.90660490542993188434 0.00000000000000008844 -0.00000000000000012095 
0.89818587686023865224 0.00000000000000021769 -0.00000000000000014719 
0.88998194371099137445 0.00000000000000009524 -0.00000000000000006535 
0.88206168788236283262 0.00000000000000004762 -0.00000000000000010263 
0.87448721248231953140 0.00000000000000008844 -0.00000000000000010976 
0.86731392382621230741 0.00000000000000001361 -0.00000000000000006729 
0.86059042207640068511 0.00000000000000003401 -0.00000000000000027278 
0.85435849010623976518 0.00000000000000012245 -0.00000000000000019502 
0.84865316977427895928 0.00000000000000001361 -0.00000000000000006151 
0.84350291468835503217 0.00000000000000008844 -0.00000000000000016618 
0.83892980867323851957 -0.00000000000000001361 -0.00000000000000017306 
0.83494983948232215365 0.00000000000000008844 -0.00000000000000009662 
0.83157321777117876316 -0.00000000000000000680 -0.00000000000000004584 
0.82880473194136516923 0.00000000000000005442 -0.00000000000000008634 
0.82664413013411641717 0.00000000000000006123 -0.00000000000000013469 
0.82508652137774041169 0.00000000000000013606 -0.00000000000000002633 
0.82412278864599064487 -0.00000000000000004762 -0.00000000000000005033 
0.82374000734784935673 0.00000000000000005442 -0.00000000000000009192 
0.82392186352594198873 0.00000000000000009524 -0.00000000000000010433 
0.82464906677828775372 0.00000000000000020409 -0.00000000000000009767 
0.82589975362629286515 -0.00000000000000005442 -0.00000000000000006929 
0.82764987772305953495 -0.00000000000000003401 -0.00000000000000018199 
0.82987358392485210956 0.00000000000000004082 -0.00000000000000021680 
0.83254356383112082529 0.00000000000000017007 -0.00000000000000014324 
0.83563139093274674263 0.00000000000000005442 -0.00000000000000010187 
0.83910783399318411568 0.00000000000000004082 -0.00000000000000016181 
0.84294314772310841022 0.00000000000000004762 0.00000000000000003620 
0.84710734019696865005 0.00000000000000010885 -0.00000000000000010725 
0.85157041680114853310 0.00000000000000006803 -0.00000000000000016693 
0.85630260080035047743 0.00000000000000005442 -0.00000000000000009674 
0.86127453086385330483 0.00000000000000003401 -0.00000000000000016682 
0.86645743610918435351 0.00000000000000005442 -0.00000000000000014045 
0.87182328940039588439 -0.00000000000000002041 -0.00000000000000009583 
0.87734493978451866258 0.00000000000000013606 -0.00000000000000004323 
0.88299622506590869087 0.00000000000000006803 -0.00000000000000008412 
0.88875206560698627456 0.00000000000000006123 -0.00000000000000017176 
0.89458854050761182908 0.00000000000000005782 -0.00000000000000013165 
0.90048294014937479979 -0.00000000000000005442 -0.00000000000000008940 
0.90641363963151067029 -0.00000000000000000340 -0.00000000000000015075 
0.91235942568719696766 0.00000000000000003061 -0.00000000000000004387 
0.91829834307110402847 0.00000000000000000340 -0.00000000000000019131 
0.92420640231050055213 -0.00000000000000004762 -0.00000000000000015131 
0.93005639699527531405 -0.00000000000000002041 -0.00000000000000011114 
0.93581697636171412569 -0.00000000000000004762 -0.00000000000000006538 
0.94145204496932777261 -0.00000000000000006803 -0.00000000000000017504 
0.94692050949215456068 -0.00000000000000002381 -0.00000000000000004982 
0.95217635784314913483 0.00000000000000001020 -0.00000000000000009113 
0.95716903386910290319 -0.00000000000000002041 -0.00000000000000014016 
0.96184405839927678006 -0.00000000000000001361 -0.00000000000000006509 
0.96614384190892010906 -0.00000000000000002381 -0.00000000000000012501 
0.97000863344309906644 -0.00000000000000006803 -0.00000000000000006649 
0.97337755317035867808 -0.00000000000000003061 -0.00000000000000006466 
0.97618966080306179833 -0.00000000000000007483 -0.00000000000000008191 
0.97838501825175971938 0.00000000000000001020 -0.00000000000000005084 
0.97990572825654553846 -0.00000000000000000340 -0.00000000000000012124 
0.98069713961028104343 0.00000000000000005102 -0.00000000000000000107 
0.98070953046332554059 0.00000000000000002041 -0.00000000000000015442 
0.97990008708927600622 -0.00000000000000004762 -0.00000000000000006910 
0.97823483437968705712 -0.00000000000000004762 0.00000000000000002542 
0.97569028877598096283 -0.00000000000000003061 -0.00000000000000005602 
0.97225470468179664429 -0.00000000000000006123 -0.00000000000000014889 
0.96792885781243398480 -0.00000000000000006463 -0.00000000000000005008 
0.96272635964587172097 -0.00000000000000002211 -0.00000000000000011756 
0.95667353116757380960 0.00000000000000001361 -0.00000000000000005986 
0.94980888547570019309 -0.00000000000000012415 -0.00000000000000010769 
0.94218228074106058489 0.00000000000000005442 -0.00000000000000005523 
0.93385381003324563487 0.00000000000000003742 -0.00000000000000006028 
0.92489249462033040761 -0.00000000000000004932 -0.00000000000000001246 
0.91537484407054847679 0.00000000000000003401 0.00000000000000001595 
0.90538334101839423873 -0.00000000000000011905 0.00000000000000004269 
0.89500490170531332712 -0.00000000000000006633 -0.00000000000000012184 
0.88432935603734941221 0.00000000000000002721 -0.00000000000000008596 
0.87344798340775953172 -0.00000000000000006633 -0.00000000000000015617 
0.86245213325744485289 -0.00000000000000006463 -0.00000000000000002322 
0.85143195252427106290 -0.00000000000000009014 -0.00000000000000014579 
0.84047523591229800211 0.00000000000000001191 -0.00000000000000012475 
0.82966640937665991906 -0.00000000000000006803 -0.00000000000000006797 
0.81908565240362740667 -0.00000000000000004082 -0.00000000000000006762 
0.80880816056706117401 0.00000000000000000000 -0.00000000000000000020 
0.79890354643555383518 -0.00000000000000002381 -0.00000000000000009772 
0.78943537414566511412 -0.00000000000000009439 -0.00000000000000006085 
0.78046082079152523381 -0.00000000000000009014 -0.00000000000000012917 
0.77203045614963228260 -0.00000000000000004422 -0.00000000000000000942 
0.76418813109733574329 0.00000000000000002891 -0.00000000000000002166 
0.75697096433219601685 -0.00000000000000012500 -0.00000000000000001599 
0.75040941659711135614 -0.00000000000000009524 -0.00000000000000006507 
0.74452744150637728549 -0.00000000000000007653 -0.00000000000000014360 
0.73934270219855691142 0.00000000000000005953 -0.00000000000000008716 
0.73486684336585217370 -0.00000000000000012840 -0.00000000000000010684 
0.73110580868425412149 -0.00000000000000005612 -0.00000000000000005605 
0.72806019425681212098 -0.00000000000000011225 -0.00000000000000006985 
0.72572562935135853657 0.00000000000000002296 -0.00000000000000013137 
0.72409317643619652838 0.00000000000000001956 -0.00000000000000013210 
0.72314974326891601208 -0.00000000000000007143 -0.00000000000000009108 
0.72287850055510216585 -0.00000000000000006888 -0.00000000000000003443 
0.72325929944909639335 0.00000000000000000510 -0.00000000000000010993 
0.72426908390531430371 -0.00000000000000005612 0.00000000000000002762 
0.72588229359578648747 -0.00000000000000003912 -0.00000000000000003900 
0.72807125377999337701 -0.00000000000000005102 -0.00000000000000002489 
0.73080654914111453646 -0.00000000000000004124 -0.00000000000000007430 
0.73405737918490843175 -0.00000000000000011097 -0.00000000000000006487 
0.73779189333130212880 -0.00000000000000007356 -0.00000000000000004401 
0.74197750431354092537 -0.00000000000000002083 -0.00000000000000012296 
0.74658117893555842048 -0.00000000000000000765 -0.00000000000000006758 
0.75156970562598013341 0.00000000000000002466 -0.00000000000000010615 
0.75690993856855215416 -0.00000000000000002381 0.00000000000000002760 
0.76256901848585334491 -0.00000000000000001616 -0.00000000000000002276 
0.76851457040841231194 0.00000000000000001148 -0.00000000000000006579 
0.77471487897753188445 -0.00000000000000005527 -0.00000000000000021611 
0.78113904201013051321 -0.00000000000000002041 -0.00000000000000015879 
0.78775710320070047032 -0.00000000000000003827 -0.00000000000000004812 
0.79454016495204571324 -0.00000000000000003486 0.00000000000000000203 
0.80146048241576062221 0.00000000000000000255 0.00000000000000002342 
0.80849153988762578749 -0.00000000000000010332 -0.00000000000000011134 
0.81560810353767265735 0.00000000000000000957 -0.00000000000000000836 
0.82278609499565324992 0.00000000000000010906 -0.00000000000000008485 
0.83000191837521919425 -0.00000000000000009226 -0.00000000000000003991 
0.83723130672280965392 0.00000000000000004401 0.00000000000000001164 
0.84444802977923028031 0.00000000000000010693 -0.00000000000000002190 
0.85162271122549815239 -0.00000000000000005442 -0.00000000000000013627 
0.85872190116456936781 -0.00000000000000000914 -0.00000000000000005293 
0.86570747563554439896 -0.00000000000000013478 0.00000000000000001467 
0.87253638317959336668 -0.00000000000000006441 0.00000000000000002105 
0.87916072367453290681 0.00000000000000005102 -0.00000000000000003380 
0.88552812267430547344 0.00000000000000004549 -0.00000000000000013436 
0.89158235203580116224 -0.00000000000000001871 0.00000000000000001913 
0.89726414209390459309 -0.00000000000000007143 -0.00000000000000006208 
0.90251213003030050785 0.00000000000000007441 -0.00000000000000014669 
0.90726389180608191243 0.00000000000000000723 -0.00000000000000008334 
0.91145700989586286855 -0.00000000000000004411 -0.00000000000000000765 
0.91503013517168774182 -0.00000000000000000755 0.00000000000000006378 
0.91792401517988375659 -0.00000000000000001626 -0.00000000000000003486 
0.92008261731912921455 -0.00000000000000003486 0.00000000000000000680 
0.92145469391503420642 -0.00000000000000007536 -0.00000000000000002891 
0.92199570885578319146 -0.00000000000000007398 -0.00000000000000011905 
0.92166977501016567054 0.00000000000000002498 -0.00000000000000003401 
0.92045135014015577735 0.00000000000000003125 -0.00000000000000005272 
0.91832654550668701976 0.00000000000000001605 -0.00000000000000005612 
0.91529397869144946132 -0.00000000000000000202 -0.00000000000000006293 
0.91136515664097872413 -0.00000000000000005038 0.00000000000000000340 
0.90656441183440950038 0.00000000000000003104 -0.00000000000000009524 
0.90092843799564725771 -0.00000000000000000383 -0.00000000000000006463 
0.89450548527283868516 0.00000000000000001010 -0.00000000000000002721 
0.88735428095242918634 0.00000000000000003566 -0.00000000000000008504 
0.87954274265132292854 -0.00000000000000005751 -0.00000000000000001701 
0.87114654816541869931 -0.00000000000000002381 -0.00000000000000010885 
0.86224762099881469002 -0.00000000000000003263 -0.00000000000000002381 
0.85293258400726412738 0.00000000000000008248 -0.00000000000000011225 
0.84329122627364239140 -0.00000000000000005464 -0.00000000000000012585 
0.83341502081318985518 0.00000000000000010975 0.00000000000000003401 
0.82339572335267041669 -0.00000000000000005028 -0.00000000000000009524 
0.81332407549368435085 -0.00000000000000006282 -0.00000000000000006123 
0.80328862921897203897 0.00000000000000000553 -0.00000000000000002041 
0.79337470402547538573 -0.00000000000000010332 -0.00000000000000006123 
0.78366348301134125531 -0.00000000000000004018 0.00000000000000000000 
0.77423125001027170988 0.00000000000000004438 -0.00000000000000012925 
0.76514876633296091679 -0.00000000000000003606 -0.00000000000000023130 
0.75648078280070163437 0.00000000000000004249 -0.00000000000000004762 
0.74828568048768806520 -0.00000000000000004714 -0.00000000000000009524 
0.74061523186644273586 -0.00000000000000008264 -0.00000000000000011565 
0.73351447281257953215 -0.00000000000000009739 -0.00000000000000004762 
0.72702167510814652562 0.00000000000000003008 -0.00000000000000011565 
0.72116840862634201681 -0.00000000000000005328 0.00000000000000002721 
0.71597968222705055119 -0.00000000000000002091 -0.00000000000000005442 
0.71147415248926948461 -0.00000000000000009237 -0.00000000000000006123 
0.70766438970466805092 -0.00000000000000004076 -0.00000000000000008844 
0.70455719101285163575 -0.00000000000000007159 -0.00000000000000023810 
0.70215393113505319977 -0.00000000000000001430 -0.00000000000000010885 
0.70045094182549549888 -0.00000000000000003440 -0.00000000000000009524 
0.69943991187977505586 0.00000000000000005189 0.00000000000000001361 
0.69910830029297643673 -0.00000000000000001911 -0.00000000000000009524 
0.69943975592638774064 -0.00000000000000002893 -0.00000000000000010885 
0.70041453780399176576 -0.00000000000000009351 -0.00000000000000027211 
0.70200993090483843062 0.00000000000000000303 -0.00000000000000012245 
0.70420065303441015114 -0.00000000000000003152 -0.00000000000000023130 
0.70695924903910956072 -0.00000000000000002144 -0.00000000000000004082 
0.71025646926716268226 0.00000000000000008573 -0.00000000000000008163 
0.71406162977254405977 -0.00000000000000007073 -0.00000000000000017687 
0.71834295230355893480 -0.00000000000000006271 -0.00000000000000014966 
0.72306788261339238755 -0.00000000000000001913 -0.00000000000000006803 
0.72820338607617451920 -0.00000000000000014010 -0.00000000000000019048 
0.73371621998982161639 0.00000000000000000186 -0.00000000000000006803 
0.73957318229757507133 -0.00000000000000002394 -0.00000000000000008163 
0.74574133676587672781 -0.00000000000000008605 -0.00000000000000021769 
0.75218821491939891200 -0.00000000000000012672 -0.00000000000000008163 
0.75888199525745814178 -0.00000000000000002407 -0.00000000000000005442 
0.76579166046252555855 -0.00000000000000015233 -0.00000000000000002721 
0.77288713346414539274 -0.00000000000000007853 -0.00000000000000020409 
0.78013939334325010933 -0.00000000000000001861 -0.00000000000000024490 
0.78752057215561843684 0.00000000000000004507 -0.00000000000000009524 
0.79500403382195350410 -0.00000000000000018629 -0.00000000000000012245 
0.80256443361650531276 -0.00000000000000005115 -0.00000000000000009524 
0.81017765623561122101 -0.00000000000000011123 -0.00000000000000012245 
0.81782026602513502311 -0.00000000000000003890 -0.00000000000000021769 
0.82546842073307091781 -0.00000000000000005580 -0.00000000000000013606 
0.83309658224879157284 -0.00000000000000011748 -0.00000000000000013606 
0.84067629641367103144 -0.00000000000000014107 -0.00000000000000008163 
0.84817520565881987515 -0.00000000000000007340 -0.00000000000000013606 
0.85555637910212478658 -0.00000000000000010563 -0.00000000000000017687 
0.86277798897669810696 0.00000000000000004578 -0.00000000000000004082 
0.86979332442769874412 -0.00000000000000010888 -0.00000000000000006803 
0.87655110945741943063 -0.00000000000000002988 -0.00000000000000001361 
0.88299607766663656960 -0.00000000000000013338 -0.00000000000000005442 
0.88906974971020624743 -0.00000000000000007714 -0.00000000000000004082 
0.89471135792637923601 -0.00000000000000013845 -0.00000000000000014966 
0.89985886476173326809 -0.00000000000000007186 -0.00000000000000001361 
0.90445002613278624448 -0.00000000000000012899 -0.00000000000000013606 
0.90842345678642089091 -0.00000000000000004943 0.00000000000000000000 
0.91171966133556803236 -0.00000000000000005689 0.00000000000000001361 
0.91428200144000892902 -0.00000000000000007192 -0.00000000000000010885 
0.91605757621289196635 -0.00000000000000010590 -0.00000000000000002721 
0.91699799911801127550 0.00000000000000005222 -0.00000000000000002721 
0.91706006022811026313 -0.00000000000000016319 -0.00000000000000010885 
0.91620626765592461105 -0.00000000000000007723 -0.00000000000000001361 
0.91440526621359552450 -0.00000000000000002552 -0.00000000000000006803 
0.91163213490551775475 0.00000000000000001471 -0.00000000000000012245 
0.90786856774332858055 -0.00000000000000019297 -0.00000000000000005442 
0.90310294463561324729 -0.00000000000000012841 0.00000000000000001361 
0.89733030080543618734 -0.00000000000000011947 0.00000000000000008163 
0.89055220438819304718 -0.00000000000000005262 0.00000000000000004082 
0.88277655262445520190 0.00000000000000002088 -0.00000000000000008163 
0.87401729745063239108 0.00000000000000002155 -0.00000000000000004082 
0.86429411136479861177 -0.00000000000000009338 0.00000000000000000000 
0.85363200426236429674 -0.00000000000000002656 -0.00000000000000001361 
0.84206090154801738201 -0.00000000000000019924 0.00000000000000002721 
0.82961519328292088193 0.00000000000000002316 -0.00000000000000013606 
0.81633326346060219869 -0.00000000000000005946 0.00000000000000006803 
0.80225700775703567835 0.00000000000000000565 0.00000000000000002721 
0.78743134730080965866 -0.00000000000000008663 0.00000000000000008163 
0.77190374518386717373 -0.00000000000000005283 0.00000000000000012245 
0.75572373160362216193 -0.00000000000000009260 -0.00000000000000006803 
0.73894244271074804864 -0.00000000000000000096 0.00000000000000008163 
0.72161217744755401515 -0.00000000000000005318 0.00000000000000000000 
0.70378597591030123137 0.00000000000000000007 0.00000000000000008163 
0.68551722206305953922 -0.00000000000000006550 0.00000000000000008163 
0.66685927297632996424 0.00000000000000003751 0.00000000000000009524 
0.64786511616420883186 -0.00000000000000005753 -0.00000000000000013606 
0.62858705605120002158 0.00000000000000001795 -0.00000000000000008163 
0.60907643011429679625 -0.00000000000000000924 -0.00000000000000008163 
0.58938335481697845530 -0.00000000000000009159 -0.00000000000000002721 
0.56955650107764876910 -0.00000000000000003427 0.00000000000000005442 
0.54964289869347249251 -0.00000000000000006794 -0.00000000000000004082 
0.52968776886867219300 -0.00000000000000012850 0.00000000000000004082 
0.50973438377091773166 0.00000000000000000651 0.00000000000000004082 
0.48982395185700133844 -0.00000000000000013643 0.00000000000000000000 
0.46999552756590418090 0.00000000000000000114 0.00000000000000001361 
0.45028594387002440769 -0.00000000000000008857 0.00000000000000000000 
0.43072976610004981568 0.00000000000000007827 -0.00000000000000009524 
0.41135926541225614761 -0.00000000000000010537 0.00000000000000004082 
0.39220526491502000210 -0.00000000000000002674 0.00000000000000002721 
0.37329508961764135133 -0.00000000000000004645 0.00000000000000010885 
0.35465355863031566841 -0.00000000000000006945 0.00000000000000009524 
0.33630384029597559792 0.00000000000000000504 -0.00000000000000013606 
0.31826691308244192680 -0.00000000000000000856 0.00000000000000000000 
0.30056162281514342549 0.00000000000000001905 -0.00000000000000008163 
0.28320474855107768963 -0.00000000000000004009 -0.00000000000000004082 
0.26621107574593955158 -0.00000000000000006984 -0.00000000000000008844 
0.24959347544595392177 0.00000000000000000712 0.00000000000000000680 
0.23336298831893176331 -0.00000000000000000987 0.00000000000000004082 
0.21752891242401964367 -0.00000000000000002638 -0.00000000000000002041 
0.20209889370533928865 -0.00000000000000007124 0.00000000000000001361 
0.18707901828017334256 -0.00000000000000005557 -0.00000000000000004762 
0.17247390567666126548 -0.00000000000000002217 -0.00000000000000012245 
0.15828680225837610251 0.00000000000000000401 0.00000000000000006123 
0.14451967415305069786 -0.00000000000000010765 -0.00000000000000011565 
0.13117329907961361446 0.00000000000000001984 0.00000000000000011565 
0.11824735654116219630 -0.00000000000000010579 0.00000000000000002041 
0.10574051592128522192 0.00000000000000002128 0.00000000017197718258 
0.09365052208697886849 -0.00000000000000008204 0.00000003528619448349 
0.08197427816317705285 -0.00000000000000004141 0.00000052530823689697 
0.07070792520152825722 0.00000000000000004876 0.00000320446941119660 
0.05984691851947308155 -0.00000000000000000807 0.00001238105213297014 
0.04938610053494470187 -0.00000000000000012271 0.00003621110598048806 
0.03931976996715884354 -0.00000000000000008599 0.00008778384250956467 
0.02964174731509499477 -0.00000000000000003784 0.00018590669540877232 
0.02034543656250632077 0.00000000000000007520 0.00035554236944759625 
0.01142388309176535846 -0.00000000000000010465 0.00062789457669353585 
0.00286982781873715807 -0.00000000000000001018 0.00104016833067958805 
-0.00532424241269131935 -0.00000000000000007829 0.00163504842869059870 
-0.01316604811459088503 -0.00000000000000001122 0.00245994909735175937 
-0.02066347403550915923 -0.00000000000000012011 0.00356609106082248243 
-0.02782452953828678729 -0.00000000000000002867 0.00500746134509892117 
-0.03465731236133830218 -0.00000000000000020705 0.00683970736545022433 
-0.04116997563744802940 0.00000000000000001633 0.00911901132767128746 
-0.04737069803432839704 0.00000000000000002071 0.01190098450836827616 
-0.05326765687346898814 -0.00000000000000000302 0.01523961415164228408 
-0.05886900407803852264 0.00000000000000000331 0.01918628894782677813 
-0.06418284479657086761 -0.00000000000000001752 0.02378892263174344282 
-0.06921721854673552887 -0.00000000000000007324 0.02909118933975391591 
-0.07398008272247356965 0.00000000000000006943 0.03513187910633596561 
-0.07847929830804732665 -0.00000000000000000518 0.04194437731425362803 
-0.08272261764393434857 -0.00000000000000002813 0.04955626804790146805 
-0.08671767409187824960 -0.00000000000000000911 0.05798905811743711169 
-0.09047197344964955090 0.00000000000000002962 0.06725801598191616382 
-0.09399288697005216131 0.00000000000000001093 0.07737211784978072215 
-0.09728764584332799670 0.00000000000000006190 0.08833409181426533918 
-0.10036333700725141860 0.00000000000000000499 0.10014054992588458659 
-0.10322690015477739567 0.00000000000000007151 0.11278219755029897375 
-0.10588512581503085885 -0.00000000000000000497 0.12624410914571604359 
-0.10834465438958734707 0.00000000000000008641 0.14050605966133097868 
-0.11061197603237871157 0.00000000000000000225 0.15554290105341458950 
-0.11269343126803639532 0.00000000000000004743 0.17132497388989081921 
-0.11459521225003795053 -0.00000000000000002235 0.18781854462427130525 
-0.11632336456658355639 -0.00000000000000003924 0.20498625982768287068 
-0.11788378950864809858 0.00000000000000003436 0.22278760944059872173 
-0.11928224672108686533 0.00000000000000004814 0.24117939191590953563 
-0.12052435716399781396 -0.00000000000000004543 0.26011617494879712975 
-0.12161560631769775809 0.00000000000000002007 0.27955074630735649022 
-0.12256134757066577956 -0.00000000000000003510 0.29943455007565039638 
-0.12336737876651719670 0.00000000000000001594 0.31971810438581321767 
-0.12403903017992122526 0.00000000000000003566 0.34035139743882375507 
-0.12458040016048613219 0.00000000000000009523 0.36128425928806240375 
-0.12499635358279961861 -0.00000000000000007298 0.38246670748131078588 
-0.12529164097071379680 0.00000000000000011979 0.40384926522292963202 
-0.12547090202703942152 -0.00000000000000007007 0.42538325122744002904 
-0.12553866906962135586 0.00000000000000004852 0.44702104088891614353 
-0.12549937035249353334 0.00000000000000003795 0.46871629878862258733 
-0.12535733325452866338 0.00000000000000003890 0.49042418290824280058 
-0.12511678732144421167 -0.00000000000000007271 0.51210152121042307183 
-0.12478186715020896103 0.00000000000000001233 0.53370696149523633167 
-0.12435661510780599004 -0.00000000000000003912 0.55520109564390707213 
-0.12384498387897099891 0.00000000000000006293 0.57654655952321842705 
-0.12325083883993714906 0.00000000000000000510 0.59770810994907785929 
-0.12257796025738396106 -0.00000000000000001361 0.61865268019933883359 
-0.12183004531373504975 0.00000000000000004592 0.63934941562769931345 
-0.12101070996166157778 -0.00000000000000003061 0.65976969096579418661 
-0.12012263594254354859 0.00000000000000002211 0.67988711091272291398 
-0.11916963015892978461 0.00000000000000010885 0.69967749558239566987 
-0.11815565634551151997 0.00000000000000001020 0.71911883566436407555 
-0.11708401676723732832 -0.00000000000000001361 0.73819100002402804339 
-0.11595793957463115809 -0.00000000000000008163 0.75687486408373116920 
-0.11478057975444090621 -0.00000000000000000680 0.77515102745371100568 
-0.11355501996178039847 0.00000000000000004082 0.79299845580216199448 
-0.11228427124369573520 -0.00000000000000002721 0.81039327224230650604 
-0.11097127366430224737 0.00000000000000001361 0.82730782720464601798 
-0.10961889684175947501 0.00000000000000000680 0.84371010668128698651 
-0.10822994040734962296 0.00000000000000001361 0.85956349069444593081 
-0.10680713439684777488 0.00000000000000006803 0.87482684187707282497 
-0.10535313958420912395 -0.00000000000000001361 0.88945488419214835396 
-0.10387054776735864248 -0.00000000000000002721 0.90339882091555645527 
-0.10236188201557691602 0.00000000000000000000 0.91660713659406778397 
-0.10082959688761219952 0.00000000000000000000 0.92902652783873640452 
-0.09927607862925874604 0.00000000000000005442 0.94060291103884285935 
-0.09770364535869252576 0.00000000000000002721 0.95128246025026397259 
-0.09611454724738986710 -0.00000000000000005442 0.96101263477570431082 
-0.09451096670395256472 -0.00000000000000002721 0.96974316989463449357 
-0.09289501856764813270 -0.00000000000000005442 0.97742716043568200757 
-0.09126875031794001725 0.00000000000000002721 0.98402258529001651599 
-0.08963414230574696939 0.00000000000000008163 0.98949419352013912032 
-0.08799310801162270324 0.00000000000000002721 0.99381540214407715350 
-0.08634749433550707731 0.00000000000000000000 0.99696995402741328540 
-0.08469908192215939990 0.00000000000000005442 0.99895319066415533271 
-0.08304958552585656184 -0.00000000000000005442 0.99977287181962004592 
-0.08140065441741811680 0.00000000000000000000 0.99944952836938771856 
-0.07975387283611380662 -0.00000000000000005442 0.99801637145268118356 
-0.07811076048852429177 0.00000000000000010885 0.99551880447994134382 
-0.07647277309595272576 0.00000000000000005442 0.99201359795185684032 
-0.07484130299153614330 0.00000000000000000000 0.98756779311995546156 
-0.07321767976777900089 0.00000000000000000000 0.98225740133608274718 
-0.07160317097482257753 0.00000000000000000000 0.97616596312554593240 
-0.06999898286939065795 -0.00000000000000005442 0.96938302582809465768 
-0.06840626121398762916 0.00000000000000000000 0.96200259203316984546 
-0.06682609212559946499 -0.00000000000000005442 0.95412158370147137632 
-0.06525950297284141555 0.00000000000000000000 0.94583835933367665927 
-0.06370746332021558211 -0.00000000000000005442 0.93725131418857476895 
-0.06217088591788748342 -0.00000000000000005442 0.92845758661931243605 
-0.06065062773516222139 0.00000000000000005442 0.91955188724968872638 
-0.05914749103563274324 0.00000000000000005442 0.91062546204551575446 
-0.05766222449179789211 0.00000000000000000000 0.90176519539033561657 
-0.05619552433678353526 0.00000000000000010885 0.89305285505393239287 
-0.05474803555067384031 -0.00000000000000010885 0.88456447742277877211 
-0.05332035307883837422 0.00000000000000000000 0.87636988850225405745 
-0.05191302307956017353 0.00000000000000005442 0.86853235394776573397 
-0.05052654419818822240 0.00000000000000005442 0.86110834967584815036 
-0.04916136886499320596 0.00000000000000005442 0.85414744338398596035 
-0.04781790461386865865 0.00000000000000000000 0.84769227650647205330 
-0.04649651541900313295 -0.00000000000000005442 0.84177863569209565586 
-0.04519752304664792497 0.00000000000000000000 0.83643560275036654694 
-0.04392120841911881235 0.00000000000000000000 0.83168577212301142421 
-0.04266781298820111062 0.00000000000000000000 0.82754552524815516712 
-0.04143754011515998759 0.00000000000000005442 0.82402535165251256100 
-0.04023055645462116081 0.00000000000000000000 0.82113020719364737676 
-0.03904699333963840974 0.00000000000000000000 0.81885990054648793990 
-0.03788694816534543541 0.00000000000000000000 0.81720949975706780322 
-0.03675048576866448563 0.00000000000000005442 0.81616975144749792648 
-0.03563763980163452832 0.00000000000000005442 0.81572750602916577201 
-0.03454898712695671920 0.00000000000000000000 0.81586614304938609443 
-0.03348473355273395846 -0.00000000000000010885 0.81656599154678211061 
-0.03244394718728962207 0.00000000000000010885 0.81780474101204447823 
-0.03142655458914825339 0.00000000000000010885 0.81955783923537484092 
-0.03043245761247091036 0.00000000000000010885 0.82179887396407103051 
-0.02946153470688895812 0.00000000000000010885 0.82449993588942949163 
-0.02851364219633796201 0.00000000000000021769 0.82763196102899794226 
-0.02758861553534237149 0.00000000000000000000 0.83116505106725202534 
-0.02668627054131722867 0.00000000000000000000 0.83506877066491580486 
-0.02580640460157359803 0.00000000000000000000 0.83931242114537540910 
-0.02494879785382586937 -0.00000000000000010885 0.84386529031748258589 
-0.02411321433912033685 -0.00000000000000010885 0.84869687849962105464 
-0.02329940312620811319 0.00000000000000005442 0.85377710107271731488 
-0.02250709940650943638 0.00000000000000005442 0.85907646811266313858 
-0.02173602555891273463 -0.00000000000000005442 0.86456624183831287667 
-0.02098589218376617493 0.00000000000000005442 0.87021857276286518346 
-0.02025639910552062828 0.00000000000000000000 0.87600661555701975214 
-0.01954638167395950782 0.00000000000000005442 0.88190462572489325410 
-0.01885586954804306312 0.00000000000000000000 0.88788803826114337525 
-0.01818511789982667562 0.00000000000000010885 0.89393352684088134286 
-0.01753378875918118820 0.00000000000000000000 0.90001894154205408505 
-0.01690153812078884488 0.00000000000000000000 0.90612275869621949909 
-0.01628801674241095454 0.00000000000000000000 0.91222299424954000902 
-0.01569287091106115473 0.00000000000000000000 0.91829591410967570386 
-0.01511574317721350869 -0.00000000000000010885 0.92431481357615152827 
-0.01455627305724781391 -0.00000000000000005442 0.93024902962147282270 
-0.01401409770439425266 0.00000000000000000000 0.93606327066542582838 
-0.01348885254850191832 0.00000000000000016327 0.94171729272367699082 
-0.01298017190501224612 0.00000000000000000000 0.94716591297545560391 
-0.01248768955356833153 0.00000000000000010885 0.95235932753689100938 
-0.01201103928674185882 0.00000000000000010885 0.95724368609360221960 
-0.01154985542939906441 0.00000000000000016327 0.96176186931510709854 
-0.01110377332927280601 0.00000000000000000000 0.96585441351413436895 
-0.01067242981933490785 -0.00000000000000010885 0.96946052917545966210 
-0.01025546365260743623 0.00000000000000010885 0.97251916449720987590 
-0.00985251591006776686 0.00000000000000005442 0.97497007102881294571 
-0.00946323038233710424 0.00000000000000000000 0.97675485179303789263 
-0.00908725392585783831 0.00000000000000010885 0.97781818116265339924 
-0.00872423679428782108 0.00000000000000000000 0.97810950670532570417 
-0.00837383294585271679 0.00000000000000010885 0.97758504920579392117 
-0.00803570032741221345 0.00000000000000000000 0.97620975609013105334 
-0.00770950113600184488 0.00000000000000010885 0.97395897805485698306 
-0.00739490205862663487 0.00000000000000000000 0.97081973917840302946 
-0.00709157449107959432 -0.00000000000000005442 0.96679154334161510054 
-0.00679919473656457989 0.00000000000000010885 0.96188671061953201491 
-0.00651744418490328263 0.00000000000000010885 0.95613027145161144649 
-0.00624600947310338141 0.00000000000000010885 0.94955946787705036716 
-0.00598458262805937145 0.00000000000000005442 0.94222292314197031438 
-0.00573286119215612663 -0.00000000000000005442 0.93417954608197451005 
-0.00549054833253103964 0.00000000000000005442 0.92549723684690299308 
-0.00525735293475104639 0.00000000000000010885 0.91625145731131707461 
-0.00503298968164065004 -0.00000000000000005442 0.90652372409336501313 
-0.00481717911799227523 0.00000000000000005442 0.89640007538771127038 
-0.00460964770187497971 0.00000000000000000000 0.88596955547716416124 
-0.00441012784324323111 -0.00000000000000005442 0.87532275331246500727 
-0.00421835793053446095 0.00000000000000000000 0.86455042428719330871 
-0.00403408234592573557 -0.00000000000000010885 0.85374221752010814868 
-0.00385705146990681768 0.00000000000000000000 0.84298552473969612375 
-0.00368702167580691039 -0.00000000000000005442 0.83236446132911068307 
-0.00352375531489747392 0.00000000000000000000 0.82195898526917721139 
-0.00336702069267167141 0.00000000000000000000 0.81184415561206424439 
-0.00321659203688843837 -0.00000000000000005442 0.80208952870282801406 
-0.00307224945794344314 0.00000000000000000000 0.79275868759732703861 
-0.00293377890211718234 0.00000000000000005442 0.78390889794923923617 
-0.00280097209822717389 0.00000000000000000000 0.77559088199628334337 
-0.00267362649819029687 -0.00000000000000010885 0.76784870110411396205 
-0.00255154521199033556 0.00000000000000000000 0.76071973656374802797 
-0.00243453693751708843 0.00000000000000010885 0.75423475792508143378 
-0.00232241588572969703 0.00000000000000000000 0.74841806802871213566 
-0.00221500170157740497 -0.00000000000000005442 0.74328771401893956039 
-0.00211211938109175622 0.00000000000000000000 0.73885575393515090514 
-0.00201359918504471222 0.00000000000000010885 0.73512856894463751711 
-0.00191927654955077178 0.00000000000000000000 0.73210721185984972692 
-0.00182899199397171036 0.00000000000000000000 0.72978778324479098849 
-0.00174259102646614041 0.00000000000000005442 0.72816182713077703959 
-0.00165992404750836347 0.00000000000000000000 0.72721673910756623460 
-0.00158084625168295194 -0.00000000000000010885 0.72693618031224116471 
-0.00150579055898440229 -0.00000000000000010885 0.72730049158908249840 
-0.00143485189512283415 0.00000000000000005442 0.72828710282607755921 
-0.00136701910410808101 -0.00000000000000010885 0.72987093317754647703 
-0.00130216967047588981 0.00000000000000010885 0.73202477854994696393 
-0.00124018515358517017 -0.00000000000000010885 0.73471968335369219893 
-0.00118095109495737699 0.00000000000000000000 0.73792529410403784329 
-0.00112435692513551634 0.00000000000000000000 0.74161019298652786080 
-0.00107029587027584810 -0.00000000000000005442 0.74574220998619000778 
-0.00101866485866096445 -0.00000000000000010885 0.75028871261471841159 
-0.00096936442731688154 -0.00000000000000010885 0.75521687265719106286 
-0.00092229862889985992 -0.00000000000000005442 0.76049390970102948017 
-0.00087737493900837463 0.00000000000000000000 0.76608731150698416990 
-0.00083450416406348092 0.00000000000000000000 0.77196503153738615932 
-0.00079360034989133931 0.00000000000000000000 0.77809566417343623002 
-0.00075458069112818802 0.00000000000000005442 0.78444859833379143588 
-0.00071736544156047750 0.00000000000000000000 0.79099415035407205643 
-0.00068187782550084293 -0.00000000000000005442 0.79770367710416478779 
-0.00064747091935652866 0.00000000000000000000 0.80454967041020208907 
-0.00061384318424657306 0.00000000000000005442 0.81150583391312125503 
-0.00058180636673147638 0.00000000000000005442 0.81854713633107101245 
-0.00055129059060118662 0.00000000000000005442 0.82564968563476626162 
-0.00052222873758068350 -0.00000000000000005442 0.83279005670829153729 
-0.00049455635625555495 0.00000000000000000000 0.83994413847139060003 
-0.00046821157297929650 0.00000000000000000000 0.84708584234208050834 
-0.00044313500478137087 -0.00000000000000005442 0.85418592020284789257 
-0.00041926967429406562 0.00000000000000000000 0.86121103761449402381 
-0.00039656092670738407 0.00000000000000000000 0.86812317406744909931 
-0.00037495634875648747 -0.00000000000000005442 0.87487937028373752302 
-0.00035440568974496537 0.00000000000000005442 0.88143180778116858587 
-0.00033486078460029844 0.00000000000000010885 0.88772818393129648840 
-0.00031627547895557998 -0.00000000000000010885 0.89371233328950394625 
-0.00029860555624684298 0.00000000000000005442 0.89932504045458450115 
-0.00028180866681220586 0.00000000000000005442 0.90450498910039633937 
-0.00026584425897953752 0.00000000000000005442 0.90918979454716408739 
-0.00025067351211972291 0.00000000000000005442 0.91331707210813650732 
-0.00023625927164768284 0.00000000000000000000 0.91682550035351761952 
-0.00022256598594480549 0.00000000000000000000 0.91965590659167617549 
-0.00020955964517983239 0.00000000000000000000 0.92175268180873182189 
-0.00019720772199781014 0.00000000000000005442 0.92306566714522331196 
-0.00018547911405022416 -0.00000000000000005442 0.92355219370928909317 
-0.00017434408833486370 0.00000000000000000000 0.92317897085009759106 
-0.00016377422731308195 0.00000000000000000000 0.92192363580788716515 
-0.00015374237677258308 -0.00000000000000010885 0.91977586627975238542 
-0.00014422259540015667 0.00000000000000005442 0.91673802076440336073 
-0.00013519010603105201 0.00000000000000000000 0.91282531529257027181 
-0.00012662124853830148 0.00000000000000005442 0.90806557391053110972 
-0.00011849343432715376 -0.00000000000000005442 0.90249860773897738753 
-0.00011078510239634629 0.00000000000000005442 0.89617528649928812623 
-0.00010347567693073185 0.00000000000000005442 0.88915636938828479519 
-0.00009654552638759984 0.00000000000000000000 0.88151116089256376096 
-0.00008997592403879469 -0.00000000000000005442 0.87331605295972736247 
-0.00008374900993442362 0.00000000000000000000 0.86465300895345509335 
-0.00007784775424387333 -0.00000000000000016327 0.85560803781683281155 
-0.00007225592194635416 0.00000000000000010885 0.84626969944875884977 
-0.00006695803882522559 0.00000000000000005442 0.83672767489109345362 
-0.00006193935873580651 0.00000000000000005442 0.82707142782928544378 
-0.00005718583210564775 -0.00000000000000010885 0.81738897732550153119 
-0.00005268407563419230 -0.00000000000000005442 0.80776579575254303656 
-0.00004842134315490323 0.00000000000000000000 0.79828384064249535701 
-0.00004438549762342821 -0.00000000000000005442 0.78902072462622141469 
-0.00004056498419986272 -0.00000000000000005442 0.78004902380737806133 
-0.00003694880438810488 -0.00000000000000005442 0.77143572175462982177 
-0.00003352649119996372 0.00000000000000000000 0.76324178376070017649 
-0.00003028808531114153 0.00000000000000016327 0.75552185405060234835 
-0.00002722411217532390 -0.00000000000000005442 0.74832406716305299721 
-0.00002432556006532322 -0.00000000000000005442 0.74168996371663442613 
-0.00002158385901053061 0.00000000000000005442 0.73565450014475985974 
-0.00001899086059948719 -0.00000000000000005442 0.73024614168254153856 
-0.00001653881861676870 -0.00000000000000010885 0.72548702785980079266 
-0.00001422037048678014 -0.00000000000000010885 0.72139319994762218791 
-0.00001202851949519813 0.00000000000000005442 0.71797488017587884901 
-0.00000995661775966073 -0.00000000000000005442 0.71523679304581466720 
-0.00000799834992247868 0.00000000000000000000 0.71317851966976630873 
-0.00000614771754130158 0.00000000000000000000 0.71179487674887864657 
-0.00000439902414859574 -0.00000000000000021769 0.71107631252307701430 
-0.00000274686095693860 0.00000000000000005442 0.71100931277363654814 
-0.00000118609318586961 0.00000000000000005442 0.71157681070921174893 
0.00000000000000003485 0.00000000000000005442 0.71275859530632301730 
0.00000000000000006750 0.00000000000000005442 0.71453171339325727285 
0.00000000000000010008 -0.00000000000000016327 0.71687086145294776074 
0.00000000000000018441 -0.00000000000000005442 0.71974876376888330398 
0.00000000000000011304 0.00000000000000005442 0.72313653414353018523 
0.00000000000000015018 -0.00000000000000005442 0.72700401897807309659 
0.00000000000000017103 -0.00000000000000005442 0.73132012001368984500 
0.00000000000000004172 -0.00000000000000005442 0.73605309549755271181 
0.00000000000000009723 0.00000000000000000000 0.74117083895168800467 
0.00000000000000016481 -0.00000000000000005442 0.74664113509087559617 
0.00000000000000008614 -0.00000000000000010885 0.75243189275871502630 
0.00000000000000011641 0.00000000000000000000 0.75851135503101407842 
0.00000000000000017521 0.00000000000000005442 0.76484828687530370672 
0.00000000000000005607 0.00000000000000005442 0.77141214095732069111 
0.00000000000000023361 0.00000000000000000000 0.77817320235258602423 
0.00000000000000007103 -0.00000000000000010885 0.78510271305668710706 
0.00000000000000007746 0.00000000000000005442 0.79217297729448432619 
0.00000000000000019763 0.00000000000000000000 0.79935744870908898019 
0.00000000000000015019 0.00000000000000000000 0.80663080039688905831 
0.00000000000000016766 -0.00000000000000010885 0.81396894488142068624 
-0.00000000000000000188 0.00000000000000010885 0.82134872330372299398 
0.00000000000000016666 0.00000000000000016327 0.82874700272383594601 
0.00000000000000008830 0.00000000000000005442 0.83613943047896077676 
0.00000000000000017978 0.00000000000000005442 0.84349916354821830033 
0.00000000000000008004 0.00000000000000010885 0.85079577631049041475 
0.00000000000000006953 0.00000000000000000000 0.85799445980451372051 
0.00000000000000004615 0.00000000000000010885 0.86505556121841864492 
0.00000000000000011989 0.00000000000000005442 0.87193446791090523096 
0.00000000000000019768 0.00000000000000000000 0.87858181104039134723 
0.00000000000000012770 -0.00000000000000005442 0.88494394606278214965 
0.00000000000000005183 0.00000000000000010885 0.89096365795565679591 
0.00000000000000007763 0.00000000000000021769 0.89658103568394131866 
0.00000000000000008098 0.00000000000000000000 0.90173446130923518016 
0.00000000000000009896 0.00000000000000000000 0.90636166285329411441 
0.00000000000000012380 0.00000000000000010885 0.91040078548540126491 
0.00000000000000022707 0.00000000000000005442 0.91379144201320083862 
0.00000000000000008553 0.00000000000000010885 0.91647571043060982454 
0.00000000000000014348 -0.00000000000000005442 0.91839905299645530068 
0.00000000000000005032 0.00000000000000005442 0.91951113769628056716 
0.00000000000000011461 -0.00000000000000010885 0.91976654879108066254 
0.00000000000000019166 0.00000000000000010885 0.91912537837098640114 
0.00000000000000016436 0.00000000000000016327 0.91755369535696029715 
0.00000000000000006275 0.00000000000000000000 0.91502389221915336748 
0.00000000000000013623 -0.00000000000000005442 0.91151491282635810354 
0.00000000000000008565 -0.00000000000000005442 0.90701236734687917806 
0.00000000000000006507 0.00000000000000010885 0.90150854204017638605 
0.00000000000000004729 0.00000000000000000000 0.89500231317114664620 
0.00000000000000003971 -0.00000000000000010885 0.88749897520856046995 
0.00000000000000000691 0.00000000000000005442 0.87900999399970614068 
0.00000000000000016108 -0.00000000000000005442 0.86955269580640748295 
0.00000000000000009687 0.00000000000000005442 0.85914990300143745383 
0.00000000000000008356 0.00000000000000005442 0.84782952691253543609 
0.00000000000000000847 -0.00000000000000005442 0.83562412781228556646 
0.00000000000000015429 0.00000000000000010885 0.82257045142923168601 
0.00000000000000004153 0.00000000000000010885 0.80870895063664227642 
0.00000000000000000148 0.00000000000000005442 0.79408330019297790336 
-0.00000000000000007967 0.00000000000000005442 0.77873991159015387709 
0.00000000000000010726 0.00000000000000010885 0.76272745423529819675 
-0.00000000000000001015 0.00000000000000005442 0.74609638836797453898 
0.00000000000000007032 -0.00000000000000005442 0.72889851431302077334 
0.00000000000000002599 0.00000000000000000000 0.71118654190123931080 
-0.00000000000000000875 0.00000000000000005442 0.69301368316514910806 
0.00000000000000008209 0.00000000000000010885 0.67443327074141590227 
0.00000000000000002895 0.00000000000000021769 0.65549840378967738630 
0.00000000000000003548 0.00000000000000005442 0.63626162267182251320 
0.00000000000000013996 0.00000000000000005442 0.61677461312728965037 
0.00000000000000009826 0.00000000000000010885 0.59708794022834610349 
0.00000000000000001605 0.00000000000000005442 0.57725081200333994147 
-0.00000000000000003794 -0.00000000000000010885 0.55731087227346587376 
0.00000000000000009131 0.00000000000000005442 0.53731402195704514035 
0.00000000000000007277 0.00000000000000000000 0.51730426785154259850 
0.00000000000000000597 0.00000000000000000000 0.49732359770418221867 
-0.00000000000000002189 0.00000000000000000000 0.47741188022348818309 
0.00000000000000017521 0.00000000000000000000 0.45760678856272946069 
-0.00000000000000003953 0.00000000000000016327 0.43794374571843575072 
-0.00000000000000002678 0.00000000000000005442 0.41845589022930157475 
0.00000000000000012473 -0.00000000000000005442 0.39917406052941323269 
0.00000000000000003371 0.00000000000000010885 0.38012792940606243697 
0.00000000000000012109 0.00000000000000010885 0.36134283362622227065 
0.00000000000000002280 0.00000000000000010885 0.34284249203493427638 
0.00000000000000004452 0.00000000000000016327 0.32464870576622756326 
0.00000000000000007031 0.00000000000000000000 0.30678112007654256832 
0.00000000000000001333 0.00000000000000005442 0.28925728684993579076 
0.00000000000000009318 0.00000000000000016327 0.27209273493233115948 
-0.00000000000000007499 0.00000000000000005442 0.25530104699417049963 
0.00000000000000007670 0.00000000000000016327 0.23889394170256186833 
0.00000000000000002120 0.00000000000000016327 0.22288136006827774516 
0.00000000000000003418 0.00000000000000010885 0.20727155491845161706 
-0.00000000000000000399 0.00000000000000000000 0.19207118253145194497 
0.00000000000000013126 0.00000000000000010885 0.17728539555523184501 
-0.00000000000000000005 0.00000000000000016327 0.16291793641366697498 
0.00000000000000006680 0.00000000000000000000 0.14897123048632249231 
0.00000000000000011518 0.00000000000000005442 0.13544647842520868286 
0.00000000000000011922 -0.00000000000000005442 0.12234374704694510327 
0.00000000000000003533 0.00000000000000000000 0.10966205831001123172 
0.00000000000000012228 0.00000000079584949917 0.09739947595418727011 
0.00000000000000003581 0.00000006783827839103 0.08555318944268722192 
-0.00000000000000000261 0.00000079358124487272 0.07411959490675683326 
0.00000000000000013769 0.00000432204101150229 0.06309437284760718856 
0.00000000000000007869 0.00001563292914910407 0.05247256240147310513 
-0.00000000000000005343 0.00004379056912042944 0.04224863202036843041 
0.00000000000000011202 0.00010297579497262408 0.03241654646384288518 
0.00000000000000009266 0.00021320354925953621 0.02296983003582407298 
0.00000000000000002079 0.00040068880775264159 0.01390162603559708457 
0.00000000000000001458 0.00069786444606835020 0.00520475242327657437 
0.00000000000000006904 0.00114308127747547185 -0.00312824627206539224 
-0.00000000000000003363 0.00178003635045705165 -0.01110505074897158093 
0.00000000000000002215 0.00265698355748160983 -0.01873352236086539210 
0.00000000000000004440 0.00382578291293384767 -0.02602166208161172528 
-0.00000000000000003443 0.00534084324739530353 -0.03297757290130200192 
0.00000000000000008538 0.00725800887289857963 -0.03960942553111249098 
0.00000000000000016978 0.00963343501113765599 -0.04592542728535415480 
0.00000000000000004737 0.01252249019770824111 -0.05193379400028722004 
0.00000000000000003320 0.01597871703004540705 -0.05764272484273910702 
0.00000000000000009340 0.02005287590433193351 -0.06306037985683778102 
0.00000000000000009467 0.02479209005233379629 -0.06819486009410992422 
0.00000000000000009576 0.03023910441216702549 -0.07305419017061218212 
0.00000000000000002858 0.03643166574418913589 -0.07764630309452072443 
-0.00000000000000000712 0.04340202697728712256 -0.08197902720854197134 
0.00000000000000002309 0.05117657504517690581 -0.08606007509349085371 
-0.00000000000000002664 0.05977557842259571819 -0.08989703428228368320 
-0.00000000000000001751 0.06921304815432721691 -0.09349735963727774657 
-0.00000000000000005208 0.07949670433093254662 -0.09686836724824983424 
-0.00000000000000000997 0.09062803864250668084 -0.10001722971324467082 
-0.00000000000000000802 0.10260246277174098206 -0.10295097266991563856 
-0.00000000000000000189 0.11540953190650739268 -0.10567647245076014495 
0.00000000000000000769 0.12903323249885917390 -0.10820045474172866606 
0.00000000000000007365 0.14345232351438619300 -0.11052949412997152556 
-0.00000000000000000120 0.15864072075051244282 -0.11267001443292745666 
0.00000000000000001298 0.17456791430700832612 -0.11462828970748392687 
-0.00000000000000004640 0.19119940992446041172 -0.11641044584449566912 
0.00000000000000000773 0.20849718562976213287 -0.11802246266047308754 
-0.00000000000000006840 0.22642015591008635145 -0.11947017640473303612 
0.00000000000000010775 0.24492463645130338468 -0.12075928260665440284 
-0.00000000000000002929 0.26396480330097543687 -0.12189533919391504213 
-0.00000000000000003391 0.28349314113151607986 -0.12288376981863512183 
0.00000000000000004284 0.30346087607113569895 -0.12372986733422031147 
0.00000000000000016007 0.32381838932739243075 -0.12443965204095232269 
0.00000000000000009873 0.34451560854192209149 -0.12501781746981421861 
0.00000000000000004768 0.36550237447910355337 -0.12546870372584503772 
0.00000000000000005337 0.38672878126203824589 -0.12579712063406062184 
0.00000000000000010893 0.40814548892400037694 -0.12600776503495633718 
0.00000000000000016362 0.42970400754170878788 -0.12610522427354575736 
0.00000000000000006974 0.45135695265878639226 -0.12609397958242019033 
0.00000000000000004649 0.47305827209499845543 -0.12597840933972784261 
-0.00000000000000000888 0.49476344457144200151 -0.12576279218651870151 
0.00000000000000005094 0.51642965086648495721 -0.12545130999119186166 
0.00000000000000003829 0.53801591845502494404 -0.12504805065179983026 
0.00000000000000001996 0.55948324077796507403 -0.12455701072972967525 
0.00000000000000006598 0.58079467244318405683 -0.12398209791079167763 
-0.00000000000000001432 0.60191540177736191364 -0.12332713329201137886 
0.00000000000000002109 0.62281280223338253421 -0.12259585349445677183 
-0.00000000000000010137 0.64345646421419955274 -0.12179191260423900822 
-0.00000000000000001842 0.66381820890446197048 -0.12091888394541776275 
-0.00000000000000001503 0.68387208570905866356 -0.11997968865899261148 
0.00000000000000003665 0.70359435471420261887 -0.11897751277507354062 
0.00000000000000005991 0.72296342164815408093 -0.11791657650254246115 
0.00000000000000001372 0.74195944494259036261 -0.11680014056726030491 
0.00000000000000005208 0.76056335405588104681 -0.11563139170546828105 
0.00000000000000005604 0.77875552821780003043 -0.11441344356102405022 
-0.00000000000000004824 0.79651445371118068106 -0.11314933746997270225 
0.00000000000000007589 0.81381556319825010259 -0.11184204314248551160 
0.00000000000000002178 0.83063037028168995590 -0.11049445925236438260 
0.00000000000000005201 0.84692594807204713003 -0.10910941394434867102 
0.00000000000000011044 0.86266475607534554015 -0.10768966526942751194 
0.00000000000000009975 0.87780479045973336394 -0.10623790155822029901 
0.00000000000000004778 0.89230001491850097217 -0.10475674174229476776 
-0.00000000000000000083 0.90610101992139657767 -0.10324873563300641932 
0.00000000000000003009 0.91915585478385797291 -0.10171636416712412365 
0.00000000000000012618 0.93141097785416215871 -0.10016203962811795480 
-0.00000000000000000725 0.94281227381273624566 -0.09858810585156828343 
0.00000000000000007049 0.95330609252545117638 -0.09699683842269214706 
0.00000000000000010422 0.96284027295523455514 -0.09539044487350271939 
0.00000000000000010029 0.97136522298053762370 -0.09377106488659915640 
0.00000000000000007418 0.97883539709604516776 -0.09214077051207615610 
0.00000000000000014720 0.98521120255396588128 -0.09050156640348662462 
0.00000000000000006543 0.99046098824074912947 -0.08885539007827088220 
0.00000000000000005253 0.99456283714634996507 -0.08720411220750558245 
0.00000000000000008996 0.99750599610094015102 -0.08554953693930059111 
0.00000000000000012637 0.99929185936086872832 -0.08389340225963073938 
0.00000000000000006934 0.99993448148465269298 -0.08223738039386907506 
0.00000000000000002351 0.99946063523050265864 -0.08058307825178162576 
-0.00000000000000000654 0.99790945633028071970 -0.07893203791824397741 
0.00000000000000015659 0.99533173246504658138 -0.07728573719146940302 
0.00000000000000002913 0.99178890137220299117 -0.07564559017007504993 
0.00000000000000009823 0.98735182494853723778 -0.07401294788988393991 
0.00000000000000004315 0.98209940418999974732 -0.07238909901094060795 
0.00000000000000001159 0.97611709515072520027 -0.07077527055483481822 
0.00000000000000007936 0.96949537981940825393 -0.06917262869205678677 
0.00000000000000004023 0.96232823865822647580 -0.06758227957877212255 
0.00000000000000002254 0.95471166408563545858 -0.06600527024208699411 
0.00000000000000000292 0.94674224680941476695 -0.06444258951258367840 
0.00000000000000000921 0.93851585990672703463 -0.06289516900264613408 
0.00000000000000014670 0.93012645908448654541 -0.06136388412885096511 
0.00000000000000010344 0.92166501174384196649 -0.05984955517649093171 
0.00000000000000006820 0.91321856236985921029 -0.05835294840410059497 
0.00000000000000004697 0.90486943738381286906 -0.05687477718569818042 
0.00000000000000009473 0.89669458891405540157 -0.05541570318830221775 
0.00000000000000006425 0.88876507392520920359 -0.05397633758217172673 
0.00000000000000000891 0.88114566274439443117 -0.05255724228111111757 
-0.00000000000000005602 0.87389456917938912461 -0.05115893121010992028 
0.00000000000000010427 0.86706329307552854058 -0.04978187159751810281 
0.00000000000000005657 0.86069656524338489234 -0.04842648528892667947 
0.00000000000000010556 0.85483238414711060216 -0.04709315007989327978 
0.00000000000000012985 0.84950213351589687338 -0.04578220106464876010 
0.00000000000000001992 0.84473077007451879972 -0.04449393199792528453 
0.00000000000000004560 0.84053707083423323532 -0.04322859666707388332 
0.00000000000000008952 0.83693392979807967880 -0.04198641027166893913 
0.00000000000000006634 0.83392869447565010077 -0.04076755080784968260 
0.00000000000000006914 0.83152353323730021639 -0.03957216045470288851 
0.00000000000000005021 0.82971582523688236499 -0.03840034696006336401 
0.00000000000000021726 0.82849856537017152469 -0.03725218502318129038 
-0.00000000000000000105 0.82786077749202824361 -0.03612771767179483867 
0.00000000000000008087 0.82778792987154092842 -0.03502695763123418043 
0.00000000000000000831 0.82826234760674999347 -0.03395017683630129068 
0.00000000000000008817 0.82926361743790555359 -0.03289814751571356471 
-0.00000000000000001882 0.83076898108191077341 -0.03186961788480849322 
0.00000000000000008463 0.83275371385435303928 -0.03086449707748568916 
0.00000000000000005275 0.83519148594483538783 -0.02988267036121172032 
0.00000000000000009362 0.83805470426346406754 -0.02892400042473242117 
0.00000000000000014692 0.84131483327984446507 -0.02798832864371816193 
-0.00000000000000001796 0.84494269373054242678 -0.02707547632286779263 
0.00000000000000006841 0.84890873847725412116 -0.02618524591312199751 
0.00000000000000005507 0.85318330515727969221 -0.02531742220274419211 
0.00000000000000004834 0.85773684558218499241 -0.02447177348114700640 
0.00000000000000004454 0.86254013211212143819 -0.02364805267445646911 
0.00000000000000011727 0.86756444146474553936 -0.02284599845191521289 
0.00000000000000014822 0.87278171661190073749 -0.02206533630233519297 
0.00000000000000005094 0.87816470757708653405 -0.02130577957992432075 
0.00000000000000020896 0.88368709207524298588 -0.02056703051890299005 
0.00000000000000006181 0.88932357703646891522 -0.01984878121644097215 
0.00000000000000003652 0.89504998212985908967 -0.01914985991391358194 
0.00000000000000004912 0.90084330565962544846 -0.01847028976056120514 
0.00000000000000014650 0.90668171176596612515 -0.01781031999707412272 
-0.00000000000000002967 0.91254410471855629261 -0.01716960727988895916 
0.00000000000000012408 0.91840912779429850765 -0.01654780276771454853 
0.00000000000000011550 0.92425389057522266967 -0.01594455289934381889 
0.00000000000000015779 0.93005272063103427982 -0.01535950013942594290 
0.00000000000000003639 0.93577612252785669078 -0.01479228369237878433 
0.00000000000000010374 0.94139004254461899901 -0.01424254018468021875 
0.00000000000000002031 0.94685547752062049209 -0.01370990431584495108 
0.00000000000000015124 0.95212842521821550168 -0.01319400947844570626 
0.00000000000000018406 0.95716014691498207956 -0.01269448834759338146 
0.00000000000000006741 0.96189769702271232799 -0.01221097344034165026 
0.00000000000000013245 0.96628466650853728215 -0.01174309764552099872 
0.00000000000000003684 0.97026208452732776166 -0.01129049472455785456 
0.00000000000000008913 0.97376942422566581392 -0.01085279978386015712 
0.00000000000000007309 0.97674566281139185708 -0.01042964971939483974 
0.00000000000000005199 0.97913035168833939537 -0.01002068363410639831 
0.00000000000000013466 0.98086466618737500056 -0.00962554322885528918 
0.00000000000000008293 0.98189256069933505966 -0.00924387316757387979 
-0.00000000000000000074 0.98216237363098246593 -0.00887532141736597190 
0.00000000000000018769 0.98162879948053416435 -0.00851953956428025405 
0.00000000000000001390 0.98025487513855713573 -0.00817618310551425885 
0.00000000000000008430 0.97801372628590488301 -0.00784491171880676887 
0.00000000000000008228 0.97488992652731965016 -0.00752538950979195296 
0.00000000000000003920 0.97088039949693094588 -0.00721728523808626982 
0.00000000000000012224 0.96599484891337394910 -0.00692027252289176536 
0.00000000000000012031 0.96025573869451819053 -0.00663403002889135628 
0.00000000000000019492 0.95369786897434960515 -0.00635824163321688056 
0.00000000000000014834 0.94636760755441784454 -0.00609259657426389819 
0.00000000000000015120 0.93832184262884710257 -0.00583678958312306567 
0.00000000000000007262 0.92962672363548259913 -0.00559052099839396893 
0.00000000000000009474 0.92035625443444213367 -0.00535349686513060530 
0.00000000000000004050 0.91059079795363662146 -0.00512542901867069686 
0.00000000000000012528 0.90041554492278530475 -0.00490603515407705363 
0.00000000000000000247 0.88991899205679703133 -0.00469503888191509858 
0.00000000000000021251 0.87919146756922039732 -0.00449216977107350004 
0.00000000000000008519 0.86832373456938782841 -0.00429716337932218705 
0.00000000000000017909 0.85740569597825155856 -0.00410976127228541380 
0.00000000000000008537 0.84652521825229898322 -0.00392971103149161814 
0.00000000000000012565 0.83576708552792433604 -0.00375676625214599498 
0.00000000000000001654 0.82521209083382529581 -0.00359068653125227096 
0.00000000000000014739 0.81493626677212238629 -0.00343123744669613902 
0.00000000000000002364 0.80501025451839247626 -0.00327819052787818024 
0.00000000000000002113 0.79549880709665954370 -0.00313132321847397078 
0.00000000000000007357 0.78646042059551790615 -0.00299041883187137593 
0.00000000000000016980 0.77794708524709299535 -0.00285526649982342784 
-0.00000000000000001373 0.77000414702953468016 -0.00272566111483141813 
0.00000000000000006233 0.76267026961404160712 -0.00260140326675486469 
-0.00000000000000005301 0.75597748599870351338 -0.00248229917412749398 
0.00000000000000005512 0.74995132899667849014 -0.00236816061063736469 
0.00000000000000000875 0.74461102982242466375 -0.00225880482720973745 
0.00000000000000003043 0.73996977429872057286 -0.00215405447011597986 
0.00000000000000003458 0.73603500664570464807 -0.00205373749550917832 
0.00000000000000003121 0.73280877137291544621 -0.00195768708077073000 
0.00000000000000004078 0.73028808444288106916 -0.00186574153303521555 
0.00000000000000002347 0.72846532558144461156 -0.00177774419523925266 
0.00000000000000007489 0.72732864435129718217 -0.00169354335002711801 
0.00000000000000005995 0.72686237336072467841 -0.00161299212182716353 
0.00000000000000000462 0.72704744273252774889 -0.00153594837739475898 
0.00000000000000016851 0.72786179069497158878 -0.00146284765603925198 
-0.00000000000000008850 0.72928076586673018511 -0.00139378744903097870 
0.00000000000000011832 0.73127751748304314905 -0.00132775911144331765 
0.00000000000000004513 0.73382337044468848308 -0.00126464258379252394 
0.00000000000000005104 0.73688818266084432640 -0.00120432182588910120 
-0.00000000000000005849 0.74044068269893403844 -0.00114668472386626340 
0.00000000000000014365 0.74444878624794874611 -0.00109162299685323580 
0.00000000000000002967 0.74887989034639690367 -0.00103903210349747454 
0.00000000000000007345 0.75370114472272498052 -0.00098881114852025038 
0.00000000000000003266 0.75887969994622728187 -0.00094086278947533612 
0.00000000000000010628 0.76438293239212906638 -0.00089509314387309217 
-0.00000000000000000045 0.77017864628804288962 -0.00085141169681846463 
0.00000000000000014078 0.77623525333306586660 -0.00080973120929525653 
-0.00000000000000005741 0.78252193056819097094 -0.00076996762722968029 
0.00000000000000000346 0.78900875733045994220 -0.00073203999144339752 
0.00000000000000006010 0.79566683224626466586 -0.00069587034860266075 
0.00000000000000009911 0.80246837131443959912 -0.00066138366326364125 
0.00000000000000008494 0.80938678820005960368 -0.00062709936033121083 
0.00000000000000000585 0.81639675524594268463 -0.00059443471847269119 
0.00000000000000001078 0.82347414315997424783 -0.00056331873236446512 
0.00000000000000009683 0.83059547293566338144 -0.00053368319159687256 
-0.00000000000000000040 0.83773683135232679398 -0.00050546258881388061 
0.00000000000000015878 0.84487258349817073722 -0.00047859402982492892 
-0.00000000000000003784 0.85197415438443302449 -0.00045301714571142887 
0.00000000000000008381 0.85900904339136374688 -0.00042867400694386132 
-0.00000000000000003316 0.86594015616479214081 -0.00040550903952433137 
-0.00000000000000006027 0.87272548282344653003 -0.00038346894316110947 
0.00000000000000005729 0.87931811350344357692 -0.00036250261147744643 
-0.00000000000000006059 0.88566655801064186893 -0.00034256105425476948 
-0.00000000000000008227 0.89171532222091443032 -0.00032359732170530824 
0.00000000000000009949 0.89740568713957713509 -0.00030556643076315600 
0.00000000000000010821 0.90267663507379103383 -0.00028842529338620284 
0.00000000000000009163 0.90746586953522634378 -0.00027213264684994542 
0.00000000000000003657 0.91171088001037625670 -0.00025664898601630420 
0.00000000000000010374 0.91535000865786608770 -0.00024193649755856132 
0.00000000000000009120 0.91832348526925888788 -0.00022795899611940029 
0.00000000000000008546 0.92057450420149256054 -0.00021468186237363690 
-0.00000000000000007313 0.92205068801270484435 -0.00020207198297441796 
0.00000000000000013010 0.92270597092611372769 -0.00019009769235072286 
-0.00000000000000013648 0.92250255873970410381 -0.00017872871632667122 
0.00000000000000003912 0.92141268809015763885 -0.00016793611753161569 
0.00000000000000001361 0.91942002051604476698 -0.00015769224256863791 
0.00000000000000011862 0.91652058939480218758 -0.00014797067090819557 
0.00000000000000000595 0.91272327642263906267 -0.00013874616547067484 
0.00000000000000006208 0.90804983435205643971 -0.00012999462486367047 
-0.00000000000000004762 0.90253449860268686322 -0.00012169303723899970 
-0.00000000000000003742 0.89622324563374644590 -0.00011381943573200743 
0.00000000000000002594 0.88917276339867667989 -0.00010635285544522906 
0.00000000000000008631 0.88144920098893508875 -0.00009927329194288737 
0.00000000000000002594 0.87312676242593167952 -0.00009256166121431732 
-0.00000000000000004167 0.86428620479910700514 -0.00008619976107328415 
0.00000000000000011012 0.85501329458092034663 -0.00008017023395346627 
-0.00000000000000001658 0.84539726873161935572 -0.00007445653106309512 
0.00000000000000000085 0.83552933969354281629 -0.00006904287786207112 
-0.00000000000000001403 0.82550127596421485343 -0.00006391424082514688 
-0.00000000000000009779 0.81540408290403332270 -0.00005905629545362564 
-0.00000000000000001488 0.80532680195701156212 -0.00005445539549889418 
-0.00000000000000007164 0.79535544064782359719 -0.00005009854336415659 
-0.00000000000000002998 0.78557204061674246187 -0.00004597336164741608 
-0.00000000000000008780 0.77605388657673302077 -0.00004206806578831600 
-0.00000000000000004943 0.76687285540606142664 -0.00003837143779026826 
0.00000000000000009503 0.75809490158718695341 -0.00003487280097786822 
0.00000000000000001075 0.74977967281752377904 -0.00003156199576075201 
0.00000000000000001504 0.74198024779113946892 -0.00002842935636759614 
0.00000000000000004262 0.73474298682049177245 -0.00002546568852049013 
0.00000000000000005485 0.72810748507094158466 -0.00002266224801779031 
0.00000000000000009524 0.72210661765691430691 -0.00002001072019388956 
0.00000000000000002679 0.71676666563893298711 -0.00001750320022607925 
-0.00000000000000004507 0.71210751201137512112 -0.00001513217425960476 
-0.00000000000000001956 0.70814289703222510486 -0.00001289050132032901 
0.00000000000000008589 0.70488072267398349524 -0.00001077139598953407 
-0.00000000000000002721 0.70232339652985675826 -0.00000876841181169008 
0.00000000000000001701 0.70046820615698346391 -0.00000687542540787136 
-0.00000000000000003146 0.69930771554909965104 -0.00000508662127152663 
-0.00000000000000012330 0.69883017617944531708 -0.00000339647721803124 
-0.00000000000000004932 0.69901994581972926035 -0.00000179975046679669 
0.00000000000000005612 0.69985790910517464702 -0.00000029146432731085 
-0.00000000000000007483 0.70132189456496873969 0.00000000000000010885 
0.00000000000000003572 0.70338708356071488748 0.00000000000000005442 
0.00000000000000003742 0.70602640726419396699 0.00000000000000005442 
0.00000000000000004422 0.70921092845362643242 0.00000000000000005442 
0.00000000000000010374 0.71291020551030892527 0.00000000000000005442 
0.00000000000000003401 0.71709263655229826817 0.00000000000000000000 
0.00000000000000004762 0.72172578214734606217 0.00000000000000005442 
0.00000000000000005782 0.72677666550337072238 0.00000000000000000000 
-0.00000000000000008504 0.73221204944202278320 0.00000000000000010885 
0.00000000000000007823 0.73799868982081862079 0.00000000000000010885 
-0.00000000000000002381 0.74410356538380384439 -0.00000000000000010885 
-0.00000000000000019728 0.75049408429218533723 -0.00000000000000010885 
-0.00000000000000000340 0.75713826781747084471 0.00000000000000010885 
-0.00000000000000003061 0.76400491187330255016 0.00000000000000010885 
-0.00000000000000005782 0.77106372722126403918 0.00000000000000000000 
-0.00000000000000009524 0.77828545931357961951 0.00000000000000005442 
-0.00000000000000009864 0.78564198883470059975 0.00000000000000010885 
0.00000000000000007483 0.79310641407729554064 0.00000000000000000000 
-0.00000000000000006123 0.80065311554302032171 0.00000000000000010885 
0.00000000000000004762 0.80825774171760345066 0.00000000000000016327 
-0.00000000000000001701 0.81589678182404823392 0.00000000000000005442 
-0.00000000000000001020 0.82354656306037488100 0.00000000000000021769 
-0.00000000000000001701 0.83118197617145050948 0.00000000000000010885 
0.00000000000000000340 0.83877522533198078936 0.00000000000000005442 
-0.00000000000000007823 0.84629478529372059725 0.00000000000000010885 
0.00000000000000003401 0.85370466418886181703 0.00000000000000010885 
-0.00000000000000003742 0.86096401042267545201 0.00000000000000010885 
-0.00000000000000000340 0.86802706104798910136 0.00000000000000016327 
0.00000000000000005782 0.87484340234364732503 0.00000000000000000000 
0.00000000000000003061 0.88135849740128224816 0.00000000000000005442 
0.00000000000000003401 0.88751442750195785880 0.00000000000000005442 
0.00000000000000006803 0.89325079169738763607 0.00000000000000010885 
-0.00000000000000004082 0.89850571056096306677 0.00000000000000005442 
0.00000000000000004422 0.90321688420695189770 0.00000000000000005442 
-0.00000000000000006123 0.90732266038066722302 0.00000000000000010885 
0.00000000000000005442 0.91076307494478370153 0.00000000000000016327 
0.00000000000000000680 0.91348083387784984044 0.00000000000000010885 
0.00000000000000005442 0.91542221257115763411 0.00000000000000005442 
-0.00000000000000008163 0.91653785449462987778 0.00000000000000010885 
0.00000000000000005442 0.91678345703212671403 0.00000000000000005442 
0.00000000000000001361 0.91612033736488085456 0.00000000000000000000 
-0.00000000000000001361 0.91451587566596426182 0.00000000000000010885 
-0.00000000000000004762 0.91194383655540089961 0.00000000000000016327 
-0.00000000000000003401 0.90838457277912876275 0.00000000000000000000 
0.00000000000000006803 0.90382511745855464991 0.00000000000000010885 
0.00000000000000010885 0.89825917306582447885 0.00000000000000016327 
-0.00000000000000000680 0.89168700657443056290 0.00000000000000016327 
-0.00000000000000005442 0.88411526107929494511 0.00000000000000000000 
-0.00000000000000004082 0.87555669463848273537 0.00000000000000000000 
-0.00000000000000002721 0.86602985722130243484 0.00000000000000000000 
0.00000000000000004762 0.85555871651202508588 0.00000000000000010885 
0.00000000000000005442 0.84417224296744330925 0.00000000000000000000 
-0.00000000000000002721 0.83190396400743038541 0.00000000000000000000 
0.00000000000000010885 0.81879149657271332874 0.00000000000000005442 
0.00000000000000004082 0.80487606654999532818 0.00000000000000010885 
-0.00000000000000004082 0.79020202277308426719 0.00000000000000000000 
0.00000000000000003401 0.77481635248657054760 0.00000000000000010885 
0.00000000000000008163 0.75876820432826264096 0.00000000000000016327 
-0.00000000000000010204 0.74210842406621679856 0.00000000000000000000 
-0.00000000000000006123 0.72488910753044744073 0.00000000000000016327 
0.00000000000000000680 0.70716317441954645862 0.00000000000000010885 
0.00000000000000008844 0.68898396594702782103 0.00000000000000016327 
0.00000000000000006123 0.67040486862719717021 0.00000000000000010885 
0.00000000000000006123 0.65147896588973819298 0.00000000000000010885 
-0.00000000000000007483 0.63225871865808758177 0.00000000000000010885 
-0.00000000000000001361 0.61279567552978131406 0.00000000000000016327 
-0.00000000000000001361 0.59314021275678974199 0.00000000000000000000 
-0.00000000000000002041 0.57334130383891257488 0.00000000000000005442 
0.00000000000000006123 0.55344631821146450523 0.00000000000000010885 
-0.00000000000000001361 0.53350084822687815489 0.00000000000000010885 
-0.00000000000000002041 0.51354856339542387378 0.00000000000000010885 
-0.00000000000000004082 0.49363109065946519927 0.00000000000000000000 
-0.00000000000000001361 0.47378791932503322437 0.00000000000000000000 
-0.00000000000000003401 0.45405632916028365598 0.00000000000000016327 
-0.00000000000000004762 0.43447134008900500923 0.00000000000000000000 
-0.00000000000000008163 0.41506568185520237302 0.00000000000000010885 
-0.00000000000000014286 0.39586978200841010933 0.00000000000000005442 
-0.00000000000000002721 0.37691317892632403286 0.00000000000000010885 
-0.00000000000000005442 0.35822023801568131374 0.00000000000000010885 
-0.00000000000000004082 0.33981457086705274540 0.00000000000000010885 
-0.00000000000000009524 0.32171758905516251170 0.00000000000000000000 
0.00000000000000002721 0.30394855946887811005 0.00000000000000010885 
-0.00000000000000004082 0.28652466856122515981 0.00000000000000021769 
-0.00000000000000004082 0.26946109415598640258 0.00000000000000010885 
-0.00000000000000013606 0.25277108352619381826 0.00000000000000010885 
-0.00000000000000010885 0.23646603654224940261 0.00000000000000010885 
-0.00000000000000001361 0.22055559277206535085 0.00000000000000005442 
-0.00000000000000016327 0.20504772150127817398 0.00000000000000010885 
0.00000000000000000000 0.18994881372717334345 0.00000000000000000000 
-0.00000000000000001361 0.17526377526456368705 0.00000000000000000000 
-0.00000000000000006803 0.16099612018469780517 0.00000000000000005442 
-0.00000000000000008163 0.14714806388872903042 0.00000000000000010885 
0.00000000000000001361 0.13372061519478217750 0.00000000000000005442 
0.00000000000000002721 0.12071366689185994425 0.00000000000000005442 
-0.00000000000000001361 0.10812608428434500318 0.00000000000000005442 
-0.00000000000000009524 0.09595579131751170998 0.00000000266205659663 
-0.00000000000000004082 0.08419985393704026988 0.00000012187392564580 
0.00000000000000000000 0.07285456039398530148 0.00000116486607566041 
-0.00000000000000012245 0.06191549826090466530 0.00000573774169188891 
0.00000000000000002721 0.05137762797494929701 0.00001954216666287555 
-0.00000000000000001361 0.04123535276967924684 0.00005259231528562221 
-0.00000000000000002721 0.03148258489929724874 0.00012018945969114662 
0.00000000000000000000 0.02211280809699561756 0.00024357067071014048 
-0.00000000000000012245 0.01311913624332389575 0.00045020380855539732 
-0.00000000000000008163 0.00449436825107134633 0.00077373876312692770 
0.00000000000000000000 -0.00376896079972859760 0.00125364910401211025 
-0.00000000000000009524 -0.01167853221923151850 0.00193461237326927578 
-0.00000000000000005442 -0.01924219987947059854 0.00286568392406823767 
-0.00000000000000005442 -0.02646794990430020866 0.00409932060636964551 
-0.00000000000000004082 -0.03336386376647168528 0.00569030837828428133 
-0.00000000000000002721 -0.03993808466813236757 0.00769464334335404326 
-0.00000000000000010885 -0.04619878707077890168 0.01016840973502387661 
-0.00000000000000009524 -0.05215414923258612084 0.01316669169910355056 
0.00000000000000001361 -0.05781232860487537512 0.01674254887748271789 
-0.00000000000000008163 -0.06318143993513951340 0.02094607913383828360 
-0.00000000000000010204 -0.06826953592128677528 0.02582358552829277024 
-0.00000000000000006123 -0.07308459026049324292 0.03141685899609600319 
-0.00000000000000004762 -0.07763448293605865191 0.03776258319999388491 
-0.00000000000000005442 -0.08192698758684881233 0.04489186374084416786 
-0.00000000000000011565 -0.08596976080608320636 0.05282988032323840399 
-0.00000000000000010885 -0.08977033321931837673 0.06159565755362177847 
-0.00000000000000004762 -0.09333610219531444929 0.07120194775170508861 
-0.00000000000000012925 -0.09667432604797150664 0.08165521742524692317 
-0.00000000000000006123 -0.09979211959256586995 0.09295572783136708817 
-0.00000000000000010204 -0.10269645092501336614 0.10509769926034459586 
-0.00000000000000006123 -0.10539413929873386877 0.11806954826713376983 
0.00000000000000011565 -0.10789185397983079573 0.13185418698102763235 
-0.00000000000000004762 -0.11019611396762842015 0.14642937378853035368 
-0.00000000000000013606 -0.11231328847408114657 0.16176810505678651531 
-0.00000000000000001361 -0.11424959806211355817 0.17783903809837256493 
0.00000000000000002721 -0.11601111634950921070 0.19460693623167291122 
0.00000000000000000000 -0.11760377219149863171 0.21203312752859601598 
-0.00000000000000004082 -0.11903335226165127902 0.23007596963219462127 
-0.00000000000000004762 -0.12030550395702201139 0.24869131384486567460 
-0.00000000000000000680 -0.12142573855969870933 0.26783296251156823997 
0.00000000000000000680 -0.12239943459291952044 0.28745311453433358695 
-0.00000000000000009524 -0.12323184131575466715 0.30750279464023677622 
-0.00000000000000006123 -0.12392921541047537126 0.32793226277409864844 
-0.00000000000000012245 -0.12449563752411749173 0.34869140069145060368 
-0.00000000000000004082 -0.12493570354112884524 0.36973007348102854275 
-0.00000000000000001361 -0.12525418576298602558 0.39099846434563462205 
0.00000000000000004082 -0.12545574498950101683 0.41244738151369764179 
-0.00000000000000002721 -0.12554493397552921041 0.43402853664074475537 
-0.00000000000000006803 -0.12552620077666593046 0.45569479449091881973 
-0.00000000000000013606 -0.12540389196563744845 0.47740039406518641751 
0.00000000000000000000 -0.12518225570457416906 0.49910114166722946427 
-0.00000000000000004082 -0.12486544466160422184 0.52075457667302083031 
0.00000000000000000000 -0.12445751876315976070 0.54232011099888222105 
-0.00000000000000002721 -0.12396244777610743171 0.56375914344887856355 
0.00000000000000000000 -0.12338411371627065749 0.58503515026922980891 
-0.00000000000000001361 -0.12272631308213219348 0.60611375334867900744 
0.00000000000000001361 -0.12199275891448971287 0.62696276758299274157 
0.00000000000000005442 -0.12118708268459865707 0.64755222897252073810 
-0.00000000000000004082 -0.12031254786187493833 0.66785440504738036172 
-0.00000000000000006803 -0.11937181173462314832 0.68784378921857558531 
-0.00000000000000021769 -0.11836945245262225912 0.70749707984241028136 
0.00000000000000005442 -0.11730878666620413175 0.72679308328293068531 
-0.00000000000000001361 -0.11619305672452354128 0.74571220705381668914 
0.00000000000000019048 -0.11502543165068042363 0.76423538077031871740 
-0.00000000000000013606 -0.11380900799637924670 0.78234270893572344097 
-0.00000000000000009524 -0.11254681058600127241 0.80001215166919337207 
0.00000000000000005442 -0.11124179316020504915 0.81721841641668591105 
-0.00000000000000005442 -0.10989683892930474096 0.83393215908831030969 
-0.00000000000000002721 -0.10851476104670122746 0.85011953307313892214 
-0.00000000000000001361 -0.10709830301257988738 0.86574208351208492562 
-0.00000000000000004082 -0.10565013901793575413 0.88075695751260674182 
0.00000000000000004082 -0.10417287423876962771 0.89511738504794258198 
-0.00000000000000008163 -0.10266904509000907009 0.90877337724068507629 
-0.00000000000000012245 -0.10114111944836375045 0.92167258634636373138 
0.00000000000000001361 -0.09959149685293605669 0.93376127328862712496 
-0.00000000000000010885 -0.09802250869197301486 0.94498533271862827920 
-0.00000000000000021769 -0.09643641838367751629 0.95529133126648213548 
-0.00000000000000005442 -0.09483542155850940847 0.96462752837596388300 
-0.00000000000000001361 -0.09322164624988471537 0.97294500538189465644 
0.00000000000000005442 -0.09159715309966190433 0.98019924710074701757 
-0.00000000000000002721 -0.08996393558425440362 0.98635209307766558151 
0.00000000000000000000 -0.08832392026668028917 0.99137370544099212566 
-0.00000000000000008163 -0.08667896707929741151 0.99524429908125322530 
-0.00000000000000005442 -0.08503086964145224746 0.99795548663965116809 
-0.00000000000000010885 -0.08338135561572423970 0.99951116839087539301 
-0.00000000000000001361 -0.08173208710593195259 0.99992795184957150578 
-0.00000000000000001361 -0.08008466109955805767 0.99923512306592499055 
0.00000000000000012245 -0.07844060995675997128 0.99747421531280222595 
0.00000000000000004082 -0.07680140194765257278 0.99469823456180517240 
0.00000000000000000000 -0.07516844183910766086 0.99097060745763365652 
0.00000000000000010885 -0.07354307153186730173 0.98636391851955951271 
-0.00000000000000005442 -0.07192657074837278952 0.98095850065360468140 
-0.00000000000000010204 -0.07032015777131547796 0.97484093800363247340 
0.00000000000000004762 -0.06872499023256166406 0.96810253365793363933 
0.00000000000000000680 -0.06714216595176199232 0.96083778747377024398 
0.00000000000000007483 -0.06557272382364888463 0.95314292180867321580 
-0.00000000000000007483 -0.06401764475274135391 0.94511448562671973583 
-0.00000000000000005442 -0.06247785263391218702 0.93684806053578506546 
0.00000000000000012245 -0.06095421537704285436 0.92843708597247465164 
0.00000000000000000680 -0.05944754597377865241 0.91997181508055880794 
0.00000000000000004082 -0.05795860360421552226 0.91153840786991624512 
0.00000000000000004762 -0.05648809478117943622 0.90321816400187737717 
0.00000000000000004762 -0.05503667452963183909 0.89508689400191632224 
0.00000000000000005442 -0.05360494759861117453 0.88721442481179957351 
0.00000000000000002721 -0.05219346970302175814 0.87966423330848619866 
-0.00000000000000006123 -0.05080274879251910763 0.87249319967741456594 
0.00000000000000005442 -0.04943324634466818301 0.86575147127132923153 
-0.00000000000000000680 -0.04808537867953005529 0.85948242675036123916 
-0.00000000000000004762 -0.04675951829279765409 0.85372272982435659650 
-0.00000000000000002041 -0.04545599520461088283 0.84850246174737875560 
0.00000000000000010885 -0.04417509832117953728 0.84384532179396287699 
0.00000000000000012245 -0.04291707680637929512 0.83976888522887327415 
-0.00000000000000004082 -0.04168214146051461150 0.83628490872352312380 
-0.00000000000000007483 -0.04047046610349955276 0.83339967373461987243 
0.00000000000000012925 -0.03928218895976118979 0.83111435901054664388 
0.00000000000000003401 -0.03811741404224744389 0.82942543409981073221 
-0.00000000000000012925 -0.03697621253299528815 0.82832506647907777619 
0.00000000000000009524 -0.03585862415780396301 0.82780153567555947447 
0.00000000000000000000 -0.03476465855264920801 0.82783964851296554244 
0.00000000000000004082 -0.03369570499034327954 0.82842115034841090626 
0.00000000000000000000 -0.03265023024482081176 0.82952512787888654788 
-0.00000000000000008163 -0.03162816597319161732 0.83112839977207186859 
0.00000000000000010204 -0.03062941886585885884 0.83320589201140549118 
-0.00000000000000005442 -0.02965387195035854712 0.83573099543540452228 
-0.00000000000000003401 -0.02870138587451943543 0.83867590349369358638 
0.00000000000000017007 -0.02777180016737688939 0.84201192873592856092 
0.00000000000000000680 -0.02686493447638003962 0.84570979699465409496 
0.00000000000000004082 -0.02598058977955573778 0.84973991861991615693 
0.00000000000000006123 -0.02511854957140636363 0.85407263647361075787 
0.00000000000000000680 -0.02427858102143502089 0.85867845069711423722 
0.00000000000000000000 -0.02346043610430224163 0.86352822052907241002 
0.00000000000000000000 -0.02266385270073518338 0.86859334367403007171 
-0.00000000000000003401 -0.02188855566841495584 0.87384591390968269220 
0.00000000000000009524 -0.02113425788217658530 0.87925885777389256592 
0.00000000000000004082 -0.02040066124295891042 0.88480605129519496188 
0.00000000000000003401 -0.01968688462410658757 0.89046241782527757458 
0.00000000000000002041 -0.01899238043543090976 0.89620400810171241268 
-0.00000000000000004082 -0.01831770352174710154 0.90200806105478170682 
0.00000000000000000000 -0.01766251721858544399 0.90785294332282640006 
-0.00000000000000004082 -0.01702647866277597760 0.91371760103930022012 
-0.00000000000000008844 -0.01640923959714489858 0.91958047524313102361 
0.00000000000000008844 -0.01581044714309809418 0.92541821436032223325 
-0.00000000000000004082 -0.01522974454120883288 0.93120445582906441473 
0.00000000000000005442 -0.01466677185999677550 0.93690884061267876159 
-0.00000000000000008163 -0.01412116667314763409 0.94249634522217073940 
0.00000000000000000000 -0.01359256470548984505 0.94792696011104105036 
0.00000000000000005442 -0.01308060044809209593 0.95315570547075167962 
-0.00000000000000010885 -0.01258490774291038360 0.95813295119902530672 
-0.00000000000000005442 -0.01210512033744935018 0.96280499368204441879 
0.00000000000000000680 -0.01164087240995815946 0.96711483530234287898 
0.00000000000000004082 -0.01119179906571238919 0.97100311112633741484 
-0.00000000000000000680 -0.01075753680497889761 0.97440910938850855416 
-0.00000000000000003401 -0.01033772396328615749 0.97727183690896146651 
-0.00000000000000005442 -0.00993200112465627769 0.97953108650270204194 
0.00000000000000003401 -0.00954001150848165884 0.98112847005373127196 
-0.00000000000000006803 -0.00916140133074634308 0.98200838772091370021 
-0.00000000000000010204 -0.00879582014031844196 0.98211891301575049429 
0.00000000000000001361 -0.00844292113105057571 0.98141268025443828549 
-0.00000000000000002041 -0.00810236143044250519 0.97984813090439326633 
0.00000000000000006803 -0.00777380236562623481 0.97739116249495860966 
-0.00000000000000010204 -0.00745690970744755655 0.97401684589354453614 
0.00000000000000006803 -0.00715135389341711118 0.96971094164683868666 
0.00000000000000001361 -0.00685681023030970584 0.96447105726281434634 
0.00000000000000003401 -0.00657295907719265739 0.95830736865299548377 
-0.00000000000000006123 -0.00629948600966011556 0.95124288636578746559 
-0.00000000000000002721 -0.00603608196604465876 0.94331328622258303618 
0.00000000000000004082 -0.00578244337637977019 0.93456634893092616068 
0.00000000000000002721 -0.00553827227487043491 0.92506106771023910440 
-0.00000000000000002041 -0.00530327639662679651 0.91486648971021522492 
-0.00000000000000008844 -0.00507716925940379996 0.90406035821746866255 
0.00000000000000004082 -0.00485967023107672456 0.89272762003528283170 
-0.00000000000000010885 -0.00465050458357425985 0.88095885729551026699 
-0.00000000000000008163 -0.00444940353397152346 0.86884869631716510341 
-0.00000000000000002041 -0.00425610427343525288 0.85649423870788599089 
-0.00000000000000007483 -0.00407034998469625511 0.84399355225731520491 
0.00000000000000006803 -0.00389188984870732484 0.83144425168352620314 
-0.00000000000000004082 -0.00372047904112855852 0.81894219223017350462 
-0.00000000000000020409 -0.00355587871926700853 0.80658029264366559730 
0.00000000000000003401 -0.00339785600007260890 0.79444749828487171150 
-0.00000000000000008844 -0.00324618392978390843 0.78262789009320976596 
-0.00000000000000012925 -0.00310064144578908827 0.77119994082742526764 
-0.00000000000000003401 -0.00296101333125620581 0.76023591643372312454 
0.00000000000000002041 -0.00282709016306232231 0.74980141749577944310 
0.00000000000000007823 -0.00269866825353503453 0.73995505344777390277 
-0.00000000000000007143 -0.00257554958650023022 0.73074824051919140544 
-0.00000000000000004422 -0.00245754174811002677 0.72222511316396931225 
0.00000000000000006803 -0.00234445785290638949 0.71442253794172094761 
-0.00000000000000000680 -0.00223611646555646210 0.70737021840241653958 
0.00000000000000002721 -0.00213234151867848888 0.70109087941864212112 
0.00000000000000006463 -0.00203296222715537538 0.69560051955642743238 
0.00000000000000003401 -0.00193781299931965623 0.69090872042666162667 
0.00000000000000001361 -0.00184673334536896035 0.68701900246946612238 
0.00000000000000001701 -0.00175956778336072879 0.68392921725409339118 
-0.00000000000000000680 -0.00167616574311171720 0.68163196709247730887 
0.00000000000000002041 -0.00159638146831340131 0.68011504353596641259 
0.00000000000000002721 -0.00152036207017236091 0.67936187712695594865 
0.00000000000000002551 -0.00144878716481683075 0.67935199158928072372 
0.00000000000000001020 -0.00138034313248827059 0.68006145644622872926 
0.00000000000000011735 -0.00131490663169448905 0.68146333283922744251 
-0.00000000000000003572 -0.00125235841422406853 0.68352810807290564910 
0.00000000000000002721 -0.00119258323260507571 0.68622411512525560706 
-0.00000000000000010715 -0.00113546974704286318 0.68951793402919958620 
-0.00000000000000003231 -0.00108091043205043669 0.69337477265003322202 
-0.00000000000000005272 -0.00102880148296115564 0.69775882494976138037 
-0.00000000000000008334 -0.00097904272251276973 0.70263360534325125517 
0.00000000000000003231 -0.00093153750766620537 0.70796225821261316025 
0.00000000000000004337 -0.00088619263682096798 0.71370784205632287200 
0.00000000000000009354 -0.00084291825757153616 0.71983358811008779643 
0.00000000000000004252 -0.00080162777513832306 0.72630313358957410141 
-0.00000000000000000170 -0.00076223776160029414 0.73308072997361395373 
-0.00000000000000005017 -0.00072466786603801010 0.74013142697324652008 
-0.00000000000000012033 -0.00068884072569583776 0.74742123302011076458 
-0.00000000000000002083 -0.00065439372524104188 0.75491725326044556432 
-0.00000000000000012968 -0.00062043917224136763 0.76258780616149146603 
-0.00000000000000000043 -0.00058808985118304069 0.77040251992858499452 
0.00000000000000003614 -0.00055727532316770612 0.77833240999677189009 
-0.00000000000000007791 -0.00052792792568240017 0.78634993810743381015 
-0.00000000000000008525 -0.00049998268113170220 0.79442899203124950347 
-0.00000000000000002477 -0.00047337720734699600 0.80254445184476119746 
-0.00000000000000008674 -0.00044805163009332803 0.81067118036215579657 
0.00000000000000008461 -0.00042394849759112320 0.81878274165890985170 
0.00000000000000001871 -0.00040101269706498767 0.82685014374353671407 
0.00000000000000001446 -0.00037919137332402628 0.83484078840203168603 
-0.00000000000000000935 -0.00035843384937860501 0.84271772667114153155 
-0.00000000000000007228 -0.00033869154908990003 0.85043925843068657322 
-0.00000000000000003274 -0.00031991792184640490 0.85795887355798094998 
-0.00000000000000000553 -0.00030206836925933736 0.86522550541066445273 
-0.00000000000000002934 -0.00028510017386282739 0.87218405148049249487 
-0.00000000000000002679 -0.00026897242980534623 0.87877610803232575343 
-0.00000000000000008163 -0.00025364597551074389 0.88494086317051912083 
0.00000000000000011310 -0.00023908332829259779 0.89061609432066668468 
-0.00000000000000002636 -0.00022524862089375183 0.89573922024335628223 
0.00000000000000000340 -0.00021210753992977882 0.90024836356896176248 
-0.00000000000000000340 -0.00019962726620632285 0.90408342027155852438 
-0.00000000000000000255 -0.00018777641688403300 0.90718738712159385784 
0.00000000000000000170 -0.00017652498945830509 0.90950818521028964359 
-0.00000000000000010885 -0.00016584430752450904 0.91100071385950287528 
-0.00000000000000002976 -0.00015570696829307585 0.91162880593217299197 
0.00000000000000001616 -0.00014608679182439305 0.91136687516704317780 
-0.00000000000000006633 -0.00013695877194438440 0.91020114078217939646 
0.00000000000000007143 -0.00012829902881042346 0.90813038261374112725 
-0.00000000000000009184 -0.00012008476308587522 0.90516622744369534814 
0.00000000000000004337 -0.00011229421169171631 0.90133299872473304770 
-0.00000000000000007993 -0.00010490660509586831 0.89666718147752422219 
-0.00000000000000010629 -0.00009790212610372269 0.89121656477416966169 
-0.00000000000000004167 -0.00009126187011277744 0.88503912834973230694 
0.00000000000000003657 -0.00008496780679271769 0.87820173939545220776 
-0.00000000000000004847 -0.00007900274315727674 0.87077872195306216252 
-0.00000000000000005527 -0.00007335028798479115 0.86285035567753476382 
-0.00000000000000009694 -0.00006799481755705008 0.85450135391903458970 
-0.00000000000000002296 -0.00006292144267351582 0.84581936372794641610 
-0.00000000000000000595 -0.00005811597690932159 0.83689352297028929417 
-0.00000000000000007568 -0.00005356490607750991 0.82781310257875517777 
0.00000000000000006208 -0.00004925535886080353 0.81866625527518221972 
-0.00000000000000004847 -0.00004517507857849821 0.80953888601993695406 
-0.00000000000000002976 -0.00004131239605201908 0.80051365404704033502 
-0.00000000000000006463 -0.00003765620353551600 0.79166911165942888129 
-0.00000000000000001616 -0.00003419592967838121 0.78307898098146144772 
0.00000000000000000170 -0.00003092151548443382 0.77481156656701521968 
-0.00000000000000007993 -0.00002782339123736894 0.76692929909670670696 
-0.00000000000000001105 -0.00002489245435985170 0.75948840331251865621 
-0.00000000000000000850 -0.00002212004817286455 0.75253868177260097028 
-0.00000000000000004252 -0.00001949794152827644 0.74612340490157158523 
-0.00000000000000005612 -0.00001701830928149721 0.74027929710115070172 
0.00000000000000004337 -0.00001467371357585618 0.73503660831365813522 
-0.00000000000000008163 -0.00001245708591046609 0.73041926034161408499 
0.00000000000000002296 -0.00001036170996401757 0.72644505736956321851 
-0.00000000000000009439 -0.00000838120514450336 0.72312595046320582437 
-0.00000000000000014541 -0.00000650951084282775 0.72046834629481193435 
0.00000000000000000255 -0.00000474087136052847 0.71847345092651482279 
0.00000000000000002381 -0.00000306982148734183 0.71713764014288439164 
0.00000000000000016327 -0.00000149117270627382 0.71645284853426471905 
-0.00000000000000013861 -0.00000000000000002041 0.71640697026985367124 
-0.00000000000000010885 0.00000000000000010204 0.71698426524549518923 
-0.00000000000000003231 0.00000000000000000680 0.71816576503011297916 
-0.00000000000000011395 0.00000000000000006803 0.71992967375423522203 
-0.00000000000000008929 -0.00000000000000004762 0.72225175977445010833 
-0.00000000000000007228 0.00000000000000002721 0.72510573460159311043 
-0.00000000000000001531 -0.00000000000000004762 0.72846361619272137489 
-0.00000000000000001531 -0.00000000000000008844 0.73229607427399079356 
-0.00000000000000004422 0.00000000000000002041 0.73657275588134940580 
-0.00000000000000007015 0.00000000000000008163 0.74126258977772452319 
-0.00000000000000003954 -0.00000000000000004082 0.74633406882924202552 
-0.00000000000000008504 0.00000000000000012245 0.75175550980000627188 
-0.00000000000000011182 0.00000000000000002721 0.75749529035668794474 
-0.00000000000000008419 -0.00000000000000012245 0.76352206336269490272 
0.00000000000000006888 -0.00000000000000009524 0.76980494878951366555 
-0.00000000000000005527 -0.00000000000000008844 0.77631370378258124365 
-0.00000000000000011735 0.00000000000000003401 0.78301887159358563029 
0.00000000000000002849 -0.00000000000000006803 0.78989191023338056752 
0.00000000000000004549 -0.00000000000000008844 0.79690530181254959352 
-0.00000000000000005017 0.00000000000000012925 0.80403264362304538437 
-0.00000000000000007696 0.00000000000000006123 0.81124872205603992814 
0.00000000000000001531 0.00000000000000000000 0.81852955380307401700 
0.00000000000000003061 0.00000000000000007483 0.82585217672044175519 
0.00000000000000006718 -0.00000000000000001361 0.83319385841081505806 
-0.00000000000000001743 0.00000000000000008163 0.84053089075784048756 
-0.00000000000000008163 0.00000000000000003401 0.84783730521981159889 
-0.00000000000000002764 0.00000000000000002721 0.85508373402310733358 
-0.00000000000000006463 0.00000000000000004082 0.86223654612828248833 
-0.00000000000000016667 -0.00000000000000003401 0.86925731779837134283 
-0.00000000000000006123 -0.00000000000000005442 0.87610264959839323495 
0.00000000000000003784 0.00000000000000003401 0.88272430972139448446 
-0.00000000000000004507 0.00000000000000008163 0.88906966370208517780 
-0.00000000000000005719 0.00000000000000007143 0.89508233970124129186 
-0.00000000000000013138 0.00000000000000008844 0.90070307415139305718 
-0.00000000000000003316 0.00000000000000011225 0.90587068272084003695 
-0.00000000000000004783 0.00000000000000007823 0.91052310479295761603 
-0.00000000000000000808 0.00000000000000003742 0.91459847483902079190 
-0.00000000000000003975 -0.00000000000000003061 0.91803618033591249947 
0.00000000000000005804 0.00000000000000012245 0.92077787261988375267 
-0.00000000000000003423 -0.00000000000000007483 0.92276840382536995389 
0.00000000000000003274 0.00000000000000000340 0.92395666952294297491 
0.00000000000000005421 0.00000000000000008163 0.92429634263843640785 
0.00000000000000001127 0.00000000000000001361 0.92374648958294558465 
-0.00000000000000000850 0.00000000000000007143 0.92227206418842477831 
0.00000000000000001531 0.00000000000000003401 0.91984427900849441428 
-0.00000000000000000149 -0.00000000000000007143 0.91644085682326648090 
-0.00000000000000000617 0.00000000000000005782 0.91204616781707281703 
0.00000000000000002190 -0.00000000000000004082 0.90665125992981354663 
-0.00000000000000000404 0.00000000000000006123 0.90025379137547856256 
0.00000000000000004167 0.00000000000000007823 0.89285787533855509590 
0.00000000000000014116 0.00000000000000000000 0.88447384746438562075 
-0.00000000000000010353 0.00000000000000010885 0.87511796701538746568 
0.00000000000000003423 0.00000000000000005782 0.86481206253031694953 
-0.00000000000000005687 0.00000000000000002721 0.85358313255302642464 
0.00000000000000008514 0.00000000000000010204 0.84146291153999785983 
0.00000000000000005283 -0.00000000000000001701 0.82848741045662754878 
0.00000000000000008716 0.00000000000000000000 0.81469644086967241137 
0.00000000000000003083 -0.00000000000000001361 0.80013313057119384020 
-0.00000000000000002540 0.00000000000000002041 0.78484343795643396469 
-0.00000000000000005145 -0.00000000000000002041 0.76887567154848268647 
-0.00000000000000003997 0.00000000000000002721 0.75228002023611562077 
-0.00000000000000007228 -0.00000000000000001701 0.73510809898389639638 
0.00000000000000000978 -0.00000000000000000340 0.71741251399805838762 
0.00000000000000010385 -0.00000000000000002721 0.69924645059743795183 
-0.00000000000000006154 0.00000000000000001701 0.68066328635277295600 
-0.00000000000000001329 -0.00000000000000005102 0.66171623142474089718 
-0.00000000000000001456 -0.00000000000000005442 0.64245799745401965808 
-0.00000000000000009641 0.00000000000000006123 0.62294049583665622727 
-0.00000000000000005676 0.00000000000000001361 0.60321456575506715581 
-0.00000000000000002190 -0.00000000000000000340 0.58332973192798343032 
0.00000000000000006356 0.00000000000000003742 0.56333399168964792825 
0.00000000000000007340 0.00000000000000003061 0.54327363070702239245 
-0.00000000000000007876 -0.00000000000000004422 0.52319306639065554787 
-0.00000000000000009604 0.00000000000000002041 0.50313471784685148691 
-0.00000000000000007095 -0.00000000000000012245 0.48313890105231466210 
-0.00000000000000015232 0.00000000000000003742 0.46324374780392407747 
-0.00000000000000002891 0.00000000000000004082 0.44348514690201085164 
0.00000000000000004156 -0.00000000000000006803 0.42389699411492998138 
0.00000000000000013308 -0.00000000000000007483 0.40451141271523638476 
0.00000000000000005384 -0.00000000000000007823 0.38535622597094432162 
-0.00000000000000001733 0.00000000000000001020 0.36645815457854119535 
0.00000000000000001068 -0.00000000000000007483 0.34784165846285047818 
-0.00000000000000000842 -0.00000000000000000340 0.32952897715508211451 
-0.00000000000000015963 0.00000000000000005102 0.31154018112878373303 
-0.00000000000000007247 -0.00000000000000009864 0.29389323262947519844 
-0.00000000000000001066 -0.00000000000000003742 0.27660405460453563187 
0.00000000000000010970 0.00000000000000004422 0.25968660641666729827 
0.00000000000000002176 -0.00000000000000013266 0.24315296510532463659 
0.00000000000000006160 0.00000000000000005102 0.22701341104433855889 
-0.00000000000000011323 -0.00000000000000004082 0.21127651692930479732 
-0.00000000000000001762 0.00000000000000007823 0.19594923911397743588 
-0.00000000000000003866 0.00000000000000008504 0.18103701039995742650 
-0.00000000000000011703 -0.00000000000000006123 0.16654383346754661477 
-0.00000000000000013414 0.00000000000000001701 0.15247237421708081939 
-0.00000000000000000258 0.00000000000000000000 0.13882405436875980276 
0.00000000000000004779 -0.00000000000000001701 0.12559914274454400673 
-0.00000000000000007091 0.00000000000000013606 0.11279684472768410075 
0.00000000002093851413 0.00000000000000002381 0.10041538946366512786 
0.00000001685718157009 0.00000000000000005612 0.08845211443056230638 
0.00000033636147577714 0.00000000000000001531 0.07690354706691150677 
0.00000233439625998573 0.00000000000000006803 0.06576548320113835555 
0.00000969939670452368 -0.00000000000000004762 0.05503306207834550434 
0.00002972290189474155 0.00000000000000013946 0.04470083782787097337 
0.00007443404751294661 0.00000000000000000510 0.03476284725857168439 
0.00016145024454880527 -0.00000000000000006463 0.02521267390834880731 
0.00031448526866511043 0.00000000000000006803 0.01604350831016869428 
0.00056350393701959205 -0.00000000000000001361 0.00724820446885147528 
0.00094454443065481591 0.00000000000000010034 -0.00118066742859166481 
0.00149924909969314938 0.00000000000000007993 -0.00925077202114951182 
0.00227415540947197969 -0.00000000000000003912 -0.01696996343064137783 
0.00331980302042611834 0.00000000000000007143 -0.02434624347829840441 
0.00468971276977912886 -0.00000000000000001361 -0.03138772335601788810 
0.00643929002533589253 0.00000000000000007993 -0.03810258863361133674 
0.00862469964347789032 0.00000000000000007653 -0.04449906747217267922 
0.01130175343474914586 0.00000000000000004592 -0.05058540190472378406 
0.01452484424677598189 0.00000000000000001191 -0.05636982203836071736 
0.01834595396460182021 -0.00000000000000000340 -0.06186052302704195954 
0.02281375621386173141 0.00000000000000004932 -0.06706564466077238884 
0.02797282853712050252 0.00000000000000014116 -0.07199325341506719600 
0.03386298342143335971 0.00000000000000001701 -0.07665132680406837318 
0.04051872284819112158 0.00000000000000008504 -0.08104773988140046015 
0.04796881703215202797 0.00000000000000001701 -0.08519025373462907336 
0.05623600470075174745 -0.00000000000000004507 -0.08908650582190334732 
0.06533680960079028821 0.00000000000000009184 -0.09274400200290174034 
0.07528146585648938516 0.00000000000000010204 -0.09617011012043037710 
0.08607394328135115069 0.00000000000000005697 -0.09937205499384087204 
0.09771206270291739326 -0.00000000000000004507 -0.10235691469075063054 
0.11018769073038453543 0.00000000000000004592 -0.10513161794924433257 
0.12348700311773774807 0.00000000000000000000 -0.10770294262876407843 
0.13759080589057162691 0.00000000000000007058 -0.11007751507413189584 
0.15247490365836935400 0.00000000000000002466 -0.11226181028356999048 
0.16811050497606810916 0.00000000000000011565 -0.11426215277808851600 
0.18446465520480453959 -0.00000000000000003997 -0.11608471807616269067 
0.20150068801282430830 0.00000000000000001616 -0.11773553468416229906 
0.21917868741979598668 0.00000000000000008419 -0.11922048651947635134 
0.23745595309237199633 0.00000000000000005017 -0.12054531568966332655 
0.25628746242156663637 -0.00000000000000002211 -0.12171562555721292254 
0.27562632373341583447 0.00000000000000010374 -0.12273688402559074229 
0.29542421578734001653 -0.00000000000000006293 -0.12361583535890552366 
0.31563180948893970745 0.00000000000000011480 -0.12435620026201152366 
0.33619916847595077147 -0.00000000000000002466 -0.12496306555595740329 
0.35707612592069237767 -0.00000000000000012585 -0.12544139665897025004 
0.37821263552474265746 0.00000000000000003572 -0.12579604122335660832 
0.39955909525886978972 -0.00000000000000007568 -0.12603173272324080800 
0.42106664292207907074 -0.00000000000000000425 -0.12615309396519766572 
0.44268742305800495851 0.00000000000000006080 -0.12616464049798739588 
0.46437482517580236374 -0.00000000000000002211 -0.12607078390148979130 
0.48608369357803671296 0.00000000000000004975 -0.12587583493854445638 
0.50777050940231771570 -0.00000000000000005272 -0.12558400655673784829 
0.52939354573955232919 0.00000000000000005825 -0.12519941673026394047 
0.55091299690297301783 0.00000000000000017432 -0.12472609113479238285 
0.57229108309202880722 0.00000000000000000213 -0.12416796565084116388 
0.59349213182739146699 -0.00000000000000002764 -0.12352888869347349032 
0.61448263763135102522 0.00000000000000009141 -0.12281262336821263670 
0.63523130149530715460 0.00000000000000002594 -0.12202227642398880136 
0.65570905171636229003 -0.00000000000000002083 -0.12116121568727748758 
0.67588904770154012436 0.00000000000000002849 -0.12023383969923752412 
0.69574666833334286586 0.00000000000000002041 -0.11924358438477802857 
0.71525947925987864995 -0.00000000000000001573 -0.11819380885845756635 
0.73440702395281431958 0.00000000000000007334 -0.11708779661444579379 
0.75317007138218128315 0.00000000000000009492 -0.11592875658295814789 
0.77152938650716373914 0.00000000000000007579 -0.11471982406240895103 
0.78946436563551192211 0.00000000000000005953 -0.11346406153694384156 
0.80695178494350128240 0.00000000000000007924 -0.11216445938932392834 
0.82396480798802251844 -0.00000000000000003076 -0.11082393651930165512 
0.84047232405089533636 0.00000000000000002190 -0.10944534087770632635 
0.85643863734540948141 0.00000000000000012915 -0.10803144992643215483 
0.87182349228359234949 0.00000000000000012054 -0.10658497103440696396 
0.88658239799625127020 0.00000000000000000276 -0.10510854181943493635 
0.90066720282144607790 0.00000000000000001850 -0.10360473044554370514 
0.91402686393594878567 -0.00000000000000006994 -0.10207603588514918558 
0.92660835667218022227 -0.00000000000000000021 -0.10052488815498690500 
0.93835767077354292898 0.00000000000000007908 -0.09895364853433451235 
0.94922084569710674096 -0.00000000000000000489 -0.09736460977361255376 
0.95914500334513652646 0.00000000000000009269 -0.09575999630095856363 
0.96807937719625725137 -0.00000000000000002636 -0.09414196443387587432 
0.97597659141761572421 0.00000000000000003486 -0.09251260260253235668 
0.98279443046397241268 0.00000000000000011522 -0.09087393159075422833 
0.98849783568515758869 0.00000000000000008206 -0.08922790480022053938 
0.99306080191426082671 0.00000000000000010672 -0.08757640854282293386 
0.99646796634534273718 -0.00000000000000000765 -0.08592126236561566099 
0.99871577635356090230 0.00000000000000008078 -0.08426421941224798706 
0.99981319066351370672 0.00000000000000009779 -0.08260696682424782666 
0.99978191540577765473 0.00000000000000002211 -0.08095112618501140722 
0.99865620792448805965 0.00000000000000000595 -0.07929825400886021669 
0.99648230055837816455 0.00000000000000005272 -0.07764984227704467556 
0.99331750707482535656 0.00000000000000002721 -0.07600731902211427249 
0.98922907840869600538 0.00000000000000002211 -0.07437204896163343570 
0.98429287373869256417 0.00000000000000001871 -0.07274533418180997857 
0.97859190919241378914 0.00000000000000012415 -0.07112841487119987705 
0.97221484073366448708 -0.00000000000000003827 -0.06952247010429335461 
0.96525443090296325632 0.00000000000000005017 -0.06792861867443350521 
0.95780604168673721954 0.00000000000000007738 -0.06634791997520424200 
0.94996618834079593618 0.00000000000000012585 -0.06478137492912847129 
0.94183118181141811665 0.00000000000000003316 -0.06322992696224682962 
0.93349588069888900232 0.00000000000000000085 -0.06169446302290685497 
0.92505256762818999228 0.00000000000000001531 -0.06017581464287082710 
0.91658995950264809949 0.00000000000000006973 -0.05867475903865679993 
0.90819235644568130361 0.00000000000000016582 -0.05719202025085763641 
0.89993893027692384301 0.00000000000000012245 -0.05572827031903362927 
0.89190315009211695862 0.00000000000000007568 -0.05428413048965141652 
0.88415233987565400309 0.00000000000000001871 -0.05286017245443669355 
0.87674736101523365051 0.00000000000000003572 -0.05145691961642478301 
0.86974241104917904277 0.00000000000000009694 -0.05007484838093380353 
0.86318492889631515119 0.00000000000000004337 -0.04871438946863464875 
0.85711559613421806070 0.00000000000000003657 -0.04737592924787138726 
0.85156842354503803350 0.00000000000000010715 -0.04605981108336999752 
0.84657091208340018440 0.00000000000000012925 -0.04476633669848200520 
0.84214427758706111860 -0.00000000000000004337 -0.04349576754812799206 
0.83830372890178861400 0.00000000000000005612 -0.04224832619963792002 
0.83505878958603718676 0.00000000000000006293 -0.04102419771873172527 
0.83241365396216771000 0.00000000000000008674 -0.03982353105793860759 
