5.027539 -4.531389 -1.225933 -1.137317 -4.265540 2.254377 5.557453 5.643689 -1.891572 -3.091999 -2.419726 -2.241408 -6.829341 -3.635112 -0.187035 0.438876 0.965830 4.893044 4.549151 1.083874 7.427874 2.711425 2.477504 5.045156 1.666750 1.500031 -4.926618 2.747375 -4.982347 -10.201908 3.502131 -0.284856 -3.063793 3.657700 -1.860148 -3.868062 3.017760 -1.172380 4.536791 -2.956613 -4.527599 -0.266187 -2.985984 -0.060727 8.307490 0.715373 1.536452 -0.582683 -2.513560 0.365998 -1.031146 10.959042 -4.388534 -1.498091 -3.504416 4.585948 2.493260 0.723799 -5.883992 8.899386 -1.068927 -3.687075 9.235130 -2.226186 -4.403974 -4.171543 -2.847458 -3.351415 3.328824 -4.040726 3.578056 4.105054 -2.003013 -1.623951 4.796464 -6.148207 -2.414010 0.830762 0.734075 4.026772 -2.721096 -1.397033 -0.969108 -0.642861 7.887733 -4.031868 10.536659 -3.775332 -1.065925 1.859339 1.069648 2.924416 -8.000111 -2.184599 1.452940 -1.365100 -1.922121 1.286452 -1.718758 -0.898005 -3.653871 3.112843 2.023708 4.949948 0.929425 1.734569 -4.138229 -3.248744 -0.500984 4.500750 -0.286800 -5.979921 -0.060606 0.736986 13.195264 -3.593234 0.911594 1.382138 -3.808992 -0.534956 1.370432 0.229112 -9.581444 0.074512 -3.264653 0.622938 -0.363164 -3.649081 0.552051 1.150439 4.369512 -3.451082 -2.291235 4.424198 0.196408 -0.243961 -6.837498 -1.773835 1.515250 3.945376 5.511695 1.784959 -0.026207 -1.994849 -8.084911 -1.748620 -0.402879 -1.578669 -4.276483 1.572084 5.793226 -1.311755 1.842124 7.176550 -0.726586 2.844932 -7.216047 1.017960 -3.174658 0.087920 1.946939 -1.211122 -3.108476 -1.675675 2.024207 -2.693150 -2.829451 0.493809 0.739702 4.237606 -2.860554 -1.811693 1.763549 1.109721 -3.306320 0.212411 0.339386 -5.732603 -7.687838 -0.299200 1.980734 4.106456 3.309060 0.806541 2.424812 -0.654906 1.645677 -0.536429 -1.298250 8.428621 0.933834 -1.281839 -6.795570 1.280371 -0.724374 1.226052 -0.124436 7.379298 -2.093503 3.048203 -1.040955 8.220371 1.765938 4.568227 -2.644748 -3.651442 7.039350 1.360785 -3.174804 -2.877406 -1.326016 5.565323 4.206216 -0.158157 6.778558 0.196318 4.053863 -0.605744 2.500265 -2.154847 -7.757918 -0.028219 2.922125 -4.332748 9.355035 -1.657442 3.413260 6.276091 2.306643 -2.307482 -1.604865 -1.670939 -5.162748 2.124404 4.142323 0.551286 7.974599 0.995340 1.893456 1.398115 0.756052 2.482507 1.700013 -1.711793 2.688312 -0.274195 3.166928 -1.124102 2.427363 8.135963 0.606060 -5.282715 -0.127906 -3.166063 -0.302584 -4.797610 5.623138 1.679832 -3.141213 -1.560200 -3.728010 9.199332 -4.022772 3.214825 9.276260 -3.166482 1.709246 4.861190 -3.119327 -0.357826 -0.413941 -6.950641 -4.888630 -3.397898 -6.583946 -2.457384 1.080153 4.093810 -2.354807 -0.276617 6.928061 -4.213198 -0.603864 -1.328674 -1.048916 8.448480 -2.679656 -1.291318 3.072439 -3.228904 -3.527014 -0.350206 -4.192392 -0.223537 3.562553 -3.255142 1.470552 -1.488718 -7.599758 -0.188741 -4.264666 -4.108503 -3.491166 -2.033242 -4.685693 -0.007242 2.779457 1.794666 1.726854 2.022222 -4.171195 0.246063 -3.908289 5.491282 -0.142457 -2.676826 -1.224068 3.447781 5.592994 3.544447 2.660801 -0.448978 -5.549599 -4.349608 4.839448 1.886120 4.226536 1.229992 -3.015448 2.348535 -1.894501 9.531585 -4.031474 0.929549 1.779791 -0.202024 -0.261150 -0.928160 8.208485 2.597059 3.277241 0.344860 5.011328 -5.745851 -1.874778 -3.027048 0.071744 2.925243 -0.274809 1.228437 2.232406 5.691109 -2.698570 4.162685 -0.389423 -3.037152 -2.212351 1.502637 3.909545 -0.348272 0.524226 4.375420 -2.108598 1.780062 7.171693 5.204466 -5.194961 -5.858889 -7.180477 6.450411 -6.859222 -6.312862 5.137048 -3.922140 1.491496 1.079843 0.932959 -0.005420 3.634729 2.692713 2.322237 2.874139 2.538370 -4.197439 -0.089350 -0.789085 5.096967 -2.880685 -1.325060 -6.534594 -4.422139 5.304382 -0.837050 -0.965461 0.145649 -1.161085 -0.331322 2.616495 -5.579884 -1.762345 -1.302738 -4.191627 -0.065860 -0.070077 -0.069027 6.476030 -0.889224 -0.083570 0.379980 0.302699 -3.936170 5.987969 0.841950 1.141842 -7.591821 -4.998800 -4.680850 -2.158712 2.836028 -1.758925 0.431729 -0.993228 0.611810 -0.334923 -1.593994 7.174218 -1.367086 3.440969 0.457690 -1.851543 -1.856507 -5.816236 -2.576760 3.012367 2.494979 -3.820447 -4.469260 0.589838 2.707935 -2.672484 0.224427 0.402565 -1.841571 -3.960693 -3.338936 2.733137 0.870404 0.574921 1.036960 -1.173461 -0.204373 5.737593 0.135399 -0.401818 -3.093355 -5.060343 -0.984936 -5.085170 -1.780405 1.014429 -1.954022 2.478865 -0.609557 3.197403 -1.231138 2.094589 -5.423481 8.472216 -3.400580 4.030494 0.299329 0.563713 -5.723778 -1.874652 4.312085 -4.763430 3.439371 -3.696250 -4.789171 -3.733392 -0.520780 4.469415 -0.825293 0.647081 1.541995 2.486954 1.778913 -2.775963 0.373807 2.810404 2.250626 1.982589 -0.997629 -3.250401 3.757041 8.397989 -4.010502 -2.509813 2.202935 1.922021 0.980377 0.137785 6.452198 -4.277172 4.399334 -3.205810 -2.733988 -5.926589 0.907047 -3.198198 -2.945639 -1.250701 2.230487 -7.248456 -2.541484 3.977656 5.158035 10.663855 2.744422 1.233855 2.152411 -1.514263 -3.101694 1.828828 -2.699046 -1.797643 -0.030779 0.823527 0.763032 3.543071 -0.713911 -0.622423 3.228752 -0.742024 -0.508046 -6.985529 0.912387 6.309739 1.325595 -1.508321 -0.122567 1.007282 -6.130463 0.808000 2.292778 -1.869625 2.741755 -6.561041 -4.209553 -3.900656 8.614000 5.075574 4.392579 2.699323 -2.339181 -0.579359 10.497079 -3.616146 -6.973706 -1.384187 2.905548 -0.796872 -0.970206 5.756095 1.205273 2.264517 2.083668 4.948626 -9.069691 2.591355 1.222347 6.595627 -4.178582 -2.260253 -3.715897 -3.468947 -3.289496 -1.603035 5.112432 1.023094 -3.396970 -1.460952 -0.945872 4.421558 -1.335052 -1.269578 -0.312768 -2.353848 -1.366648 -5.185909 -1.543537 -2.294451 -1.814215 -4.403682 -3.047091 1.112158 -6.136182 1.464462 -2.732313 4.399717 -2.904019 4.676527 -5.648041 1.743559 -1.956885 -2.887993 0.934352 -0.132813 -12.068546 -0.136558 3.018079 -2.315318 4.662481 7.280447 -2.684713 -1.160069 5.950697 2.848184 -5.261349 2.392678 1.826639 -4.811889 -3.242078 3.283755 1.683655 -5.329445 2.980208 5.463773 -1.857971 -7.337781 -2.730399 -0.011883 5.140767 -2.709561 -1.549194 0.124199 0.805511 0.216616 5.293264 -2.631612 -1.811204 -3.675997 0.101068 2.438174 4.245493 -2.841215 1.724525 2.546117 -1.422762 1.701774 3.706107 5.902569 1.700427 -3.701793 4.039183 -3.707253 -6.864946 -0.188059 2.199513 1.625112 -4.188017 -1.651489 -1.326417 -1.422172 -2.220758 3.619706 -6.721858 2.053153 -0.947082 2.317357 -1.761018 -1.582087 2.038970 -2.199530 2.102209 -5.369044 -7.052119 -2.881217 3.309983 4.879176 7.101692 0.995960 -0.696541 3.671965 -4.634022 -5.496156 0.389443 -3.691711 -2.760193 2.126149 -4.067382 -3.161235 0.687139 -6.782759 3.353440 -4.015732 -6.051447 4.944625 -5.652120 -4.624525 5.350864 -5.524232 4.690309 -5.522974 -0.535764 5.135833 0.863670 0.615877 3.318692 3.790657 -0.873518 -3.251442 0.042719 5.249897 3.696484 3.255209 -6.079931 -3.741760 3.056123 3.967620 5.098791 -2.110003 3.545058 3.732706 9.760686 -2.699900 4.022051 0.043253 6.287207 2.063263 1.575525 -7.650607 0.194554 3.299419 -2.247592 1.881746 -7.904460 1.576457 4.016447 -3.292445 3.479982 2.829275 -0.044626 3.389399 0.219185 9.366283 0.517078 -1.697057 -1.173448 -4.259430 -7.063646 -0.476779 5.516644 7.006259 1.134678 0.100291 1.171221 0.368408 2.049032 9.699500 -5.265235 0.819046 2.119016 -1.512799 -2.016040 4.012056 -3.563236 3.601023 4.351423 -2.626951 -1.449694 -1.100880 4.954873 -0.575290 0.484865 4.118263 -2.446150 -1.111891 5.065240 0.209735 -3.403732 -1.907948 -1.133910 5.031675 0.631294 -2.173821 -1.210583 -3.598827 3.333241 -1.639600 -7.628853 -2.652491 1.336475 4.016208 2.895598 -2.923464 -1.411126 5.604533 -2.588666 0.418800 3.334982 -9.927319 2.372288 -4.780081 -0.922005 1.408448 -1.551052 2.589479 2.111421 3.157232 -4.690199 6.538108 4.331646 3.106373 0.089638 3.974103 -2.966453 -2.689454 0.806428 2.434547 -1.305258 -0.304939 -2.313946 -1.806097 1.687174 -2.675574 4.058445 3.251746 0.421570 1.127079 4.606587 -6.268551 7.370630 -4.196098 6.162856 -1.326450 -6.519641 1.732305 3.469514 -3.534311 -0.506922 4.224322 -3.323140 -1.941591 -4.513847 2.071342 0.595675 -2.415841 1.793389 -1.363979 -0.283710 5.768861 -2.044494 -4.972468 -0.438236 6.007204 0.620894 -2.259250 -0.804208 -0.671178 -7.029541 -2.979351 -3.434766 -3.583973 -2.612255 -1.552100 5.550787 4.423262 1.144021 -5.116326 2.718852 -2.043439 3.679396 2.334672 2.100252 2.786469 3.065768 2.953378 -5.027240 -4.018910 2.074190 0.839794 0.515035 1.166593 -4.392114 -6.306199 -2.130537 3.255062 1.058882 1.344625 2.581764 3.283096 -0.019083 -3.584330 -0.597052 4.653428 3.196474 -0.140148 -1.977950 -3.922948 -0.229139 -1.478762 -2.391738 -5.525332 2.780222 -0.554959 6.310910 -7.556352 0.822301 -2.883859 0.133028 -0.536225 -0.923579 0.223938 9.650873 5.599616 4.380427 4.612035 0.737741 -2.909329 6.430467 7.484414 2.001712 -0.026338 -8.133554 -2.978369 -0.693613 -2.247964 -6.170851 -3.991167 -1.775540 -1.173728 -3.916470 9.217851 3.777587 3.668638 4.363044 7.590162 -0.408879 -0.790423 -7.165146 -4.000706 -0.616073 -1.283982 -0.689794 0.268873 1.712334 1.517611 -1.784651 1.299983 6.952661 -4.281480 -2.815571 4.724785 3.433332 -4.202589 -2.826072 1.224032 0.093827 0.209657 3.425533 2.890157 -3.455152 -8.281755 -0.435581 -1.959916 6.807214 -4.271256 -1.912027 6.400725 -7.531588 3.452595 1.248454 -5.705582 1.521866 5.447546 1.179075 -2.352796 -6.756723 -2.985703 -3.619937 2.597282 -2.093424 2.402148 0.231078 4.338951 0.482026 -0.297446 -3.808234 -0.572405 -3.906107 -3.670291 0.451333 0.112327 0.478569 -2.501715 -1.377826 -4.703004 -0.906904 -1.588817 1.349163 4.497587 -2.166260 -3.855197 -2.828328 -2.945854 -4.087471 2.282594 8.075608 -2.533738 -3.224097 1.708011 -2.734538 -0.737095 -1.692975 -1.711567 2.075200 -0.339726 0.140263 -6.575079 -5.363630 0.970210 6.091573 4.522879 4.600719 5.809267 2.450476 5.290017 -6.535205 3.041766 1.326210 -2.417222 1.705685 -4.225622 0.342689 6.094914 -4.717867 1.970811 2.165536 2.129378 -1.770685 -0.816855 -7.400051 2.903850 -1.011126 -1.698331 -4.014980 -2.438359 1.430849 7.004119 -4.013511 -0.062055 4.240075 3.291767 2.326253 -4.552658 2.882313 -4.525092 6.011903 -5.461295 5.265389 -1.658713 -1.002249 2.815176 -1.508771 -1.132927 -1.569890 -0.636150 -1.297789 -7.029319 0.674640 0.151982 3.256561 -0.460383 0.428905 4.104894 -3.114053 -5.812230 0.886856 0.132727 2.571651 2.700996 -0.041822 0.621345 4.303455 -3.530527 -0.647354 5.747863 -2.054958 1.874542 -0.806767 2.767180 1.815958 1.588252 -2.223774 1.425545 4.858260 -2.889460 -2.035494 4.879160 0.595002 -2.925658 1.348437 1.089334 0.606409 4.073235 0.169729 0.188419 -2.425838 4.491613 6.172946 -4.774297 -6.452155 -1.522609 -1.661528 0.648698 3.551785 -3.190840 -1.383630 -3.006186 0.338807 -1.005288 -1.419514 -1.188597 -0.404295 0.474924 3.628525 2.998792 2.279589 5.455142 4.744895 -2.420549 -8.190119 2.718134 0.870180 -3.481927 4.009603 -8.663997 6.607955 -7.069118 3.459464 -1.508014 -0.997241 9.049876 1.300661 -1.136054 -0.807295 6.417121 -2.932830 -5.688205 1.925939 -5.331842 -4.090891 0.080332 -0.218354 2.683201 3.177651 -3.248399 4.072959 6.946169 4.886048 3.868761 0.751815 4.205132 0.271746 3.178084 -1.488213 1.927232 1.827089 1.822440 -1.294013 -0.825573 -3.705185 -3.518271 3.285308 -1.048824 2.711678 -3.140656 -1.624854 -4.459690 -0.888691 -1.769662 1.193084 -1.631105 2.705114 -3.180490 4.000514 -3.374105 -0.128939 2.902519 -4.139519 0.150108 -5.962584 -1.506946 -2.074189 -4.912029 -1.255469 -3.907850 3.667838 -3.483384 0.941853 3.891850 0.064612 -6.398887 -1.843553 -8.309732 1.599943 -2.293648 1.013113 -1.731695 3.160301 6.151107 1.459027 -8.387920 2.422365 4.738398 -0.621155 -3.481362 -2.044310 -7.976748 -3.546093 -0.433760 -5.240692 2.222529 -0.295568 0.534854 -2.332142 1.577037 -3.054484 6.417539 -1.449489 5.250124 -4.484822 -3.210232 0.214599 -4.269852 1.912555 -2.151068 -0.922192 6.012974 2.545518 -7.850465 3.346521 -1.018811 7.351178 -3.664411 -5.455181 -0.945648 2.542018 4.197834 -3.907217 0.924655 4.250728 -2.381378 7.354293 -0.887325 -0.967933 -0.666295 -0.184525 -4.403926 -3.853868 6.468767 1.248777 1.848729 5.665808 2.071493 -1.616744 -4.618835 4.936794 5.703031 -4.897668 6.604156 3.157354 -3.531936 3.468339 5.731462 0.024494 -2.843532 -7.473128 -3.452210 -3.381357 -0.470343 -1.180027 -0.113960 4.442158 1.369455 1.477441 4.085704 6.209667 4.590102 -2.246180 -4.445562 2.732511 1.426634 -3.110794 0.734922 -1.890630 -7.474734 3.944051 -3.748982 -0.854784 -0.305765 10.154112 -4.602923 7.116736 3.074371 -1.211360 -1.240321 -1.139549 1.319841 3.840712 3.980093 -2.986898 2.103945 -1.231452 -1.823307 0.839274 0.290988 0.186653 -2.134614 -7.296435 3.454108 -0.964249 1.640944 4.640040 -4.640569 0.109153 -9.028373 -1.729070 -0.203000 -0.503441 2.673021 -5.796612 3.218421 -7.117298 6.664405 0.450441 -2.881744 -1.938788 -6.849142 0.709979 -0.634147 -0.905671 -1.489611 0.192531 0.659185 0.643444 0.448328 -3.565026 -3.001006 0.519894 3.220183 -3.994871 0.462350 0.856593 0.625659 3.380705 -0.557519 5.782653 -1.423358 5.770143 -2.051927 1.568927 0.767066 0.432452 -9.614528 1.778714 1.349081 -6.117212 1.803393 5.256971 4.311648 -2.427826 -4.085854 2.365407 4.381194 2.701205 5.235880 2.315465 3.049858 -3.341700 6.328567 0.374468 -3.502182 0.558068 -2.025460 1.589032 -1.963911 1.773900 0.897219 4.632040 7.197152 3.075698 3.207185 -6.666724 4.146930 -1.192886 1.353512 0.674197 4.988994 11.324759 -5.945731 2.571766 -1.714091 7.562798 -5.203353 2.819001 2.661502 -3.252117 4.513799 3.404319 -0.756615 2.270369 3.025884 -1.132870 -3.811107 -2.698461 6.596979 -1.489653 -4.057028 0.741863 -1.779048 -1.789415 -1.734723 1.483615 -2.389142 -4.117274 -6.091318 1.352830 -2.652015 3.825074 0.120313 -2.117599 -0.827126 -0.223879 5.363053 3.380740 3.143919 -0.000064 1.344177 1.151603 3.422570 -1.284854 5.087911 -1.746908 2.505675 -3.999680 -3.188250 3.048061 5.135989 0.806254 1.540628 -3.408979 3.893090 2.710158 -2.036560 -2.264983 -1.035459 -3.665332 -3.079400 3.927055 -3.896527 0.394902 1.127291 -8.249875 -3.675585 0.137441 2.247340 4.231704 -7.966917 1.156518 1.561735 -5.577882 0.272279 3.271869 -0.821073 -3.270116 -4.149203 2.506755 -8.489830 -0.928192 -1.644879 -1.109392 -0.638484 3.728923 -6.473818 1.114851 -5.492813 7.372322 1.829261 -1.026083 -0.196235 4.121435 3.104378 -5.012336 -0.791533 -1.506419 -1.199447 5.134624 1.072126 4.495240 1.189376 1.897453 0.822331 3.522028 -4.374047 -0.590178 -0.305090 -3.607097 0.186437 -6.240868 -5.073902 -1.339448 2.190214 1.018043 4.730972 1.749293 2.144747 5.414622 -2.576146 -6.083813 0.941671 -6.332017 3.853504 -0.078763 -2.344605 4.957351 5.062099 -2.568474 -2.413779 -1.569226 3.823958 5.712128 1.773804 -4.240012 -1.932507 1.752981 -3.393992 5.734049 4.140689 4.475613 -1.258806 -2.540545 0.519934 -7.641562 2.241979 -2.763930 -1.279103 -3.429355 -1.159514 5.225493 6.611887 -0.893261 -0.412003 -5.557175 -4.604048 4.586597 8.743103 -3.147609 -0.598561 -1.413168 -4.287630 -1.714861 -3.047104 -0.530851 -0.256599 1.676017 2.117059 -0.814062 -3.872826 2.524966 -2.090162 7.378916 2.841851 -2.743086 -7.747709 -2.521260 -0.548136 -2.784641 -2.503194 5.027310 -4.029157 -5.125455 -7.220655 -0.611307 0.410974 2.857661 3.088090 -5.455259 -8.780596 -1.014770 -3.085811 -5.159533 1.740501 -0.707170 -2.283049 2.753899 2.318996 0.419889 -0.255874 -0.158123 -0.439449 -6.565527 -2.089067 -5.830029 -2.143278 0.706604 -5.725699 2.372349 5.509846 -1.477290 4.899911 1.145354 -2.498814 6.876981 -4.117607 -0.769944 -0.938161 -3.394492 -3.891383 -3.132978 -2.761468 0.017844 3.820206 -0.154472 -2.577535 -1.331101 1.711467 0.124126 -0.658454 2.660552 -0.650322 3.377175 -3.653078 -3.050139 -3.401192 2.994634 -1.801158 1.891523 5.673668 -4.377605 0.381238 -0.216818 5.316867 -0.521264 0.270544 4.010665 0.549393 0.817537 -3.251802 0.293890 5.576764 1.138198 -1.888820 2.593467 2.733137 4.739432 3.389668 -3.639274 3.751578 6.504243 1.754910 -2.114598 2.306177 8.253154 -3.500929 4.021344 -3.228714 -8.682840 2.128386 1.048840 -0.140327 -3.184068 -3.522126 0.451499 3.396459 5.247167 0.314739 -1.607693 -0.224309 3.151150 -1.664668 4.209428 6.503759 5.934277 -3.696079 -1.517339 1.729646 -6.710320 -3.458283 -0.276216 -3.104766 4.523545 1.796390 -1.121495 -0.799657 6.198591 3.794258 2.648536 6.279780 -10.300877 2.216948 -2.241497 0.124630 -4.703093 -2.704611 -1.484898 2.314605 -10.428837 -2.527161 -5.436932 -1.942816 -2.358495 1.783986 -7.671506 -2.174955 1.997840 0.291263 5.970018 1.773488 -0.650050 -6.306140 5.119963 2.119003 3.544444 -3.512009 -4.715949 -2.951740 0.243915 -1.292197 -8.802141 3.202837 -0.436898 3.399845 -0.426162 -2.852179 -5.757589 -5.113332 4.439891 1.725570 1.766287 -3.753380 2.055931 -1.722082 -5.773888 -9.315098 -2.174585 3.956985 -0.395139 0.920531 -1.069163 6.453846 4.313250 -0.585619 2.166540 -1.333044 -0.954342 -4.497190 -0.667327 1.573270 -2.237013 -4.655329 -0.036916 6.522466 -5.235517 -0.846711 -0.471131 -0.613928 -4.404811 -3.576197 -0.120929 12.133434 0.310390 4.249083 4.924731 1.343365 -3.130634 -3.432556 -0.825501 1.089767 7.721957 -6.164881 -0.119295 0.741596 3.124616 -8.947141 2.179492 8.053156 -3.279820 1.746431 5.578184 -1.935911 7.122939 9.106458 -2.930395 1.397805 2.642165 -5.153539 4.303752 3.277230 -4.505177 0.340094 -1.368970 4.742467 6.333252 -1.018130 -3.875200 4.541798 3.551809 1.562026 1.433529 1.660134 4.951481 -1.957391 -1.481207 1.576869 -5.450430 -4.934656 5.719019 4.469674 3.550776 4.603835 1.889062 -4.781557 -0.762942 4.461497 5.033311 0.984100 -0.636605 1.253060 1.413427 -2.879698 2.920795 -1.450596 -0.870550 3.437055 3.597858 2.955534 2.747745 -0.455246 5.844208 1.567365 7.575827 -3.430043 -4.993133 2.678698 1.656372 -2.974474 3.976514 -5.052811 -3.648321 4.237925 -0.160052 -1.282259 -0.282519 4.026502 6.292391 -0.595666 3.168349 -0.343397 3.127474 -4.524167 -6.835888 -2.512242 -5.526135 8.077720 3.158286 0.620738 2.030447 3.500539 -1.017244 1.271642 3.898216 -0.823430 -2.993344 2.025945 -1.367158 1.590937 -1.987264 -1.506989 -4.275003 3.548913 -3.716039 -3.176447 7.642210 -6.596878 7.732082 -2.780695 4.728508 6.475057 2.871406 -0.986415 -0.321863 0.630391 -7.553853 -2.753693 -2.822338 7.062131 -3.681458 1.542692 -0.691680 6.300122 4.463134 6.393099 2.361092 2.604445 -3.175897 3.526121 -1.065224 1.325801 -2.071573 -4.099594 0.579215 0.576406 3.489299 -0.749919 -2.788562 1.447287 -4.962854 1.946129 0.975430 -2.323572 -1.672578 -0.160956 3.165943 5.192800 4.630142 -2.491517 2.309091 5.526055 -2.729356 0.491644 -5.792159 1.739889 -2.142659 -1.365476 -1.340620 -3.674844 0.595065 6.687286 2.355197 -4.566266 4.197527 -5.941856 0.754612 3.214486 -0.990958 -1.077292 -5.660560 -0.644398 4.916668 -5.929001 0.978224 4.834141 1.296748 -2.272227 -0.659214 2.288820 -5.628634 -7.646600 -0.173864 -0.465748 -3.932749 -2.580054 -1.291132 -1.225781 2.237214 -1.588729 -1.601329 -4.114052 -6.309723 0.657082 -6.603304 -2.729471 4.207425 4.007926 9.682490 -0.595808 -2.663827 -2.431347 3.828792 0.595324 -0.427133 -5.845640 -3.677074 -2.374414 3.543472 -8.110225 -0.363910 -2.867324 4.420936 0.099132 -2.781046 -2.184438 -1.810715 4.490335 -0.754670 -0.387676 3.275021 -6.199474 -5.259824 1.739750 -2.985111 5.839478 2.363090 -0.334373 -2.690992 2.078968 -3.083137 -4.062832 -0.434727 -0.831234 -0.351548 3.631263 0.224535 0.042667 0.299234 -3.332555 2.881022 2.012599 4.597239 -5.682993 -6.586196 -5.373735 0.959686 -1.062055 1.622942 -0.811414 0.728463 1.710553 7.614211 -4.549783 5.451289 4.674694 3.645604 -0.103935 4.153046 -6.616230 -6.046910 1.438925 2.735611 1.476208 2.438869 0.496837 -2.222435 -4.648951 -1.709944 3.304159 1.849975 -1.161124 3.928346 -2.021524 -1.689423 -5.108073 4.353272 -4.267762 3.225347 -2.848218 -1.525600 -4.103807 -6.772779 3.034251 4.434526 3.709216 0.644478 2.806597 -0.638038 -0.983059 -1.898702 0.151246 -3.564145 -2.416534 -1.227612 2.370313 -1.465559 -4.418716 2.981359 -1.098822 2.010149 -4.633370 3.041375 -1.087511 -7.255837 -2.851553 6.933890 1.528293 4.406452 2.171337 -0.923964 5.964494 -1.871971 0.235307 -6.816842 -1.976986 -2.198867 -1.719502 4.779431 -2.385337 5.308273 -1.582240 2.386836 4.509601 0.288286 2.920335 -0.460334 0.042547 -3.559273 -9.048339 -1.847674 4.186860 -0.511414 3.187312 1.390084 1.874938 1.826836 -1.924533 0.208664 2.871068 -0.910307 9.061922 5.238652 1.414419 -7.661384 0.710401 -4.339466 -5.146749 -4.671119 -0.524406 -9.500164 -3.488320 0.951250 -3.647107 3.152997 -3.173567 0.739210 -2.194607 1.889306 3.638262 -6.852622 0.887068 0.928426 -2.830255 -6.098606 -4.299971 -1.303943 4.737917 0.821270 -2.421915 -0.646189 3.138220 -1.596198 -2.101986 4.288139 -0.116662 3.400691 -5.964869 -1.584687 -5.065510 -4.948798 -5.315094 -1.476009 5.126168 -1.754475 3.004270 -0.008883 6.346967 1.133830 0.536351 -3.155751 0.674003 0.304084 -3.569642 -3.026113 0.661334 0.370548 3.357959 -6.435039 1.301846 4.506792 2.995806 -4.484547 3.618961 9.377663 -5.717644 2.291041 -0.948105 1.303736 -2.637004 -1.658212 -5.406165 -0.994462 2.680310 -5.012795 2.666467 5.987746 1.645827 -4.792798 -2.888196 -0.016072 1.817570 0.909751 0.692704 -1.642683 -0.288853 -0.001165 -4.137690 -4.359318 2.521117 -1.473345 2.099643 -3.606271 -5.766425 4.831390 0.106063 1.927192 -4.344477 0.640140 -2.777119 0.947299 3.147309 5.056576 -1.904065 2.607764 -0.167103 2.254124 -1.923288 -2.181348 -5.378312 -1.168393 -4.180425 2.487908 -4.208327 -3.447334 1.053782 0.761532 3.146602 -0.451177 -6.419799 -2.001217 -1.545066 6.779737 1.678634 1.949220 2.892821 3.479370 -3.962726 -0.775036 4.939588 -3.875883 3.523752 0.922041 -2.382083 4.769949 1.051881 5.902813 1.854231 -4.190656 -0.136512 6.784819 -5.489463 1.410942 -0.856760 1.886443 1.924536 -4.176557 -0.675784 -0.294196 2.610890 1.501196 5.166558 4.621306 -1.813120 2.454337 1.789451 6.784361 -1.396665 -0.611148 -6.120508 -1.568052 4.597349 -3.759995 -0.040154 -1.885260 2.401565 5.168879 -5.192647 8.225119 -2.314314 4.216623 -2.524283 1.486482 -9.030464 2.295814 1.743122 3.368254 0.633259 -1.448521 2.953654 2.335022 -1.979271 0.815313 4.278337 0.029307 7.158341 -5.976162 -1.912982 2.099974 -5.713378 -2.832099 -1.447062 -1.267078 -4.221196 -2.078695 -5.310350 4.879878 -2.427438 3.944484 4.343542 -2.317249 -1.578573 5.639973 -3.093821 2.652423 6.533964 -4.649972 0.028768 -4.967514 -2.295924 3.406675 -0.615167 -1.032620 0.964538 -1.424472 -8.144730 -9.885236 3.428371 -2.068343 1.064582 -3.766483 1.691073 -1.469702 1.722962 3.456147 -1.385453 -0.780554 -3.020381 0.880306 -0.092704 2.658926 5.011640 -1.885843 2.484642 -3.723096 2.712938 1.176513 -2.880250 0.670937 1.437160 4.369586 -6.045704 2.051791 1.258391 0.194915 0.016973 -2.662273 -2.301576 1.456068 1.075028 -0.039216 3.745344 -2.940119 -2.203759 -4.555699 1.753510 0.263881 3.174119 6.390389 6.270428 -9.918582 2.313030 -5.024562 2.590092 -1.825942 -1.249840 2.912092 4.071865 3.668704 -6.841384 -5.354599 -2.166312 3.405946 4.834817 -1.816881 0.260034 -7.749668 0.027733 -1.573855 -0.191909 -0.816081 3.826957 -2.041032 2.484693 5.775538 -3.116075 0.216227 0.573364 -0.240294 -3.536568 -5.361324 1.522436 3.988005 6.146054 2.299606 0.093942 4.219731 0.203186 5.425690 3.598728 -0.565449 -2.922309 -4.405948 2.323109 3.996106 2.545738 -0.709783 -2.103593 -0.876417 -0.971125 -1.902131 -2.591662 -2.133928 8.368999 -2.220336 -1.203635 3.488884 -0.939044 1.389294 -1.689889 -1.935230 8.082023 0.897238 -5.992675 -0.331888 -0.320507 -2.025695 -4.783675 -0.747001 -0.906138 -6.516655 8.083836 0.016547 5.751390 -0.386393 0.229474 3.161422 -0.704541 -4.778585 2.334329 -1.292679 1.411161 -0.820802 -0.573215 -3.660467 3.762937 2.396728 -5.112236 -3.331392 4.234891 -3.794803 -0.204387 -9.071103 -4.919653 -0.779539 -1.209451 -1.852859 -0.629034 -3.015571 -2.221371 -1.521573 3.952190 2.500177 -4.247904 -2.509297 -1.450255 -5.421864 -2.169517 -5.566771 -5.505466 -3.940512 0.326409 -6.685736 1.112525 -2.143764 7.130445 6.041038 5.130005 4.823004 -4.832203 -1.095290 -5.134696 0.195326 -1.304959 -0.893660 3.243337 3.929550 -2.785801 -2.138841 -2.091163 2.939238 -8.025318 9.509495 -1.393982 -4.284194 4.501098 3.432236 0.854160 1.300317 1.390674 -2.758571 -11.039415 -3.043242 -0.661867 -2.157689 1.678719 5.899354 8.752272 1.984381 -0.751026 2.142270 0.434694 -1.088525 -7.647407 -3.002529 0.933526 0.619691 -2.775560 4.750070 4.154320 0.216630 -2.257148 1.300515 3.344582 -1.087274 -0.823328 2.832044 -0.748591 -0.394705 6.442787 1.383902 4.209018 1.389680 1.203955 4.177184 0.230363 -0.470691 -3.414924 0.477151 0.023027 0.010035 -3.097621 -2.015440 8.301624 0.031265 -3.053051 1.869082 1.496553 -6.058451 -1.306877 -1.527264 10.582658 2.858530 3.296014 -5.280540 2.929205 1.459760 -0.601829 1.940490 -7.683251 1.250310 1.958598 0.886936 9.926303 -0.891018 2.870971 -2.399198 -2.187475 -6.194844 -2.615865 3.070522 2.297733 -0.016816 -1.474948 3.147025 2.057034 0.749751 6.466140 2.015970 -4.065884 1.385888 -2.193444 -3.260579 0.303550 -0.286451 -0.379227 4.372334 1.043014 -5.432736 -0.597228 -4.420859 -1.843425 1.541041 7.516493 -9.341702 3.884233 -2.164807 -3.544421 3.130450 1.836679 -2.489709 -3.459939 4.759615 -0.225695 2.747230 -0.968109 -0.978016 -3.537556 0.530759 6.200312 1.173111 1.503990 2.508820 -3.928258 -6.598821 0.610754 -1.346259 1.121264 -1.140053 -3.165703 1.702866 1.678546 6.671343 -1.383917 -0.766632 0.310062 0.316105 2.804463 1.875117 4.514011 -5.302830 -6.514786 7.720156 1.657683 3.384312 4.169118 -2.136180 2.459026 -0.405311 -5.313969 -2.106749 -1.883755 4.279289 -2.085210 -0.676032 -6.041547 -1.640264 0.955196 -0.567256 -0.733340 0.396614 -1.791902 -4.239319 -0.305399 1.714049 0.447375 -5.710698 -6.923579 1.222724 0.248148 2.323653 8.442174 -2.082410 2.857347 -2.687987 6.201152 0.413309 -10.084455 -1.580692 -4.099082 -0.989156 -4.128998 -3.302656 9.964572 2.472372 -4.015766 -2.055916 -1.690826 -3.187667 -0.226821 5.309991 -5.463865 -2.570897 -3.953328 -1.066965 -5.446511 -2.174167 -8.734870 -0.503117 0.407632 3.128552 6.031861 -0.987083 -0.221544 -2.965337 3.040030 4.092655 2.613389 -0.656401 -2.361930 5.233467 -6.083248 3.482110 -7.295342 -0.305093 0.414292 3.539022 2.927712 -6.575332 -1.499169 -4.815472 4.458655 -7.266344 3.492512 -2.550118 1.548687 -7.477294 6.181589 1.130580 -3.498992 -1.791510 -1.304550 -1.329543 1.750565 1.199952 -6.180352 8.751451 -2.062498 0.654593 -5.021340 4.950147 6.566910 -1.440630 -3.733136 -5.486801 -1.359319 -5.801564 -2.764805 0.195759 3.771689 4.323841 1.521935 5.204315 4.148620 5.886793 1.006995 -5.787149 -4.569585 -0.764868 1.294367 0.158052 -2.525241 -1.003321 0.213327 -3.187144 -0.257356 -4.100105 -0.745809 6.185285 5.354310 -1.630148 6.444623 -3.810212 -1.073793 2.077514 3.379508 -1.094282 0.386153 1.541787 1.147666 1.065195 0.128316 2.925678 -3.955975 0.368918 3.889957 -3.735356 0.052069 0.631376 -3.208834 0.513733 0.940004 6.542080 2.539455 -0.252723 0.480656 -2.611330 0.243538 -0.763798 -1.272286 -0.941154 -6.169427 1.783672 1.434777 3.718723 3.081422 3.384456 -2.848482 1.368356 -2.269199 2.978563 2.012089 1.578382 -4.092977 4.111349 -2.718352 9.526355 1.408787 -2.392040 2.565864 -3.673685 9.135282 0.536765 -2.960669 7.757956 -2.011835 -2.128775 5.109621 0.614868 -0.629536 0.873994 7.476403 -6.925048 -1.640102 5.267935 6.334092 -1.288527 -3.100735 -1.428195 1.714349 1.052423 6.223614 -1.101678 0.182323 1.858464 1.438566 3.603285 -7.138880 3.786030 -2.997727 0.745305 1.015230 -2.284723 -4.889666 -0.567557 5.966216 0.658462 1.394586 -1.004963 -6.614506 0.962585 -0.112860 1.554910 1.406109 -3.941828 -2.157223 -1.205153 -1.826702 0.314468 3.301815 -6.662195 5.229537 -1.035990 4.818341 -2.392665 -2.244528 7.818598 3.104688 -6.921783 -2.029207 -4.335941 4.516602 -3.062138 0.226461 0.920425 1.902295 -1.017450 -7.599576 3.030281 1.359959 -2.542953 7.911762 4.402971 -5.494411 2.954101 -0.842707 6.842346 -4.312436 -3.390766 1.008176 -1.764887 1.364130 0.635983 3.768383 3.264423 0.662797 -5.603997 -1.445586 -1.756177 0.301036 -3.384705 -2.433149 -4.225369 -2.949692 7.022727 1.715157 4.483542 -1.614395 -0.283580 3.081470 -1.451691 7.214317 2.400806 -0.571456 0.612077 1.355260 -6.112982 -2.713866 -2.722374 3.173938 -0.118582 0.759249 4.926940 -1.762654 -1.433038 -1.657787 -2.233625 0.515710 7.047064 6.127103 -0.427950 1.346639 -1.717618 0.779640 2.569728 -5.309163 -4.278310 -2.379616 4.792129 -6.137918 1.395807 -1.730400 1.712837 1.761840 1.424335 4.487983 7.168226 0.126885 0.113886 0.655269 3.053110 -7.851511 -0.327711 -6.620776 0.639911 0.824781 -2.588970 1.550012 -7.627755 0.430793 9.355394 -2.520552 0.888674 -4.072799 -2.918795 0.080764 -0.715548 -1.897932 1.904012 -0.360363 6.449918 -3.703152 -0.118639 -0.244188 5.591171 0.782014 4.006638 1.162300 -5.060535 9.121246 3.474350 -1.326079 -0.703054 0.518263 -3.027820 -2.778367 0.564560 2.801304 -3.663540 -5.457420 -0.607063 5.659846 7.102935 -0.693482 3.707569 1.165747 1.219552 0.226242 -4.031267 -0.728402 -0.489995 -3.302393 -2.623687 -1.646916 1.723506 4.418344 7.010784 -0.163537 0.912703 -1.728117 4.358288 -0.738573 -4.625693 -3.512716 0.806201 0.817864 -6.071961 1.737083 1.503227 -5.150535 -4.094780 -0.092064 -0.677004 -4.172514 3.297298 -3.652693 3.694594 -6.106056 -2.148270 -2.109616 0.821049 3.475754 -0.440665 -2.522756 -1.636695 -4.340526 -4.875120 -1.833192 0.942664 -2.476714 5.260473 -7.619756 0.358584 -6.304642 -0.127385 -1.195861 -1.564748 5.818895 -1.144253 3.284591 2.557576 -4.564589 -7.860246 5.780401 -2.658418 -2.994275 4.960446 -1.768186 -1.154954 -4.126211 2.401268 -2.502776 4.084233 3.539047 0.095482 4.331206 3.682391 2.668856 1.485905 -2.008114 1.327604 -2.210624 1.128413 7.083371 2.714243 -3.599070 -2.070652 -1.437516 4.037776 -7.383452 -3.152918 -1.884549 2.060291 -1.560044 -1.495077 -3.982523 3.098622 8.964257 0.265399 -2.399323 8.759295 1.061318 -6.437392 4.026770 -3.556981 6.199512 2.126057 -4.241273 7.052806 -3.370610 0.026047 2.503810 5.132903 0.942104 4.729511 -1.440355 -4.362529 -3.535331 -0.906587 1.492598 0.932840 1.804788 -6.859259 5.045577 0.598521 -0.709701 -7.364788 0.645523 0.996139 3.591345 -0.034067 6.687984 3.382952 3.013715 2.698309 -1.407727 1.949801 -2.085952 1.331910 4.286662 -2.508524 1.755521 1.939041 4.906501 0.581870 0.605168 7.405475 3.085116 -6.783918 1.048071 -2.318642 0.643603 0.065918 0.181103 1.158441 -1.403450 -0.670389 2.237035 1.562897 1.071233 -5.139288 -0.343121 6.311959 -1.722365 4.884985 4.502932 1.367177 1.707343 -4.961606 -1.195075 1.457605 0.645835 -2.785955 -4.568679 -5.913152 -1.702134 -5.477487 -5.487451 -1.354824 5.782412 -4.300553 0.291212 -8.785666 -1.036260 4.552345 2.248388 1.888070 -0.495347 4.503132 0.429635 2.754774 4.368121 -6.386282 -1.560646 -4.318159 -3.869828 -7.253748 3.111101 2.445122 -0.813426 -2.730847 4.840836 0.763139 6.104770 1.253662 4.382789 -5.203350 -0.745864 2.174036 0.564761 0.045057 0.180913 -1.989475 2.039281 4.780471 3.265770 2.700117 6.073065 2.434835 -4.133193 -0.250367 -4.116926 -0.959431 -4.596293 -0.420073 -2.942305 4.647243 -5.520532 -4.477444 2.843213 1.742525 4.318661 -2.864367 -4.349453 0.139506 2.878643 1.059238 -2.964535 -1.600467 9.147311 4.416305 3.399529 6.274117 -0.570483 -0.099972 -0.679873 -1.329999 4.573674 0.509891 1.127237 1.876136 -4.093885 2.993822 1.645910 7.314301 -0.406799 -5.618213 2.980190 -4.242582 -4.270044 -1.503956 5.113769 1.516552 2.247994 3.070093 9.507721 -1.824192 1.240421 -2.380172 1.096169 -2.512935 7.131217 -3.461183 1.137753 1.930807 -4.929806 5.606382 3.716643 -6.345997 -4.671257 0.097100 -3.434111 -0.460142 -4.027275 -6.069030 5.544667 -5.065903 -0.955092 -0.916565 -3.799466 0.128345 -0.407731 2.916008 -0.868321 -0.063891 0.185266 3.271354 -4.105995 2.652886 2.105398 -1.474984 -0.835430 -3.981519 0.046623 2.578523 1.654194 -5.019350 -3.296071 0.969634 0.169741 -7.126626 3.439763 2.993787 -3.480284 0.825092 -5.883745 -7.852125 2.284878 3.646009 5.794299 -0.848242 -5.265520 -3.144270 -0.316864 -2.512103 -7.094181 4.026471 0.960085 1.976539 -4.387918 -0.390322 -3.981093 -1.288115 1.136851 6.924693 -3.104132 5.020544 1.523763 4.215848 -0.489836 -4.600945 -0.403460 2.502135 1.884547 10.933268 3.086533 3.899386 4.099600 3.179852 1.913130 3.664905 -0.405711 0.171617 -5.581418 -1.149897 -4.552120 2.034483 -1.898548 2.071885 2.828942 -0.173675 6.975865 8.501322 -2.632250 -4.961401 -0.490550 2.395681 -5.502335 1.346880 -1.635645 6.408026 2.606145 -0.966910 -0.217314 -0.204201 -0.413244 1.985768 1.549834 -1.386340 -6.601694 1.478657 0.672682 -0.185145 -0.385362 -6.154336 2.588987 5.162275 0.550566 3.604183 0.270509 4.461160 0.445768 0.036451 -3.530595 0.171592 -3.157091 0.380092 -6.026900 -1.388834 -4.106690 2.899986 5.373276 -2.113070 -3.695080 -5.781150 -4.661178 -5.266677 7.064322 1.899159 -6.676253 -9.875302 -1.061426 1.189132 -1.502952 4.148366 -5.383434 -5.049160 2.777309 4.108754 -1.203455 4.791784 4.555465 1.831177 2.137404 -2.088983 1.015108 -0.178317 -0.778515 -3.863528 -2.666823 7.833593 -3.639296 3.689044 -0.266003 -2.816071 -2.074918 -5.964884 1.176736 0.144969 -2.929175 -1.822508 2.370833 -0.995299 -1.246157 -1.563739 8.208557 3.523694 -3.224208 1.280225 1.209133 -5.651962 -2.621423 0.102283 -3.062308 -2.052924 4.921106 4.422515 -2.343612 -1.693747 -7.931679 6.104231 3.487512 2.209113 2.723067 3.727825 -8.492718 -1.079371 3.828087 -1.638278 -1.373541 -3.752986 -4.553192 -3.405621 -0.791176 -5.189385 -1.256465 -0.666621 3.352948 3.176911 -0.549117 9.488155 7.475513 -3.347895 3.871957 -0.313917 -3.434576 -3.789460 5.549615 1.402147 -1.468533 2.829207 -0.332015 -2.992019 -0.258852 -1.145624 -4.233910 -0.095607 6.453750 -3.969603 0.631011 3.689350 -3.364341 6.861076 1.372884 -1.501808 -7.020059 -2.498799 -2.541441 3.060408 -4.587000 -6.346918 2.642572 8.631498 -2.914398 0.526954 0.842797 1.293049 -5.723610 -2.619437 0.782079 0.424618 -2.759025 4.312992 -2.168585 1.880706 4.309538 6.212558 2.167312 -4.426746 -2.873202 -2.725280 3.158813 4.355753 6.849360 4.015900 1.925515 -0.667539 -1.265338 0.693399 -4.148367 -0.306872 -2.889655 5.109843 1.396751 -5.143152 -3.824540 -0.349630 -0.749048 1.703228 1.415760 -0.969834 3.584274 2.944567 -4.333357 -7.142711 6.548445 -1.623329 -4.585098 -3.508962 7.367688 -3.143052 3.214768 -3.980109 0.478499 0.780466 5.892285 -1.477070 2.170900 9.091828 -2.215220 -4.562798 -1.207653 -4.583285 -4.342043 1.769812 -1.688122 -0.187983 0.510273 0.682265 -5.795257 10.614567 -8.096141 0.120273 3.528931 2.650537 -3.465272 -3.770533 -2.600249 -5.717330 0.946841 -0.301643 -2.959036 1.648887 -1.542497 5.441735 -2.576933 -2.543201 -2.011171 -2.014438 1.377118 0.254229 -9.156410 -0.609137 5.814506 0.932449 0.486935 3.751382 -2.159400 -1.586664 0.782275 2.944350 2.151756 -1.472780 6.110852 2.385502 -1.220714 4.934884 -2.850981 -2.076978 4.263043 -3.182632 -2.142425 -1.959885 1.772797 4.740244 0.188091 -2.504986 -1.360876 -7.372378 9.261170 -0.154463 3.184736 0.484551 1.449874 -1.092111 -2.263906 7.005725 1.824949 2.111424 2.511140 -3.371834 4.097164 5.283888 3.674816 0.097007 0.927468 -1.321765 1.971047 -8.990098 1.719374 1.313518 1.269981 1.771528 5.125224 -0.983312 -7.327993 0.006840 -4.123092 -0.701317 -1.209928 -0.378059 -2.194674 -4.787777 2.436982 1.150207 -2.708682 1.007312 7.748799 3.723971 -3.389855 0.541933 3.731765 -3.874730 -0.921276 -4.318263 -9.241609 2.132343 -2.552842 1.167924 0.977071 -1.841055 -3.626695 6.106953 -2.157492 4.119527 0.028173 3.779347 -5.757586 -2.095748 1.181899 -3.332553 -2.905584 3.670245 3.865549 0.429852 -6.045479 1.666601 4.246124 -0.864893 -4.370691 3.311048 3.594447 5.987619 1.164113 4.567431 1.340328 0.963957 -2.839047 0.295779 0.083842 -3.435827 3.942236 0.163447 -8.830240 -0.625836 -1.134859 -4.466549 8.540234 0.374848 2.026266 2.347408 -1.243746 -0.992153 -2.313800 0.820998 -2.691496 1.339755 -1.700775 2.215616 -4.628353 2.329616 1.694961 -2.129543 5.001918 3.960123 3.999291 -6.367983 1.400255 4.165784 2.483545 -1.609198 -4.142339 -1.979271 -1.860882 -2.602179 0.270718 3.575972 -2.785157 -4.687941 2.861961 -1.355572 1.349775 0.322533 0.902669 1.621193 4.420000 0.337833 -9.501355 -1.291329 1.476638 0.486144 -0.167181 -5.966374 -3.244658 -2.823830 12.559713 5.736775 5.218972 2.826321 0.770508 0.845410 -4.703631 -1.977177 -5.489981 5.587932 -7.943362 -2.301435 1.626645 -2.158902 1.176392 -3.172296 1.509364 -1.705321 -1.577027 -1.485928 -4.732392 -3.951488 -0.502014 5.728494 -1.942536 -1.064687 -6.609158 -1.816265 10.225284 3.277099 2.956659 0.463300 -1.084111 2.477984 9.625701 3.275245 -0.131129 -1.951088 2.906357 5.263933 -3.732981 -0.116375 -2.714524 1.896996 1.302525 3.826720 -2.842962 11.173515 -0.239671 3.427461 -0.317322 -0.209021 0.158612 2.355682 2.041018 -4.382511 -2.690884 -1.850919 4.728219 -0.186955 3.095668 0.380240 1.456586 4.718841 -0.030890 -3.264244 3.764315 -3.243029 4.078513 6.221124 5.526332 -0.905899 3.101940 -0.165549 -3.628997 -3.842263 -6.868358 -5.209327 2.058726 4.792640 1.270094 2.090128 -6.784527 -1.641863 -2.552451 2.750007 -4.931213 -3.386757 5.139036 1.415035 -2.202922 0.905326 -2.278996 -1.626799 4.369176 -3.282323 -2.053130 1.772782 -8.122273 -0.148957 2.087807 -1.763679 -4.370307 3.147541 6.364119 -4.634112 2.386619 -4.411302 -3.075925 3.070981 4.582679 0.851009 -8.343818 -2.406501 1.356692 -0.323058 -5.004641 -0.712610 0.733148 -2.093475 4.273990 -0.229833 0.090553 0.068514 -3.194678 0.702923 -0.117115 -0.437639 -0.341043 3.193302 -0.287116 -0.165043 2.984568 2.303477 -4.639412 -0.629770 5.972184 -1.778515 -4.854204 -3.770645 -2.531737 0.692730 -0.732745 9.030001 1.753006 -0.589756 0.259626 3.320080 -4.620741 1.361976 7.260272 0.120749 -5.444480 2.609774 -0.732577 1.808109 -3.094901 0.971934 1.894711 1.804519 -4.905366 -3.902523 -3.161499 -0.018010 2.391197 -1.449602 3.134945 3.524472 0.088482 -0.169497 2.575802 -1.339635 -1.312391 -1.137672 5.828217 -1.630570 -1.245801 -0.636316 -0.173950 2.781431 1.463391 -1.752740 5.744956 -1.340640 5.549878 -5.439436 -7.477591 -2.819911 0.117295 2.619022 -1.591936 3.251346 0.869742 -5.142699 4.938562 -0.260862 5.789614 1.259571 -1.130175 3.529950 -3.659083 3.017365 -5.062794 2.300064 2.029536 -4.488712 3.460968 -0.383530 -6.454925 0.688130 -3.007901 -2.432056 0.775682 -2.383647 1.923501 4.732711 0.778277 -8.868350 -0.545829 -3.847564 2.240210 0.528222 -2.521151 5.916791 5.332337 -1.821135 1.236102 0.923277 -5.815454 -2.314436 0.860158 4.007449 6.264165 -0.827553 -5.652768 2.544974 -1.910070 3.227670 1.444108 -4.420140 1.207655 -1.823714 -4.899388 4.491539 6.176806 -1.178115 -3.419453 1.821876 -1.337009 0.676869 -0.762107 -6.866843 4.931457 -2.288769 1.395915 -2.359199 -1.678377 2.192920 -2.185209 1.502736 4.246241 3.922258 3.423582 3.138056 -0.089739 3.074378 2.026203 10.815611 -0.903936 3.191362 -2.577325 -1.736331 -5.173663 -5.674382 8.069842 -3.432401 1.410022 2.479463 0.039532 -0.028043 2.030768 -1.605352 1.640787 1.748912 -1.374924 2.506160 -1.102035 5.580104 -2.112107 8.023339 -2.561167 -1.846113 -0.925746 -4.464396 -7.174809 6.043557 -4.504849 2.826867 -3.136001 -4.905939 -0.411442 -4.867903 -1.324591 -1.895049 2.208975 -7.334670 -2.383080 1.564785 3.575257 2.050295 -4.951943 0.591398 0.964397 -6.464203 -3.282817 -9.557065 -7.828029 2.767060 -4.900275 5.480260 -1.487486 -0.250315 3.492332 -4.400490 -4.267882 8.288223 0.000745 -0.479917 -2.917987 -4.585262 -3.868413 1.421919 -0.007730 2.689909 3.129680 -2.770270 1.682684 -2.333360 0.224379 -0.930147 -4.453202 0.127105 -2.888754 -2.321159 0.889115 -2.859114 -2.475487 4.343708 6.788149 2.108719 1.975561 8.973141 4.341552 -0.359420 -0.580661 -0.213512 -0.395224 5.251422 0.914144 1.310231 -1.086089 -6.698999 0.912343 -0.316267 5.273134 -2.233500 -3.922026 4.960169 0.851781 -0.203705 2.222548 2.326081 2.497631 -10.705758 7.720160 -0.023659 -1.234175 5.348833 -1.388533 0.188454 -0.056266 3.166649 -1.063871 -4.605413 -3.230374 -5.460664 1.714957 -5.789837 1.383118 5.042448 7.672622 3.635149 -3.135464 -4.708563 -0.870469 4.284458 1.661385 -5.266882 -2.618594 -0.397461 2.649136 3.861925 -0.912414 -3.198019 -7.899851 -6.162480 3.647571 -1.906841 0.793896 -1.499498 0.417181 4.374565 -3.867730 5.626180 -8.549950 2.465397 -4.022848 -3.994062 -6.356831 0.402265 0.653175 9.295853 -4.817278 -0.167158 -8.385465 -1.166728 -2.363367 -1.057754 -0.819961 -3.258922 1.999787 -4.661436 1.926823 -2.528876 -2.878190 0.862489 -5.856070 1.813173 4.343895 -3.266833 -2.811237 -2.184597 -1.607809 4.112018 -0.969996 2.482290 -0.354472 -3.133675 0.602819 -3.746647 2.554071 -1.714981 -4.608863 6.544124 -0.972288 2.180811 1.447263 -1.966551 1.936363 -5.581549 4.816728 -2.731542 0.555362 0.928286 0.724699 1.139479 0.287859 -2.795016 3.922663 -6.507815 0.673941 -2.517386 4.001594 0.313480 -0.259565 4.086925 6.610878 2.329427 -4.994674 -0.451992 -0.195118 -1.054066 -5.107212 -0.951026 3.476934 6.137289 -1.416031 2.384020 -3.463302 0.164572 -7.042992 -0.642961 -0.374774 -0.715245 0.202054 6.920716 -3.061574 -2.783589 4.163925 2.891970 1.886684 0.992426 5.144016 -1.237589 1.858021 4.395992 -3.165969 0.615757 6.879182 -3.524953 0.465128 0.506492 3.959523 -0.046007 -0.752932 -6.147755 -1.485295 1.845093 3.697785 2.988168 3.111584 -2.251359 -1.200835 -1.396774 0.821850 -6.608523 -2.451439 5.369073 4.850454 0.956147 0.995793 5.168950 -2.030942 3.769987 2.551190 -4.180943 0.309930 3.502493 0.022222 -0.345848 -0.314817 -5.909203 -4.701979 -1.322007 -1.591875 4.866172 -2.290588 -0.744454 -2.742460 0.749039 -0.076366 -1.401244 -1.010254 -0.298363 -2.814663 3.957054 -3.502912 -3.162006 -2.557827 -2.257754 -5.106795 1.418965 7.659263 3.235063 3.096145 0.109424 0.927622 -3.069561 5.463978 -5.857494 4.813370 1.518979 -4.759741 -3.186299 6.165119 5.050891 -6.541163 -1.819665 -6.507089 1.438128 5.812901 0.195081 4.502100 -1.582270 3.331517 -7.187671 -0.884810 -1.464673 4.347510 0.747775 -2.229712 -0.030555 -3.125346 3.287388 -2.056648 1.158180 -4.848851 -0.156926 -6.068461 3.825499 -0.601239 -1.101324 -0.148816 6.610119 -0.322072 2.215679 1.802809 4.850395 0.795418 -6.439168 1.754356 1.331329 -2.684734 -6.041122 -1.365153 2.990738 -1.409140 -1.662383 -4.080752 0.670058 3.422366 1.826562 -1.706611 -0.856204 -6.340868 10.613194 1.110988 -9.361923 2.826534 -0.282725 0.282332 4.629383 0.319709 -4.513609 2.785795 -0.979748 -4.361681 1.833515 1.274600 8.290173 3.397544 6.647372 -2.932492 0.827915 0.340856 -1.165128 -4.620916 -0.889530 -2.719383 -2.028178 7.858818 6.198555 -0.819279 3.090919 3.533236 -3.242504 5.628821 -2.757759 -1.558328 -0.969979 -3.977707 0.719902 -3.661032 0.279027 3.690994 6.330563 -0.637167 -0.125188 0.683543 3.557378 -1.319594 4.500176 1.223168 -1.412425 -0.596982 2.504578 2.024067 -5.676706 -1.197218 -3.401415 -5.869650 -2.284002 0.723046 4.201576 0.147860 7.284262 0.712728 4.046855 -3.487709 6.087172 1.696822 0.530346 -5.247603 -0.595606 0.340649 -7.492729 -6.660576 