0.000000 0.000000 0.000000 0.000000 -0.000000 0.000000 0.000000 0.000000 0.000000 0.000000 0.000000 0.000000 0.000000 0.000000 0.000000 0.000000 0.000000 0.000000 0.000000 0.000000 -0.000000 -0.000000 0.000000 0.000000 0.000000 0.000000 -0.000000 -0.000000 0.000000 0.000000 0.000000 0.000000 -0.000000 0.000000 0.000000 -0.000000 0.000000 0.000000 0.000000 0.000000 0.000000 0.000000 0.000000 -0.000000 0.000000 0.000000 -0.000000 0.000000 0.000000 0.000000 0.000000 0.000000 -0.000000 0.000000 0.000000 0.000000 0.000000 0.000000 0.000000 -0.000000 -0.000000 0.000000 -0.000000 0.000000 0.000000 0.000000 0.000000 -0.000000 -0.000000 0.000000 0.000000 0.000000 0.000000 0.000000 0.000000 0.000000 0.000000 0.000000 -0.000000 0.000000 0.000000 0.000000 0.000000 0.000000 0.000000 -0.000000 0.000000 0.000000 0.000000 0.000000 -0.000000 0.000000 0.000000 0.000000 -0.000000 -0.000000 -0.000001 -0.000006 -0.000022 -0.000062 -0.000146 -0.000303 -0.000569 -0.000990 -0.001622 -0.002526 -0.003771 -0.005429 -0.007580 -0.010300 -0.013672 -0.017772 -0.022677 -0.028459 -0.035184 -0.042915 -0.051703 -0.061595 -0.072629 -0.084832 -0.098226 -0.112820 -0.128617 -0.145611 -0.163787 -0.183121 -0.203584 -0.225139 -0.247743 -0.271346 -0.295895 -0.321330 -0.347592 -0.374613 -0.402327 -0.430665 -0.459556 -0.488929 -0.518713 -0.548837 -0.579231 -0.609826 -0.640556 -0.671354 -0.702157 -0.732905 -0.763540 -0.794006 -0.824251 -0.854225 -0.883882 -0.913179 -0.942076 -0.970536 -0.998525 -1.026013 -1.052972 -1.079374 -1.105192 -1.130395 -1.154949 -1.178812 -1.201938 -1.224274 -1.245761 -1.266332 -1.285918 -1.304445 -1.321838 -1.338018 -1.352911 -1.366441 -1.378540 -1.389141 -1.398190 -1.405640 -1.411461 -1.415638 -1.418173 -1.419085 -1.418412 -1.416211 -1.412552 -1.407525 -1.401228 -1.393773 -1.385283 -1.375886 -1.365715 -1.354905 -1.343595 -1.331921 -1.320015 -1.308006 -1.296019 -1.284170 -1.272569 -1.261315 -1.250502 -1.240212 -1.230517 -1.221481 -1.213159 -1.205594 -1.198823 -1.192871 -1.187758 -1.183493 -1.180080 -1.177514 -1.175787 -1.174881 -1.174778 -1.175451 -1.176872 -1.179009 -1.181825 -1.185285 -1.189348 -1.193975 -1.199124 -1.204752 -1.210819 -1.217281 -1.224098 -1.231228 -1.238632 -1.246272 -1.254109 -1.262108 -1.270235 -1.278457 -1.286742 -1.295062 -1.303386 -1.311680 -1.319910 -1.328032 -1.336000 -1.343756 -1.351239 -1.358380 -1.365104 -1.371329 -1.376974 -1.381952 -1.386175 -1.389560 -1.392021 -1.393480 -1.393865 -1.393112 -1.391173 -1.388011 -1.383608 -1.377963 -1.371093 -1.363035 -1.353840 -1.343576 -1.332326 -1.320186 -1.307261 -1.293665 -1.279519 -1.264948 -1.250077 -1.235034 -1.219944 -1.204928 -1.190103 -1.175582 -1.161468 -1.147858 -1.134840 -1.122494 -1.110890 -1.100090 -1.090144 -1.081096 -1.072979 -1.065818 -1.059629 -1.054421 -1.050195 -1.046945 -1.044660 -1.043321 -1.042906 -1.043387 -1.044733 -1.046908 -1.049875 -1.053594 -1.058021 -1.063113 -1.068826 -1.075115 -1.081932 -1.089234 -1.096974 -1.105109 -1.113594 -1.122387 -1.131448 -1.140735 -1.150211 -1.159840 -1.169587 -1.179418 -1.189301 -1.199201 -1.209081 -1.218898 -1.228604 -1.238143 -1.247455 -1.256469 -1.265109 -1.273297 -1.280946 -1.287969 -1.294278 -1.299785 -1.304401 -1.308045 -1.310638 -1.312108 -1.312394 -1.311445 -1.309227 -1.305722 -1.300931 -1.294870 -1.287577 -1.279106 -1.269525 -1.258921 -1.247390 -1.235043 -1.221996 -1.208374 -1.194304 -1.179919 -1.165348 -1.150721 -1.136164 -1.121799 -1.107741 -1.094098 -1.080972 -1.068453 -1.056624 -1.045559 -1.035321 -1.025964 -1.017532 -1.010061 -1.003575 -0.998093 -0.993623 -0.990167 -0.987718 -0.986264 -0.985787 -0.986263 -0.987662 -0.989953 -0.993098 -0.997057 -1.001790 -1.007250 -1.013393 -1.020172 -1.027539 -1.035447 -1.043848 -1.052694 -1.061940 -1.071539 -1.081447 -1.091621 -1.102019 -1.112602 -1.123331 -1.134171 -1.145086 -1.156043 -1.167008 -1.177944 -1.188812 -1.199564 -1.210149 -1.220507 -1.230571 -1.240268 -1.249521 -1.258245 -1.266355 -1.273762 -1.280379 -1.286117 -1.290893 -1.294625 -1.297240 -1.298668 -1.298847 -1.297725 -1.295258 -1.291409 -1.286153 -1.279473 -1.271362 -1.261823 -1.250866 -1.238512 -1.224788 -1.209731 -1.193381 -1.175789 -1.157009 -1.137099 -1.116125 -1.094152 -1.071253 -1.047498 -1.022963 -0.997723 -0.971853 -0.945429 -0.918527 -0.891220 -0.863582 -0.835684 -0.807596 -0.779387 -0.751130 -0.722898 -0.694769 -0.666824 -0.639152 -0.611842 -0.584990 -0.558694 -0.533058 -0.508180 -0.484163 -0.461106 -0.439106 -0.418256 -0.398643 -0.380349 -0.363447 -0.348003 -0.334073 -0.321704 -0.310936 -0.301797 -0.294304 -0.288469 -0.284289 -0.281757 -0.280855 -0.281556 -0.283828 -0.287631 -0.292917 -0.299635 -0.307727 -0.317132 -0.327786 -0.339618 -0.352560 -0.366540 -0.381482 -0.397315 -0.413962 -0.431351 -0.449408 -0.468061 -0.487239 -0.506875 -0.526900 -0.547251 -0.567866 -0.588685 -0.609652 -0.630713 -0.651818 -0.672918 -0.693970 -0.714930 -0.735761 -0.756426 -0.776892 -0.797126 -0.817094 -0.836759 -0.856083 -0.875020 -0.893520 -0.911526 -0.928979 -0.945810 -0.961950 -0.977327 -0.991867 -1.005496 -1.018140 -1.029728 -1.040192 -1.049471 -1.057510 -1.064264 -1.069702 -1.073806 -1.076575 -1.078021 -1.078176 -1.077084 -1.074806 -1.071417 -1.067001 -1.061652 -1.055475 -1.048580 -1.041081 -1.033094 -1.024738 -1.016129 -1.007381 -0.998605 -0.989907 -0.981385 -0.973133 -0.965237 -0.957773 -0.950812 -0.944414 -0.938633 -0.933512 -0.929087 -0.925387 -0.922431 -0.920233 -0.918799 -0.918128 -0.918214 -0.919047 -0.920608 -0.922878 -0.925831 -0.929440 -0.933674 -0.938499 -0.943881 -0.949782 -0.956166 -0.962993 -0.970225 -0.977823 -0.985749 -0.993964 -1.002431 -1.011114 -1.019978 -1.028988 -1.038111 -1.047317 -1.056577 -1.065861 -1.075142 -1.084395 -1.093588 -1.102691 -1.111664 -1.120466 -1.129048 -1.137354 -1.145323 -1.152888 -1.159977 -1.166519 -1.172437 -1.177656 -1.182099 -1.185694 -1.188370 -1.190063 -1.190717 -1.190285 -1.188734 -1.186046 -1.182217 -1.177259 -1.171201 -1.164087 -1.155977 -1.146942 -1.137064 -1.126437 -1.115161 -1.103344 -1.091098 -1.078535 -1.065770 -1.052917 -1.040085 -1.027381 -1.014907 -1.002759 -0.991026 -0.979789 -0.969123 -0.959092 -0.949754 -0.941158 -0.933344 -0.926346 -0.920187 -0.914885 -0.910450 -0.906884 -0.904184 -0.902342 -0.901342 -0.901167 -0.901791 -0.903189 -0.905329 -0.908179 -0.911703 -0.915863 -0.920622 -0.925938 -0.931773 -0.938084 -0.944832 -0.951976 -0.959475 -0.967291 -0.975385 -0.983721 -0.992262 -1.000974 -1.009823 -1.018780 -1.027813 -1.036893 -1.045991 -1.055075 -1.064110 -1.073055 -1.081863 -1.090483 -1.098856 -1.106918 -1.114598 -1.121823 -1.128519 -1.134607 -1.140009 -1.144648 -1.148450 -1.151343 -1.153262 -1.154148 -1.153952 -1.152637 -1.150181 -1.146574 -1.141826 -1.135960 -1.129017 -1.121053 -1.112137 -1.102349 -1.091781 -1.080535 -1.068717 -1.056440 -1.043819 -1.030972 -1.018014 -1.005059 -0.992218 -0.979595 -0.967292 -0.955401 -0.944008 -0.933190 -0.923018 -0.913553 -0.904846 -0.896943 -0.889878 -0.883678 -0.878364 -0.873946 -0.870431 -0.867814 -0.866089 -0.865242 -0.865254 -0.866102 -0.867758 -0.870191 -0.873368 -0.877252 -0.881804 -0.886985 -0.892753 -0.899067 -0.905883 -0.913160 -0.920855 -0.928927 -0.937334 -0.946036 -0.954994 -0.964171 -0.973530 -0.983036 -0.992657 -1.002360 -1.012116 -1.021894 -1.031665 -1.041394 -1.051045 -1.060573 -1.069930 -1.079062 -1.087906 -1.096397 -1.104462 -1.112029 -1.119019 -1.125357 -1.130963 -1.135761 -1.139679 -1.142647 -1.144602 -1.145484 -1.145244 -1.143837 -1.141227 -1.137385 -1.132294 -1.125941 -1.118324 -1.109447 -1.099325 -1.087977 -1.075430 -1.061720 -1.046885 -1.030970 -1.014027 -0.996108 -0.977271 -0.957578 -0.937090 -0.915873 -0.893993 -0.871516 -0.848509 -0.825040 -0.801173 -0.776975 -0.752508 -0.727836 -0.703018 -0.678117 -0.653193 -0.628307 -0.603521 -0.578901 -0.554513 -0.530422 -0.506698 -0.483411 -0.460627 -0.438415 -0.416840 -0.395968 -0.375858 -0.356570 -0.338156 -0.320666 -0.304143 -0.288627 -0.274149 -0.260736 -0.248410 -0.237185 -0.227071 -0.218070 -0.210180 -0.203394 -0.197698 -0.193075 -0.189503 -0.186957 -0.185405 -0.184817 -0.185156 -0.186384 -0.188461 -0.191346 -0.194995 -0.199364 -0.204409 -0.210086 -0.216348 -0.223153 -0.230455 -0.238211 -0.246379 -0.254917 -0.263785 -0.272944 -0.282357 -0.291989 -0.301804 -0.311771 -0.321858 -0.332037 -0.342279 -0.352560 -0.362855 -0.373142 -0.383400 -0.393607 -0.403742 -0.413781 -0.423697 -0.433463 -0.443047 -0.452413 -0.461524 -0.470340 -0.478819 -0.486920 -0.494597 -0.501810 -0.508513 -0.514668 -0.520236 -0.525181 -0.529475 -0.533094 -0.536023 -0.538254 -0.539789 -0.540638 -0.540820 -0.540363 -0.539304 -0.537683 -0.535549 -0.532956 -0.529960 -0.526623 -0.523006 -0.519173 -0.515187 -0.511110 -0.507002 -0.502923 -0.498926 -0.495064 -0.491385 -0.487932 -0.484744 -0.481856 -0.479299 -0.477098 -0.475273 -0.473841 -0.472815 -0.472203 -0.472009 -0.472233 -0.472874 -0.473925 -0.475378 -0.477222 -0.479444 -0.482028 -0.484958 -0.488216 -0.491782 -0.495636 -0.499757 -0.504124 -0.508715 -0.513508 -0.518483 -0.523617 -0.528889 -0.534280 -0.539769 -0.545337 -0.550965 -0.556636 -0.562333 -0.568040 -0.573741 -0.579423 -0.585068 -0.590660 -0.596180 -0.601604 -0.606907 -0.612060 -0.617030 -0.621781 -0.626274 -0.630471 -0.634328 -0.637805 -0.640860 -0.643451 -0.645538 -0.647085 -0.648058 -0.648431 -0.648180 -0.647294 -0.645765 -0.643599 -0.640807 -0.637411 -0.633440 -0.628932 -0.623930 -0.618483 -0.612646 -0.606477 -0.600037 -0.593389 -0.586596 -0.579722 -0.572828 -0.565975 -0.559220 -0.552618 -0.546220 -0.540073 -0.534220 -0.528698 -0.523542 -0.518781 -0.514440 -0.510538 -0.507090 -0.504109 -0.501601 -0.499569 -0.498014 -0.496931 -0.496314 -0.496153 -0.496437 -0.497151 -0.498280 -0.499805 -0.501709 -0.503969 -0.506566 -0.509478 -0.512682 -0.516156 -0.519878 -0.523825 -0.527976 -0.532307 -0.536799 -0.541430 -0.546180 -0.551030 -0.555961 -0.560956 -0.565998 -0.571070 -0.576157 -0.581242 -0.586306 -0.591327 -0.596282 -0.601143 -0.605879 -0.610456 -0.614835 -0.618977 -0.622842 -0.626385 -0.629565 -0.632339 -0.634663 -0.636499 -0.637808 -0.638559 -0.638723 -0.638279 -0.637214 -0.635525 -0.633215 -0.630298 -0.626796 -0.622739 -0.618165 -0.613119 -0.607650 -0.601813 -0.595665 -0.589268 -0.582683 -0.575974 -0.569203 -0.562431 -0.555717 -0.549119 -0.542688 -0.536475 -0.530526 -0.524882 -0.519580 -0.514653 -0.510127 -0.506028 -0.502372 -0.499175 -0.496447 -0.494193 -0.492416 -0.491115 -0.490285 -0.489919 -0.490006 -0.490534 -0.491488 -0.492852 -0.494608 -0.496735 -0.499214 -0.502023 -0.505141 -0.508544 -0.512211 -0.516119 -0.520245 -0.524567 -0.529064 -0.533715 -0.538497 -0.543393 -0.548382 -0.553446 -0.558567 -0.563730 -0.568917 -0.574113 -0.579300 -0.584460 -0.589570 -0.594605 -0.599538 -0.604337 -0.608967 -0.613390 -0.617565 -0.621451 -0.625004 -0.628183 -0.630945 -0.633247 -0.635050 -0.636317 -0.637014 -0.637110 -0.636577 -0.635394 -0.633542 -0.631007 -0.627781 -0.623858 -0.619240 -0.613931 -0.607939 -0.601277 -0.593962 -0.586014 -0.577456 -0.568315 -0.558618 -0.548397 -0.537683 -0.526512 -0.514918 -0.502938 -0.490607 -0.477964 -0.465045 -0.451886 -0.438524 -0.424996 -0.411335 -0.397577 -0.383758 -0.369917 -0.356096 -0.342344 -0.328714 -0.315267 -0.302069 -0.289192 -0.276713 -0.264714 -0.253278 -0.242490 -0.232433 -0.223193 -0.214850 -0.207481 -0.201157 -0.195945 -0.191903 -0.189083 -0.187529 -0.187275 -0.188348 -0.190764 -0.194533 -0.199655 -0.206122 -0.213918 -0.223020 -0.233396 -0.245011 -0.257821 -0.271779 -0.286832 -0.302922 -0.319991 -0.337975 -0.356809 -0.376426 -0.396759 -0.417740 -0.439300 -0.461370 -0.483885 -0.506777 -0.529982 -0.553437 -0.577081 -0.600855 -0.624704 -0.648573 -0.672411 -0.696170 -0.719805 -0.743272 -0.766533 -0.789551 -0.812291 -0.834723 -0.856817 -0.878545 -0.899879 -0.920785 -0.941228 -0.961168 -0.980558 -0.999347 -1.017476 -1.034884 -1.051504 -1.067267 -1.082103 -1.095940 -1.108710 -1.120343 -1.130775 -1.139947 -1.147807 -1.154313 -1.159435 -1.163157 -1.165477 -1.166411 -1.165990 -1.164261 -1.161285 -1.157138 -1.151906 -1.145687 -1.138586 -1.130716 -1.122193 -1.113138 -1.103670 -1.093910 -1.083975 -1.073979 -1.064030 -1.054232 -1.044681 -1.035466 -1.026667 -1.018358 -1.010603 -1.003457 -0.996967 -0.991172 -0.986103 -0.981782 -0.978224 -0.975439 -0.973427 -0.972184 -0.971700 -0.971960 -0.972945 -0.974630 -0.976990 -0.979993 -0.983608 -0.987800 -0.992532 -0.997768 -1.003470 -1.009599 -1.016116 -1.022983 -1.030162 -1.037615 -1.045307 -1.053201 -1.061263 -1.069461 -1.077763 -1.086140 -1.094562 -1.103003 -1.111436 -1.119832 -1.128159 -1.136381 -1.144456 -1.152337 -1.159969 -1.167292 -1.174241 -1.180745 -1.186731 -1.192124 -1.196848 -1.200827 -1.203986 -1.206256 -1.207569 -1.207869 -1.207109 -1.205253 -1.202280 -1.198186 -1.192981 -1.186691 -1.179360 -1.171043 -1.161813 -1.151748 -1.140941 -1.129491 -1.117504 -1.105091 -1.092363 -1.079433 -1.066415 -1.053416 -1.040545 -1.027900 -1.015579 -1.003668 -0.992250 -0.981399 -0.971179 -0.961648 -0.952855 -0.944841 -0.937637 -0.931270 -0.925756 -0.921106 -0.917322 -0.914402 -0.912337 -0.911113 -0.910711 -0.911109 -0.912279 -0.914191 -0.916813 -0.920109 -0.924043 -0.928576 -0.933669 -0.939281 -0.945372 -0.951901 -0.958829 -0.966115 -0.973722 -0.981609 -0.989741 -0.998082 -1.006598 -1.015255 -1.024023 -1.032871 -1.041771 -1.050692 -1.059604 -1.068470 -1.077251 -1.085899 -1.094363 -1.102585 -1.110499 -1.118036 -1.125123 -1.131684 -1.137641 -1.142916 -1.147432 -1.151114 -1.153892 -1.155700 -1.156481 -1.156188 -1.154790 -1.152265 -1.148612 -1.143843 -1.137987 -1.131087 -1.123204 -1.114408 -1.104784 -1.094425 -1.083431 -1.071911 -1.059975 -1.047737 -1.035311 -1.022810 -1.010344 -0.998019 -0.985938 -0.974194 -0.962877 -0.952068 -0.941839 -0.932255 -0.923374 -0.915243 -0.907902 -0.901384 -0.895710 -0.890899 -0.886958 -0.883890 -0.881691 -0.880352 -0.879856 -0.880184 -0.881312 -0.883212 -0.885853 -0.889201 -0.893220 -0.897871 -0.903117 -0.908915 -0.915227 -0.922009 -0.929222 -0.936823 -0.944774 -0.953034 -0.961565 -0.970330 -0.979292 -0.988417 -0.997671 -1.007024 -1.016444 -1.025904 -1.035373 -1.044818 -1.054206 -1.063495 -1.072640 -1.081587 -1.090278 -1.098650 -1.106633 -1.114153 -1.121134 -1.127500 -1.133172 -1.138073 -1.142129 -1.145269 -1.147427 -1.148541 -1.148559 -1.147432 -1.145121 -1.141596 -1.136833 -1.130818 -1.123544 -1.115013 -1.105235 -1.094228 -1.082016 -1.068631 -1.054109 -1.038494 -1.021833 -1.004180 -0.985589 -0.966122 -0.945839 -0.924805 -0.903085 -0.880745 -0.857853 -0.834474 -0.810675 -0.786523 -0.762080 -0.737410 -0.712575 -0.687639 -0.662667 -0.637730 -0.612901 -0.588262 -0.563900 -0.539907 -0.516382 -0.493426 -0.471146 -0.449648 -0.429040 -0.409426 -0.390909 -0.373590 -0.357559 -0.342905 -0.329705 -0.318028 -0.307935 -0.299476 -0.292690 -0.287608 -0.284247 -0.282615 -0.282713 -0.284526 -0.288036 -0.293211 -0.300015 -0.308402 -0.318319 -0.329710 -0.342509 -0.356650 -0.372059 -0.388662 -0.406382 -0.425138 -0.444851 -0.465438 -0.486819 -0.508913 -0.531640 -0.554921 -0.578681 -0.602843 -0.627337 -0.652091 -0.677040 -0.702119 -0.727267 -0.752428 -0.777546 -0.802571 -0.827454 -0.852153 -0.876626 -0.900834 -0.924743 -0.948317 -0.971520 -0.994312 -1.016649 -1.038480 -1.059750 -1.080395 -1.100347 -1.119533 -1.137871 -1.155283 -1.171686 -1.186998 -1.201137 -1.214025 -1.225588 -1.235758 -1.244476 -1.251694 -1.257381 -1.261519 -1.264109 -1.265171 -1.264740 -1.262872 -1.259638 -1.255126 -1.249434 -1.242672 -1.234962 -1.226429 -1.217207 -1.207429 -1.197230 -1.186746 -1.176106 -1.165438 -1.154862 -1.144493 -1.134436 -1.124791 -1.115645 -1.107078 -1.099159 -1.091950 -1.085499 -1.079850 -1.075032 -1.071070 -1.067978 -1.065763 -1.064425 -1.063957 -1.064345 -1.065571 -1.067611 -1.070436 -1.074015 -1.078313 -1.083291 -1.088910 -1.095128 -1.101902 -1.109188 -1.116942 -1.125121 -1.133679 -1.142573 -1.151762 -1.161204 -1.170859 -1.180687 -1.190652 -1.200718 -1.210852 -1.221021 -1.231195 -1.241343 -1.251431 -1.261423 -1.271276 -1.280941 -1.290363 -1.299479 -1.308220 -1.316510 -1.324267 -1.331410 -1.337853 -1.343509 -1.348292 -1.352119 -1.354911 -1.356594 -1.357105 -1.356392 -1.354417 -1.351157 -1.346610 -1.340788 -1.333726 -1.325472 -1.316093 -1.305671 -1.294299 -1.282083 -1.269136 -1.255582 -1.241545 -1.227154 -1.212539 -1.197828 -1.183146 -1.168613 -1.154346 -1.140452 -1.127032 -1.114178 -1.101975 -1.090496 -1.079807 -1.069962 -1.061007 -1.052980 -1.045908 -1.039810 -1.034698 -1.030574 -1.027435 -1.025270 -1.024064 -1.023793 -1.024433 -1.025951 -1.028314 -1.031482 -1.035418 -1.040076 -1.045415 -1.051388 -1.057951 -1.065055 -1.072656 -1.080707 -1.089163 -1.097979 -1.107113 -1.116521 -1.126163 -1.136001 -1.145995 -1.156112 -1.166317 -1.176576 -1.186857 -1.197123 -1.207334 -1.217444 -1.227400 -1.237143 -1.246607 -1.255719 -1.264400 -1.272566 -1.280132 -1.287010 -1.293111 -1.298348 -1.302636 -1.305894 -1.308049 -1.309033 -1.308792 -1.307282 -1.304479 -1.300372 -1.294972 -1.288306 -1.280418 -1.271374 -1.261250 -1.250139 -1.238144 -1.225380 -1.211968 -1.198037 -1.183716 -1.169139 -1.154437 -1.139738 -1.125169 -1.110848 -1.096889 -1.083397 -1.070470 -1.058197 -1.046655 -1.035914 -1.026034 -1.017065 -1.009046 -1.002008 -0.995975 -0.990958 -0.986963 -0.983988 -0.982024 -0.981056 -0.981061 -0.982014 -0.983883 -0.986634 -0.990228 -0.994623 -0.999776 -1.005642 -1.012174 -1.019325 -1.027045 -1.035288 -1.044005 -1.053149 -1.062674 -1.072533 -1.082682 -1.093080 -1.103684 -1.114455 -1.125356 -1.136350 -1.147405 -1.158485 -1.169557 -1.180582 -1.191518 -1.202315 -1.212918 -1.223266 -1.233289 -1.242911 -1.252050 -1.260625 -1.268547 -1.275728 -1.282080 -1.287518 -1.291957 -1.295319 -1.297533 -1.298532 -1.298257 -1.296660 -1.293699 -1.289344 -1.283570 -1.276367 -1.267731 -1.257668 -1.246192 -1.233326 -1.219103 -1.203560 -1.186742 -1.168701 -1.149493 -1.129179 -1.107826 -1.085501 -1.062276 -1.038224 -1.013421 -0.987941 -0.961860 -0.935255 -0.908200 -0.880768 -0.853033 -0.825065 -0.796932 -0.768704 -0.740448 -0.712233 -0.684128 -0.656205 -0.628535 -0.601191 -0.574247 -0.547777 -0.521853 -0.496547 -0.471928 -0.448065 -0.425021 -0.402857 -0.381630 -0.361389 -0.342182 -0.324047 -0.307018 -0.291124 -0.276385 -0.262818 -0.250431 -0.239228 -0.229206 -0.220357 -0.212669 -0.206122 -0.200694 -0.196358 -0.193085 -0.190840 -0.189586 -0.189285 -0.189895 -0.191374 -0.193676 -0.196757 -0.200571 -0.205071 -0.210213 -0.215948 -0.222233 -0.229022 -0.236272 -0.243939 -0.251983 -0.260363 -0.269040 -0.277978 -0.287140 -0.296493 -0.306006 -0.315647 -0.325388 -0.335203 -0.345066 -0.354953 -0.364843 -0.374713 -0.384540 -0.394299 -0.403964 -0.413505 -0.422890 -0.432082 -0.441043 -0.449731 -0.458106 -0.466122 -0.473737 -0.480907 -0.487587 -0.493736 -0.499316 -0.504291 -0.508631 -0.512314 -0.515324 -0.517653 -0.519304 -0.520286 -0.520619 -0.520332 -0.519461 -0.518046 -0.516135 -0.513782 -0.511044 -0.507980 -0.504651 -0.501121 -0.497451 -0.493701 -0.489933 -0.486202 -0.482562 -0.479064 -0.475755 -0.472676 -0.469866 -0.467358 -0.465181 -0.463360 -0.461914 -0.460860 -0.460207 -0.459965 -0.460135 -0.460719 -0.461713 -0.463111 -0.464904 -0.467080 -0.469626 -0.472526 -0.475764 -0.479321 -0.483177 -0.487313 -0.491707 -0.496339 -0.501186 -0.506227 -0.511441 -0.516806 -0.522302 -0.527908 -0.533605 -0.539373 -0.545194 -0.551051 -0.556927 -0.562806 -0.568674 -0.574516 -0.580314 -0.586053 -0.591711 -0.597266 -0.602692 -0.607957 -0.613030 -0.617874 -0.622448 -0.626713 -0.630629 -0.634154 -0.637244 -0.639859 -0.641961 -0.643512 -0.644481 -0.644841 -0.644572 -0.643663 -0.642109 -0.639916 -0.637099 -0.633680 -0.629690 -0.625169 -0.620161 -0.614717 -0.608891 -0.602743 -0.596334 -0.589727 -0.582986 -0.576174 -0.569352 -0.562581 -0.555917 -0.549414 -0.543122 -0.537089 -0.531355 -0.525959 -0.520933 -0.516305 -0.512099 -0.508335 -0.505026 -0.502183 -0.499813 -0.497918 -0.496498 -0.495547 -0.495060 -0.495025 -0.495431 -0.496264 -0.497506 -0.499139 -0.501146 -0.503505 -0.506195 -0.509194 -0.512480 -0.516031 -0.519825 -0.523838 -0.528050 -0.532437 -0.536980 -0.541657 -0.546449 -0.551336 -0.556300 -0.561324 -0.566391 -0.571485 -0.576589 -0.581688 -0.586760 -0.591786 -0.596739 -0.601592 -0.606312 -0.610866 -0.615215 -0.619318 -0.623133 -0.626620 -0.629733 -0.632431 -0.634672 -0.636416 -0.637626 -0.638271 -0.638322 -0.637761 -0.636575 -0.634760 -0.632322 -0.629275 -0.625642 -0.621455 -0.616753 -0.611580 -0.605986 -0.600028 -0.593763 -0.587253 -0.580562 -0.573751 -0.566885 -0.560024 -0.553229 -0.546555 -0.540056 -0.533783 -0.527780 -0.522090 -0.516749 -0.511789 -0.507239 -0.503121 -0.499454 -0.496252 -0.493524 -0.491277 -0.489512 -0.488228 -0.487420 -0.487081 -0.487199 -0.487762 -0.488755 -0.490161 -0.491962 -0.494137 -0.496666 -0.499528 -0.502700 -0.506159 -0.509883 -0.513850 -0.518035 -0.522418 -0.526975 -0.531686 -0.536530 -0.541487 -0.546537 -0.551661 -0.556843 -0.562065 -0.567312 -0.572566 -0.577811 -0.583027 -0.588193 -0.593283 -0.598270 -0.603121 -0.607803 -0.612276 -0.616500 -0.620433 -0.624034 -0.627258 -0.630064 -0.632409 -0.634255 -0.635562 -0.636299 -0.636433 -0.635938 -0.634791 -0.632974 -0.630473 -0.627280 -0.623390 -0.618802 -0.613523 -0.607560 -0.600926 -0.593638 -0.585717 -0.577184 -0.568067 -0.558394 -0.548196 -0.537505 -0.526355 -0.514782 -0.502821 -0.490509 -0.477884 -0.464983 -0.451841 -0.438496 -0.424983 -0.411337 -0.397594 -0.383790 -0.369964 -0.356162 -0.342433 -0.328835 -0.315434 -0.302300 -0.289514 -0.277158 -0.265324 -0.254103 -0.243588 -0.233875 -0.225056 -0.217220 -0.210455 -0.204840 -0.200449 -0.197348 -0.195594 -0.195237 -0.196314 -0.198856 -0.202882 -0.208402 -0.215417 -0.223916 -0.233883 -0.245292 -0.258107 -0.272288 -0.287787 -0.304549 -0.322516 -0.341624 -0.361805 -0.382989 -0.405104 -0.428073 -0.451822 -0.476273 -0.501349 -0.526975 -0.553075 -0.579574 -0.606400 -0.633482 -0.660753 -0.688146 -0.715599 -0.743050 -0.770443 -0.797725 -0.824843 -0.851751 -0.878404 -0.904761 -0.930785 -0.956440 -0.981695 -1.006517 -1.030875 -1.054733 -1.078050 -1.100782 -1.122876 -1.144273 -1.164910 -1.184716 -1.203616 -1.221533 -1.238387 -1.254098 -1.268588 -1.281779 -1.293599 -1.303981 -1.312868 -1.320214 -1.325985 -1.330166 -1.332757 -1.333779 -1.333268 -1.331278 -1.327883 -1.323168 -1.317233 -1.310189 -1.302157 -1.293263 -1.283641 -1.273426 -1.262754 -1.251759 -1.240573 -1.229325 -1.218136 -1.207122 -1.196390 -1.186039 -1.176160 -1.166833 -1.158131 -1.150113 -1.142833 -1.136333 -1.130646 -1.125798 -1.121805 -1.118675 -1.116410 -1.115003 -1.114444 -1.114715 -1.115794 -1.117654 -1.120264 -1.123591 -1.127598 -1.132246 -1.137495 -1.143302 -1.149626 -1.156423 -1.163650 -1.171264 -1.179223 -1.187484 -1.196008 -1.204754 -1.213684 -1.222763 -1.231955 -1.241226 -1.250546 -1.259884 -1.269209 -1.278489 -1.287686 -1.296759 -1.305658 -1.314329 -1.322709 -1.330729 -1.338312 -1.345380 -1.351847 -1.357629 -1.362640 -1.366792 -1.370004 -1.372195 -1.373291 -1.373225 -1.371942 -1.369397 -1.365563 -1.360429 -1.354002 -1.346307 -1.337386 -1.327302 -1.316130 -1.303960 -1.290896 -1.277051 -1.262545 -1.247508 -1.232069 -1.216361 -1.200517 -1.184667 -1.168938 -1.153452 -1.138322 -1.123657 -1.109556 -1.096110 -1.083399 -1.071495 -1.060460 -1.050345 -1.041193 -1.033036 -1.025899 -1.019796 -1.014734 -1.010712 -1.007723 -1.005753 -1.004780 -1.004779 -1.005721 -1.007569 -1.010287 -1.013834 -1.018166 -1.023237 -1.029002 -1.035412 -1.042419 -1.049975 -1.058031 -1.066540 -1.075455 -1.084729 -1.094318 -1.104178 -1.114268 -1.124547 -1.134978 -1.145524 -1.156149 -1.166821 -1.177504 -1.188162 -1.198751 -1.209224 -1.219527 -1.229598 -1.239370 -1.248768 -1.257712 -1.266117 -1.273898 -1.280965 -1.287231 -1.292607 -1.297011 -1.300362 -1.302590 -1.303633 -1.303443 -1.301986 -1.299246 -1.295226 -1.289944 -1.283440 -1.275768 -1.267001 -1.257222 -1.246531 -1.235035 -1.222851 -1.210101 -1.196913 -1.183413 -1.169732 -1.155994 -1.142323 -1.128838 -1.115649 -1.102862 -1.090575 -1.078875 -1.067841 -1.057545 -1.048047 -1.039397 -1.031639 -1.024804 -1.018918 -1.013995 -1.010044 -1.007064 -1.005050 -1.003988 -1.003859 -1.004641 -1.006304 -1.008816 -1.012142 -1.016242 -1.021075 -1.026599 -1.032769 -1.039540 -1.046866 -1.054700 -1.062997 -1.071711 -1.080798 -1.090213 -1.099913 -1.109858 -1.120008 -1.130324 -1.140769 -1.151310 -1.161913 -1.172544 -1.183171 -1.193755 -1.204255 -1.214622 -1.224802 -1.234732 -1.244344 -1.253563 -1.262307 -1.270494 -1.278036 -1.284845 -1.290833 -1.295914 -1.300004 -1.303027 -1.304908 -1.305582 -1.304992 -1.303086 -1.299825 -1.295176 -1.289118 -1.281637 -1.272730 -1.262404 -1.250672 -1.237558 -1.223093 -1.207315 -1.190269 -1.172006 -1.152583 -1.132061 -1.110505 -1.087984 -1.064568 -1.040332 -1.015349 -0.989696 -0.963448 -0.936681 -0.909469 -0.881886 -0.854005 -0.825895 -0.797626 -0.769266 -0.740884 -0.712547 -0.684326 -0.656290 -0.628512 -0.601065 -0.574021 -0.547456 -0.521441 -0.496048 -0.471347 -0.447405 -0.424287 -0.402052 -0.380757 -0.360453 -0.341186 -0.322994 -0.305912 -0.289968 -0.275183 -0.261573 -0.249146 -0.237905 -0.227849 -0.218969 -0.211252 -0.204679 -0.199228 -0.194871 -0.191580 -0.189319 -0.188052 -0.187739 -0.188340 -0.189811 -0.192108 -0.195186 -0.198999 -0.203500 -0.208643 -0.214382 -0.220672 -0.227468 -0.234725 -0.242402 -0.250456 -0.258848 -0.267538 -0.276489 -0.285666 -0.295036 -0.304565 -0.314223 -0.323983 -0.333816 -0.343698 -0.353606 -0.363516 -0.373407 -0.383255 -0.393037 -0.402724 -0.412287 -0.421694 -0.430909 -0.439894 -0.448605 -0.457003 -0.465043 -0.472681 -0.479873 -0.486576 -0.492749 -0.498351 -0.503348 -0.507709 -0.511409 -0.514431 -0.516766 -0.518414 -0.519385 -0.519696 -0.519373 -0.518451 -0.516972 -0.514981 -0.512531 -0.509681 -0.506489 -0.503018 -0.499331 -0.495490 -0.491559 -0.487599 -0.483667 -0.479819 -0.476108 -0.472581 -0.469282 -0.466253 -0.463527 -0.461135 -0.459103 -0.457452 -0.456200 -0.455359 -0.454937 -0.454939 -0.455365 -0.456213 -0.457478 -0.459150 -0.461219 -0.463672 -0.466492 -0.469664 -0.473168 -0.476985 -0.481094 -0.485475 -0.490105 -0.494963 -0.500027 -0.505274 -0.510683 -0.516232 -0.521900 -0.527668 -0.533515 -0.539423 -0.545374 -0.551349 -0.557334 -0.563313 -0.569269 -0.575189 -0.581054 -0.586847 -0.592544 -0.598120 -0.603548 -0.608794 -0.613824 -0.618599 -0.623080 -0.627225 -0.630994 -0.634344 -0.637232 -0.639621 -0.641471 -0.642748 -0.643423 -0.643472 -0.642877 -0.641631 -0.639734 -0.637194 -0.634030 -0.630267 -0.625941 -0.621095 -0.615773 -0.610031 -0.603926 -0.597518 -0.590870 -0.584048 -0.577114 -0.570134 -0.563168 -0.556277 -0.549518 -0.542944 -0.536605 -0.530546 -0.524809 -0.519430 -0.514440 -0.509866 -0.505732 -0.502054 -0.498847 -0.496118 -0.493874 -0.492115 -0.490840 -0.490043 -0.489715 -0.489845 -0.490421 -0.491426 -0.492844 -0.494655 -0.496839 -0.499376 -0.502243 -0.505418 -0.508878 -0.512601 -0.516563 -0.520741 -0.525114 -0.529660 -0.534356 -0.539183 -0.544120 -0.549147 -0.554247 -0.559402 -0.564595 -0.569811 -0.575031 -0.580240 -0.585417 -0.590539 -0.595582 -0.600516 -0.605308 -0.609924 -0.614323 -0.618466 -0.622311 -0.625816 -0.628936 -0.631630 -0.633855 -0.635574 -0.636751 -0.637353 -0.637357 -0.636744 -0.635506 -0.633640 -0.631156 -0.628070 -0.624408 -0.620204 -0.615498 -0.610335 -0.604769 -0.598856 -0.592653 -0.586225 -0.579632 -0.572938 -0.566205 -0.559493 -0.552860 -0.546363 -0.540052 -0.533977 -0.528181 -0.522703 -0.517580 -0.512842 -0.508514 -0.504619 -0.501173 -0.498188 -0.495674 -0.493635 -0.492071 -0.490980 -0.490357 -0.490193 -0.490476 -0.491194 -0.492330 -0.493868 -0.495789 -0.498073 -0.500699 -0.503646 -0.506891 -0.510412 -0.514188 -0.518194 -0.522409 -0.526810 -0.531377 -0.536089 -0.540924 -0.545863 -0.550888 -0.555980 -0.561122 -0.566298 -0.571492 -0.576688 -0.581867 -0.587009 -0.592092 -0.597089 -0.601971 -0.606705 -0.611254 -0.615579 -0.619640 -0.623395 -0.626800 -0.629813 -0.632391 -0.634494 -0.636082 -0.637120 -0.637574 -0.637416 -0.636620 -0.635165 -0.633035 -0.630218 -0.626707 -0.622500 -0.617598 -0.612007 -0.605739 -0.598807 -0.591229 -0.583028 -0.574226 -0.564852 -0.554935 -0.544506 -0.533598 -0.522246 -0.510486 -0.498354 -0.485887 -0.473122 -0.460096 -0.446845 -0.433405 -0.419813 -0.406103 -0.392312 -0.378478 -0.364643 -0.350855 -0.337168 -0.323641 -0.310339 -0.297335 -0.284705 -0.272530 -0.260895 -0.249883 -0.239582 -0.230075 -0.221444 -0.213768 -0.207120 -0.201568 -0.197173 -0.193988 -0.192059 -0.191423 -0.192108 -0.194133 -0.197510 -0.202241 -0.208320 -0.215732 -0.224455 -0.234462 -0.245716 -0.258176 -0.271795 -0.286522 -0.302300 -0.319070 -0.336771 -0.355337 -0.374702 -0.394799 -0.415559 -0.436914 -0.458797 -0.481138 -0.503873 -0.526936 -0.550264 -0.573795 -0.597470 -0.621233 -0.645028 -0.668806 -0.692515 -0.716112 -0.739551 -0.762794 -0.785803 -0.808542 -0.830981 -0.853090 -0.874841 -0.896204 -0.917149 -0.937640 -0.957638 -0.977097 -0.995968 -1.014192 -1.031709 -1.048454 -1.064356 -1.079348 -1.093356 -1.106312 -1.118145 -1.128792 -1.138192 -1.146293 -1.153051 -1.158438 -1.162435 -1.165043 -1.166277 -1.166166 -1.164759 -1.162115 -1.158310 -1.153429 -1.147570 -1.140837 -1.133340 -1.125195 -1.116521 -1.107436 -1.098057 -1.088502 -1.078881 -1.069302 -1.059866 -1.050668 -1.041794 -1.033325 -1.025331 -1.017875 -1.011012 -1.004788 -0.999240 -0.994399 -0.990287 -0.986918 -0.984301 -0.982436 -0.981320 -0.980942 -0.981288 -0.982339 -0.984070 -0.986457 -0.989469 -0.993075 -0.997240 -1.001930 -1.007108 -1.012736 -1.018778 -1.025195 -1.031950 -1.039005 -1.046325 -1.053873 -1.061615 -1.069517 -1.077549 -1.085678 -1.093876 -1.102116 -1.110370 -1.118612 -1.126813 -1.134940 -1.142956 -1.150820 -1.158481 -1.165885 -1.172970 -1.179671 -1.185916 -1.191631 -1.196741 -1.201171 -1.204843 -1.207685 -1.209627 -1.210606 -1.210565 -1.209462 -1.207265 -1.203957 -1.199540 -1.194027 -1.187450 -1.179856 -1.171305 -1.161871 -1.151638 -1.140699 -1.129154 -1.117112 -1.104680 -1.091973 -1.079100 -1.066174 -1.053301 -1.040586 -1.028126 -1.016014 -1.004337 -0.993171 -0.982587 -0.972648 -0.963408 -0.954912 -0.947198 -0.940297 -0.934230 -0.929011 -0.924650 -0.921146 -0.918496 -0.916689 -0.915710 -0.915538 -0.916149 -0.917516 -0.919609 -0.922393 -0.925833 -0.929894 -0.934535 -0.939717 -0.945402 -0.951548 -0.958117 -0.965067 -0.972360 -0.979958 -0.987823 -0.995919 -1.004211 -1.012666 -1.021252 -1.029938 -1.038695 -1.047494 -1.056304 -1.065094 -1.073825 -1.082455 -1.090936 -1.099212 -1.107223 -1.114903 -1.122180 -1.128979 -1.135224 -1.140836 -1.145738 -1.149853 -1.153109 -1.155436 -1.156774 -1.157071 -1.156288 -1.154401 -1.151398 -1.147287 -1.142090 -1.135844 -1.128601 -1.120430 -1.111407 -1.101622 -1.091171 -1.080158 -1.068692 -1.056883 -1.044844 -1.032687 -1.020520 -1.008452 -0.996582 -0.985006 -0.973815 -0.963091 -0.952908 -0.943333 -0.934425 -0.926233 -0.918801 -0.912161 -0.906341 -0.901358 -0.897224 -0.893944 -0.891515 -0.889931 -0.889177 -0.889237 -0.890088 -0.891704 -0.894055 -0.897109 -0.900832 -0.905187 -0.910136 -0.915640 -0.921659 -0.928152 -0.935080 -0.942402 -0.950079 -0.958071 -0.966341 -0.974851 -0.983566 -0.992451 -1.001473 -1.010601 -1.019806 -1.029057 -1.038326 -1.047583 -1.056791 -1.065913 -1.074904 -1.083712 -1.092281 -1.100547 -1.108443 -1.115895 -1.122829 -1.129166 -1.134829 -1.139741 -1.143827 -1.147014 -1.149237 -1.150432 -1.150544 -1.149525 -1.147333 -1.143937 -1.139310 -1.133437 -1.126310 -1.117928 -1.108301 -1.097443 -1.085378 -1.072136 -1.057753 -1.042271 -1.025737 -1.008202 -0.989721 -0.970354 -0.950162 -0.929207 -0.907557 -0.885276 -0.862431 -0.839089 -0.815316 -0.791179 -0.766740 -0.742064 -0.717213 -0.692248 -0.667235 -0.642239 -0.617334 -0.592597 -0.568112 -0.543969 -0.520264 -0.497095 -0.474567 -0.452788 -0.431862 -0.411896 -0.392992 -0.375252 -0.358770 -0.343635 -0.329927 -0.317720 -0.307076 -0.298050 -0.290686 -0.285016 -0.281062 -0.278838 -0.278345 -0.279575 -0.282510 -0.287124 -0.293383 -0.301243 -0.310656 -0.321564 -0.333907 -0.347617 -0.362625 -0.378856 -0.396233 -0.414678 -0.434109 -0.454447 -0.475609 -0.497515 -0.520085 -0.543238 -0.566898 -0.590989 -0.615438 -0.640174 -0.665130 -0.690238 -0.715439 -0.740673 -0.765884 -0.791020 -0.816032 -0.840875 -0.865506 -0.889887 -0.913980 -0.937751 -0.961165 -0.984182 -1.006761 -1.028854 -1.050408 -1.071361 -1.091648 -1.111197 -1.129931 -1.147768 -1.164629 -1.180429 -1.195088 -1.208526 -1.220667 -1.231441 -1.240789 -1.248663 -1.255029 -1.259870 -1.263188 -1.265001 -1.265345 -1.264275 -1.261860 -1.258187 -1.253354 -1.247468 -1.240647 -1.233015 -1.224700 -1.215833 -1.206546 -1.196968 -1.187227 -1.177445 -1.167739 -1.158219 -1.148987 -1.140139 -1.131759 -1.123923 -1.116698 -1.110142 -1.104303 -1.099221 -1.094925 -1.091438 -1.088774 -1.086939 -1.085932 -1.085746 -1.086370 -1.087783 -1.089963 -1.092884 -1.096515 -1.100821 -1.105766 -1.111313 -1.117420 -1.124048 -1.131154 -1.138696 -1.146632 -1.154921 -1.163520 -1.172390 -1.181492 -1.190786 -1.200236 -1.209807 -1.219466 -1.229180 -1.238918 -1.248652 -1.258351 -1.267979 -1.277500 -1.286868 -1.296033 -1.304937 -1.313515 -1.321694 -1.329399 -1.336547 -1.343052 -1.348829 -1.353794 -1.357859 -1.360945 -1.362973 -1.363874 -1.363587 -1.362068 -1.359283 -1.355217 -1.349876 -1.343278 -1.335465 -1.326492 -1.316431 -1.305371 -1.293409 -1.280655 -1.267225 -1.253243 -1.238837 -1.224135 -1.209266 -1.194358 -1.179533 -1.164911 -1.150604 -1.136717 -1.123347 -1.110584 -1.098508 -1.087187 -1.076685 -1.067052 -1.058330 -1.050552 -1.043742 -1.037917 -1.033084 -1.029243 -1.026388 -1.024506 -1.023579 -1.023581 -1.024486 -1.026260 -1.028867 -1.032269 -1.036424 -1.041289 -1.046820 -1.052970 -1.059695 -1.066947 -1.074680 -1.082848 -1.091406 -1.100311 -1.109518 -1.118987 -1.128677 -1.138550 -1.148569 -1.158698 -1.168905 -1.179156 -1.189416 -1.199649 -1.209811 -1.219854 -1.229722 -1.239355 -1.248681 -1.257627 -1.266111 -1.274048 -1.281351 -1.287931 -1.293702 -1.298575 -1.302469 -1.305305 -1.307014 -1.307538 -1.306833 -1.304871 -1.301640 -1.297148 -1.291420 -1.284498 -1.276442 -1.267329 -1.257248 -1.246297 -1.234588 -1.222237 -1.209368 -1.196107 -1.182581 -1.168918 -1.155240 -1.141670 -1.128321 -1.115303 -1.102717 -1.090657 -1.079207 -1.068443 -1.058432 -1.049231 -1.040887 -1.033439 -1.026916 -1.021340 -1.016724 -1.013073 -1.010385 -1.008651 -1.007857 -1.007982 -1.009001 -1.010885 -1.013600 -1.017110 -1.021376 -1.026356 -1.032007 -1.038285 -1.045146 -1.052542 -1.060428 -1.068760 -1.077491 -1.086579 -1.095979 -1.105650 -1.115552 -1.125645 -1.135892 -1.146257 -1.156707 -1.167209 -1.177730 -1.188235 -1.198685 -1.209035 -1.219235 -1.229226 -1.238946 -1.248321 -1.257275 -1.265726 -1.273587 -1.280771 -1.287190 -1.292756 -1.297386 -1.300996 -1.303512 -1.304862 -1.304985 -1.303824 -1.301334 -1.297477 -1.292225 -1.285560 -1.277472 -1.267963 -1.257041 -1.244724 -1.231038 -1.216018 -1.199703 -1.182143 -1.163390 -1.143502 -1.122542 -1.100577 -1.077676 -1.053912 -1.029358 -1.004089 -0.978182 -0.951710 -0.924751 -0.897378 -0.869664 -0.841680 -0.813497 -0.785184 -0.756810 -0.728442 -0.700151 -0.672007 -0.644082 -0.616450 -0.589184 -0.562357 -0.536045 -0.510322 -0.485257 -0.460919 -0.437375 -0.414687 -0.392914 -0.372109 -0.352319 -0.333589 -0.315953 -0.299444 -0.284086 -0.269896 -0.256886 -0.245062 -0.234425 -0.224969 -0.216682 -0.209548 -0.203548 -0.198655 -0.194841 -0.192073 -0.190316 -0.189531 -0.189679 -0.190717 -0.192600 -0.195285 -0.198725 -0.202875 -0.207687 -0.213117 -0.219117 -0.225644 -0.232652 -0.240099 -0.247941 -0.256139 -0.264653 -0.273445 -0.282480 -0.291721 -0.301137 -0.310696 -0.320370 -0.330130 -0.339950 -0.349806 -0.359676 -0.369537 -0.379367 -0.389141 -0.398834 -0.408417 -0.417858 -0.427123 -0.436174 -0.444972 -0.453475 -0.461638 -0.469417 -0.476769 -0.483650 -0.490018 -0.495832 -0.501056 -0.505656 -0.509605 -0.512883 -0.515478 -0.517386 -0.518613 -0.519172 -0.519086 -0.518387 -0.517114 -0.515312 -0.513031 -0.510326 -0.507256 -0.503882 -0.500268 -0.496476 -0.492569 -0.488610 -0.484656 -0.480765 -0.476991 -0.473383 -0.469987 -0.466845 -0.463993 -0.461465 -0.459287 -0.457483 -0.456072 -0.455067 -0.454479 -0.454314 -0.454574 -0.455257 -0.456360 -0.457875 -0.459792 -0.462097 -0.464778 -0.467817 -0.471196 -0.474896 -0.478897 -0.483179 -0.487718 -0.492495 -0.497485 -0.502669 -0.508023 -0.513525 -0.519156 -0.524894 -0.530720 -0.536613 -0.542557 -0.548532 -0.554523 -0.560514 -0.566489 -0.572433 -0.578331 -0.584163 -0.589908 -0.595544 -0.601043 -0.606374 -0.611503 -0.616393 -0.621005 -0.625298 -0.629230 -0.632759 -0.635845 -0.638445 -0.640522 -0.642040 -0.642967 -0.643277 -0.642951 -0.641979 -0.640357 -0.638093 -0.635200 -0.631703 -0.627634 -0.623034 -0.617948 -0.612426 -0.606525 -0.600304 -0.593826 -0.587154 -0.580353 -0.573484 -0.566612 -0.559795 -0.553092 -0.546556 -0.540237 -0.534183 -0.528434 -0.523029 -0.518001 -0.513376 -0.509179 -0.505429 -0.502140 -0.499322 -0.496982 -0.495122 -0.493740 -0.492833 -0.492392 -0.492407 -0.492866 -0.493754 -0.495055 -0.496749 -0.498819 -0.501242 -0.503997 -0.507063 -0.510417 -0.514037 -0.517899 -0.521982 -0.526262 -0.530718 -0.535330 -0.540075 -0.544934 -0.549888 -0.554918 -0.560006 -0.565137 -0.570293 -0.575459 -0.580618 -0.585749 -0.590831 -0.595840 -0.600747 -0.605521 -0.610126 -0.614525 -0.618676 -0.622538 -0.626069 -0.629226 -0.631966 -0.634248 -0.636031 -0.637279 -0.637960 -0.638048 -0.637524 -0.636376 -0.634602 -0.632208 -0.629209 -0.625628 -0.621499 -0.616861 -0.611758 -0.606241 -0.600366 -0.594191 -0.587778 -0.581190 -0.574488 -0.567736 -0.560994 -0.554320 -0.547772 -0.541401 -0.535256 -0.529383 -0.523822 -0.518609 -0.513776 -0.509349 -0.505351 -0.501800 -0.498709 -0.496087 -0.493940 -0.492270 -0.491074 -0.490347 -0.490081 -0.490266 -0.490889 -0.491934 -0.493385 -0.495223 -0.497429 -0.499981 -0.502859 -0.506040 -0.509503 -0.513224 -0.517180 -0.521351 -0.525713 -0.530245 -0.534925 -0.539734 -0.544651 -0.549658 -0.554736 -0.559867 -0.565036 -0.570227 -0.575422 -0.580605 -0.585756 -0.590853 -0.595869 -0.600777 -0.605543 -0.610133 -0.614508 -0.618626 -0.622446 -0.625926 -0.629022 -0.631692 -0.633895 -0.635591 -0.636744 -0.637319 -0.637288 -0.636624 -0.635305 -0.633314 -0.630638 -0.627269 -0.623203 -0.618443 -0.612992 -0.606861 -0.600064 -0.592617 -0.584541 -0.575861 -0.566602 -0.556794 -0.546468 -0.535657 -0.524394 -0.512716 -0.500659 -0.488259 -0.475554 -0.462580 -0.449375 -0.435973 -0.422412 -0.408725 -0.394948 -0.381117 -0.367269 -0.353448 -0.339701 -0.326081 -0.312650 -0.299472 -0.286619 -0.274169 -0.262203 -0.250803 -0.240053 -0.230039 -0.220843 -0.212546 -0.205225 -0.198952 -0.193792 -0.189803 -0.187038 -0.185538 -0.185340 -0.186468 -0.188941 -0.192766 -0.197945 -0.204468 -0.212320 -0.221476 -0.231908 -0.243577 -0.256441 -0.270451 -0.285556 -0.301697 -0.318816 -0.336849 -0.355731 -0.375395 -0.395775 -0.416800 -0.438404 -0.460517 -0.483073 -0.506006 -0.529250 -0.552744 -0.576425 -0.600236 -0.624119 -0.648022 -0.671894 -0.695685 -0.719351 -0.742849 -0.766139 -0.789185 -0.811952 -0.834411 -0.856530 -0.878283 -0.899640 -0.920570 -0.941036 -0.960997 -0.980408 -0.999217 -1.017365 -1.034792 -1.051429 -1.067210 -1.082062 -1.095916 -1.108701 -1.120348 -1.130795 -1.139981 -1.147856 -1.154378 -1.159517 -1.163261 -1.165609 -1.166577 -1.166200 -1.164523 -1.161611 -1.157541 -1.152398 -1.146281 -1.139297 -1.131556 -1.123177 -1.114277 -1.104977 -1.095395 -1.085648 -1.075848 -1.066102 -1.056512 -1.047174 -1.038173 -1.029589 -1.021494 -1.013951 -1.007013 -1.000726 -0.995127 -0.990247 -0.986107 -0.982721 -0.980097 -0.978235 -0.977130 -0.976773 -0.977147 -0.978234 -0.980008 -0.982444 -0.985511 -0.989177 -0.993407 -0.998166 -1.003417 -1.009122 -1.015243 -1.021741 -1.028580 -1.035721 -1.043127 -1.050763 -1.058594 -1.066586 -1.074706 -1.082924 -1.091211 -1.099539 -1.107881 -1.116210 -1.124496 -1.132708 -1.140808 -1.148753 -1.156495 -1.163978 -1.171141 -1.177918 -1.184237 -1.190025 -1.195207 -1.199706 -1.203446 -1.206354 -1.208360 -1.209400 -1.209416 -1.208363 -1.206208 -1.202930 -1.198527 -1.193010 -1.186409 -1.178767 -1.170142 -1.160606 -1.150243 -1.139144 -1.127410 -1.115149 -1.102471 -1.089490 -1.076320 -1.063074 -1.049861 -1.036789 -1.023958 -1.011465 -0.999398 -0.987838 -0.976858 -0.966525 -0.956895 -0.948017 -0.939931 -0.932670 -0.926258 -0.920711 -0.916039 -0.912245 -0.909325 -0.907271 -0.906067 -0.905695 -0.906130 -0.907345 -0.909310 -0.911990 -0.915352 -0.919356 -0.923964 -0.929136 -0.934831 -0.941009 -0.947629 -0.954649 -0.962030 -0.969732 -0.977717 -0.985948 -0.994389 -1.003004 -1.011762 -1.020630 -1.029578 -1.038577 -1.047597 -1.056607 -1.065570 -1.074446 -1.083189 -1.091747 -1.100060 -1.108064 -1.115691 -1.122865 -1.129511 -1.135552 -1.140909 -1.145505 -1.149266 -1.152120 -1.154004 -1.154860 -1.154643 -1.153322 -1.150878 -1.147311 -1.142634 -1.136877 -1.130087 -1.122323 -1.113659 -1.104178 -1.093974 -1.083148 -1.071808 -1.060064 -1.048030 -1.035818 -1.023540 -1.011305 -0.999219 -0.987381 -0.975884 -0.964817 -0.954257 -0.944277 -0.934941 -0.926303 -0.918410 -0.911301 -0.905005 -0.899547 -0.894941 -0.891195 -0.888310 -0.886283 -0.885102 -0.884752 -0.885213 -0.886461 -0.888467 -0.891200 -0.894627 -0.898712 -0.903416 -0.908701 -0.914528 -0.920855 -0.927642 -0.934847 -0.942432 -0.950355 -0.958578 -0.967064 -0.975774 -0.984675 -0.993730 -1.002909 -1.012180 -1.021514 -1.030881 -1.040251 -1.049593 -1.058871 -1.068041 -1.077059 -1.085869 -1.094413 -1.102624 -1.110434 -1.117768 -1.124550 -1.130702 -1.136146 -1.140806 -1.144608 -1.147482 