7.44983229107013045223 7.44983229107013045223 7.44983229107013045223 9.99289839306800864449 4.90676618907224870725 4.90676618907224870725 9.99289839306800864449 12.53596449506589038947 12.53596449506589038947 15.07903059706377035809 15.07903059706377035809 9.99289839306800864449 7.44983229107013045223 9.99289839306800864449 17.62209669906165032671 12.53596449506589038947 12.53596449506589038947 7.44983229107013045223 7.44983229107013045223 4.90676618907224870725 9.99289839306800864449 9.99289839306800864449 9.99289839306800864449 9.99289839306800864449 9.99289839306800864449 15.07903059706377035809 12.53596449506589038947 15.07903059706377035809 12.53596449506589038947 12.53596449506589038947 12.53596449506589038947 15.07903059706377035809 12.53596449506589038947 15.07903059706377035809 12.53596449506589038947 9.99289839306800864449 15.07903059706377035809 12.53596449506589038947 7.44983229107013045223 9.99289839306800864449 9.99289839306800864449 7.44983229107013045223 7.44983229107013045223 9.99289839306800864449 2.36370008707436829454 7.44983229107013045223 7.44983229107013045223 2.36370008707436829454 7.44983229107013045223 7.44983229107013045223 2.36370008707436829454 9.99289839306800864449 7.44983229107013045223 2.36370008707436829454 2.36370008707436829454 2.36370008707436829454 2.36370008707436829454 2.36370008707436829454 -0.17936601492351220144 -2.72243211692139253088 -2.72243211692139253088 -2.72243211692139253088 2.36370008707436829454 4.90676618907224870725 4.90676618907224870725 4.90676618907224870725 -0.17936601492351220144 -0.17936601492351220144 2.36370008707436829454 2.36370008707436829454 2.36370008707436829454 9.99289839306800864449 -0.17936601492351220144 -7.80856432091715380039 -0.17936601492351220144 -2.72243211692139253088 -0.17936601492351220144 2.36370008707436829454 2.36370008707436829454 -2.72243211692139253088 -5.26549821891927294359 -5.26549821891927294359 -0.17936601492351220144 -2.72243211692139253088 -2.72243211692139253088 -5.26549821891927294359 -5.26549821891927294359 -7.80856432091715380039 -7.80856432091715380039 -12.89469652491291640217 -10.35163042291503465719 -5.26549821891927294359 -10.35163042291503465719 -5.26549821891927294359 -2.72243211692139253088 -7.80856432091715380039 -5.26549821891927294359 -12.89469652491291640217 -7.80856432091715380039 -7.80856432091715380039 -7.80856432091715380039 -5.26549821891927294359 -10.35163042291503465719 -2.72243211692139253088 -7.80856432091715380039 -7.80856432091715380039 -7.80856432091715380039 -10.35163042291503465719 -12.89469652491291640217 -10.35163042291503465719 -5.26549821891927294359 -7.80856432091715380039 -7.80856432091715380039 -7.80856432091715380039 -10.35163042291503465719 -12.89469652491291640217 -15.43776262691079637079 -12.89469652491291640217 -7.80856432091715380039 -5.26549821891927294359 -10.35163042291503465719 -7.80856432091715380039 -7.80856432091715380039 -10.35163042291503465719 -17.98082872890867633942 -10.35163042291503465719 -7.80856432091715380039 -5.26549821891927294359 -5.26549821891927294359 -7.80856432091715380039 -10.35163042291503465719 -2.72243211692139253088 -7.80856432091715380039 -7.80856432091715380039 -2.72243211692139253088 -5.26549821891927294359 -5.26549821891927294359 -12.89469652491291640217 -2.72243211692139253088 2.36370008707436829454 -0.17936601492351220144 -0.17936601492351220144 -2.72243211692139253088 -5.26549821891927294359 -2.72243211692139253088 -2.72243211692139253088 -2.72243211692139253088 -0.17936601492351220144 2.36370008707436829454 -2.72243211692139253088 -0.17936601492351220144 -0.17936601492351220144 -0.17936601492351220144 -0.17936601492351220144 -0.17936601492351220144 2.36370008707436829454 2.36370008707436829454 -2.72243211692139253088 -5.26549821891927294359 -2.72243211692139253088 -0.17936601492351220144 2.36370008707436829454 -0.17936601492351220144 2.36370008707436829454 -0.17936601492351220144 4.90676618907224870725 -2.72243211692139253088 -7.80856432091715380039 -7.80856432091715380039 -2.72243211692139253088 -2.72243211692139253088 4.90676618907224870725 -0.17936601492351220144 -2.72243211692139253088 2.36370008707436829454 -0.17936601492351220144 -5.26549821891927294359 -5.26549821891927294359 -5.26549821891927294359 -5.26549821891927294359 -0.17936601492351220144 -5.26549821891927294359 -2.72243211692139253088 -0.17936601492351220144 -5.26549821891927294359 -0.17936601492351220144 -2.72243211692139253088 -2.72243211692139253088 -0.17936601492351220144 -2.72243211692139253088 -5.26549821891927294359 -5.26549821891927294359 -0.17936601492351220144 4.90676618907224870725 -2.72243211692139253088 2.36370008707436829454 -0.17936601492351220144 -5.26549821891927294359 -2.72243211692139253088 -5.26549821891927294359 -0.17936601492351220144 -5.26549821891927294359 2.36370008707436829454 2.36370008707436829454 -0.17936601492351220144 -2.72243211692139253088 -5.26549821891927294359 -0.17936601492351220144 -0.17936601492351220144 2.36370008707436829454 2.36370008707436829454 -5.26549821891927294359 -2.72243211692139253088 -0.17936601492351220144 -2.72243211692139253088 -5.26549821891927294359 -5.26549821891927294359 -0.17936601492351220144 -2.72243211692139253088 -2.72243211692139253088 -0.17936601492351220144 -2.72243211692139253088 -0.17936601492351220144 -5.26549821891927294359 -2.72243211692139253088 -5.26549821891927294359 -0.17936601492351220144 -0.17936601492351220144 -5.26549821891927294359 -2.72243211692139253088 -7.80856432091715380039 -5.26549821891927294359 -7.80856432091715380039 -5.26549821891927294359 2.36370008707436829454 -0.17936601492351220144 -0.17936601492351220144 -7.80856432091715380039 -5.26549821891927294359 -7.80856432091715380039 -7.80856432091715380039 -7.80856432091715380039 -5.26549821891927294359 -2.72243211692139253088 -2.72243211692139253088 -2.72243211692139253088 -2.72243211692139253088 -5.26549821891927294359 -5.26549821891927294359 -5.26549821891927294359 -0.17936601492351220144 -2.72243211692139253088 -0.17936601492351220144 -0.17936601492351220144 -7.80856432091715380039 -5.26549821891927294359 -2.72243211692139253088 -2.72243211692139253088 2.36370008707436829454 2.36370008707436829454 -0.17936601492351220144 -2.72243211692139253088 -2.72243211692139253088 -0.17936601492351220144 -0.17936601492351220144 2.36370008707436829454 2.36370008707436829454 2.36370008707436829454 -2.72243211692139253088 2.36370008707436829454 -2.72243211692139253088 4.90676618907224870725 4.90676618907224870725 2.36370008707436829454 2.36370008707436829454 -0.17936601492351220144 -0.17936601492351220144 -2.72243211692139253088 -0.17936601492351220144 -7.80856432091715380039 -5.26549821891927294359 -2.72243211692139253088 -0.17936601492351220144 -2.72243211692139253088 2.36370008707436829454 -0.17936601492351220144 -0.17936601492351220144 -2.72243211692139253088 -5.26549821891927294359 -2.72243211692139253088 -2.72243211692139253088 -2.72243211692139253088 -0.17936601492351220144 -0.17936601492351220144 -5.26549821891927294359 -2.72243211692139253088 -2.72243211692139253088 -5.26549821891927294359 -7.80856432091715380039 -5.26549821891927294359 -2.72243211692139253088 -2.72243211692139253088 -0.17936601492351220144 -0.17936601492351220144 -5.26549821891927294359 -0.17936601492351220144 -5.26549821891927294359 -7.80856432091715380039 -5.26549821891927294359 -2.72243211692139253088 -0.17936601492351220144 -5.26549821891927294359 -2.72243211692139253088 -7.80856432091715380039 -5.26549821891927294359 -2.72243211692139253088 -7.80856432091715380039 -10.35163042291503465719 -0.17936601492351220144 -0.17936601492351220144 -0.17936601492351220144 -0.17936601492351220144 -5.26549821891927294359 -2.72243211692139253088 -5.26549821891927294359 -12.89469652491291640217 -2.72243211692139253088 -7.80856432091715380039 -2.72243211692139253088 -5.26549821891927294359 -2.72243211692139253088 -2.72243211692139253088 -0.17936601492351220144 -2.72243211692139253088 -7.80856432091715380039 -7.80856432091715380039 -7.80856432091715380039 -5.26549821891927294359 2.36370008707436829454 -2.72243211692139253088 -7.80856432091715380039 -2.72243211692139253088 -2.72243211692139253088 -5.26549821891927294359 -7.80856432091715380039 -7.80856432091715380039 -2.72243211692139253088 2.36370008707436829454 -2.72243211692139253088 -2.72243211692139253088 -2.72243211692139253088 -5.26549821891927294359 -5.26549821891927294359 -7.80856432091715380039 -5.26549821891927294359 -7.80856432091715380039 -5.26549821891927294359 -0.17936601492351220144 -5.26549821891927294359 -5.26549821891927294359 -5.26549821891927294359 -0.17936601492351220144 -2.72243211692139253088 -5.26549821891927294359 -7.80856432091715380039 -2.72243211692139253088 -0.17936601492351220144 -2.72243211692139253088 -0.17936601492351220144 -2.72243211692139253088 -2.72243211692139253088 -5.26549821891927294359 -7.80856432091715380039 -7.80856432091715380039 2.36370008707436829454 -5.26549821891927294359 -0.17936601492351220144 -5.26549821891927294359 -2.72243211692139253088 -0.17936601492351220144 -0.17936601492351220144 -5.26549821891927294359 -0.17936601492351220144 -2.72243211692139253088 -0.17936601492351220144 -0.17936601492351220144 -2.72243211692139253088 2.36370008707436829454 -2.72243211692139253088 -2.72243211692139253088 -5.26549821891927294359 -0.17936601492351220144 -2.72243211692139253088 2.36370008707436829454 4.90676618907224870725 -0.17936601492351220144 -0.17936601492351220144 2.36370008707436829454 -2.72243211692139253088 -0.17936601492351220144 -0.17936601492351220144 -0.17936601492351220144 4.90676618907224870725 -0.17936601492351220144 -0.17936601492351220144 2.36370008707436829454 4.90676618907224870725 -2.72243211692139253088 -0.17936601492351220144 -0.17936601492351220144 -0.17936601492351220144 4.90676618907224870725 7.44983229107013045223 4.90676618907224870725 9.99289839306800864449 4.90676618907224870725 4.90676618907224870725 -2.72243211692139253088 2.36370008707436829454 4.90676618907224870725 7.44983229107013045223 2.36370008707436829454 4.90676618907224870725 4.90676618907224870725 2.36370008707436829454 4.90676618907224870725 2.36370008707436829454 2.36370008707436829454 9.99289839306800864449 2.36370008707436829454 7.44983229107013045223 4.90676618907224870725 2.36370008707436829454 2.36370008707436829454 -2.72243211692139253088 -0.17936601492351220144 7.44983229107013045223 2.36370008707436829454 4.90676618907224870725 7.44983229107013045223 2.36370008707436829454 4.90676618907224870725 -0.17936601492351220144 2.36370008707436829454 7.44983229107013045223 2.36370008707436829454 4.90676618907224870725 7.44983229107013045223 2.36370008707436829454 2.36370008707436829454 -2.72243211692139253088 -0.17936601492351220144 9.99289839306800864449 2.36370008707436829454 7.44983229107013045223 4.90676618907224870725 4.90676618907224870725 -0.17936601492351220144 2.36370008707436829454 -0.17936601492351220144 4.90676618907224870725 4.90676618907224870725 4.90676618907224870725 4.90676618907224870725 2.36370008707436829454 2.36370008707436829454 2.36370008707436829454 -0.17936601492351220144 -0.17936601492351220144 4.90676618907224870725 2.36370008707436829454 4.90676618907224870725 4.90676618907224870725 4.90676618907224870725 2.36370008707436829454 4.90676618907224870725 -0.17936601492351220144 4.90676618907224870725 4.90676618907224870725 7.44983229107013045223 2.36370008707436829454 2.36370008707436829454 2.36370008707436829454 4.90676618907224870725 -0.17936601492351220144 4.90676618907224870725 4.90676618907224870725 4.90676618907224870725 4.90676618907224870725 -0.17936601492351220144 4.90676618907224870725 2.36370008707436829454 -0.17936601492351220144 4.90676618907224870725 4.90676618907224870725 12.53596449506589038947 9.99289839306800864449 9.99289839306800864449 2.36370008707436829454 2.36370008707436829454 7.44983229107013045223 4.90676618907224870725 9.99289839306800864449 7.44983229107013045223 4.90676618907224870725 7.44983229107013045223 7.44983229107013045223 7.44983229107013045223 7.44983229107013045223 7.44983229107013045223 7.44983229107013045223 15.07903059706377035809 15.07903059706377035809 15.07903059706377035809 7.44983229107013045223 12.53596449506589038947 9.99289839306800864449 4.90676618907224870725 7.44983229107013045223 9.99289839306800864449 12.53596449506589038947 9.99289839306800864449 12.53596449506589038947 9.99289839306800864449 7.44983229107013045223 9.99289839306800864449 9.99289839306800864449 15.07903059706377035809 15.07903059706377035809 9.99289839306800864449 17.62209669906165032671 17.62209669906165032671 12.53596449506589038947 12.53596449506589038947 9.99289839306800864449 9.99289839306800864449 15.07903059706377035809 12.53596449506589038947 9.99289839306800864449 9.99289839306800864449 12.53596449506589038947 7.44983229107013045223 9.99289839306800864449 15.07903059706377035809 15.07903059706377035809 9.99289839306800864449 9.99289839306800864449 15.07903059706377035809 9.99289839306800864449 9.99289839306800864449 15.07903059706377035809 9.99289839306800864449 9.99289839306800864449 9.99289839306800864449 12.53596449506589038947 15.07903059706377035809 9.99289839306800864449 12.53596449506589038947 12.53596449506589038947 7.44983229107013045223 12.53596449506589038947 15.07903059706377035809 17.62209669906165032671 12.53596449506589038947 15.07903059706377035809 12.53596449506589038947 12.53596449506589038947 15.07903059706377035809 12.53596449506589038947 12.53596449506589038947 17.62209669906165032671 15.07903059706377035809 17.62209669906165032671 15.07903059706377035809 9.99289839306800864449 12.53596449506589038947 2.36370008707436829454 9.99289839306800864449 9.99289839306800864449 9.99289839306800864449 12.53596449506589038947 15.07903059706377035809 17.62209669906165032671 12.53596449506589038947 9.99289839306800864449 9.99289839306800864449 9.99289839306800864449 12.53596449506589038947 15.07903059706377035809 12.53596449506589038947 15.07903059706377035809 9.99289839306800864449 9.99289839306800864449 15.07903059706377035809 15.07903059706377035809 15.07903059706377035809 15.07903059706377035809 12.53596449506589038947 15.07903059706377035809 15.07903059706377035809 7.44983229107013045223 15.07903059706377035809 9.99289839306800864449 20.16516280105953029533 15.07903059706377035809 15.07903059706377035809 12.53596449506589038947 9.99289839306800864449 9.99289839306800864449 9.99289839306800864449 12.53596449506589038947 12.53596449506589038947 15.07903059706377035809 9.99289839306800864449 9.99289839306800864449 15.07903059706377035809 15.07903059706377035809 20.16516280105953029533 12.53596449506589038947 12.53596449506589038947 15.07903059706377035809 12.53596449506589038947 12.53596449506589038947 15.07903059706377035809 15.07903059706377035809 15.07903059706377035809 9.99289839306800864449 12.53596449506589038947 12.53596449506589038947 12.53596449506589038947 7.44983229107013045223 9.99289839306800864449 12.53596449506589038947 9.99289839306800864449 15.07903059706377035809 9.99289839306800864449 12.53596449506589038947 4.90676618907224870725 9.99289839306800864449 12.53596449506589038947 12.53596449506589038947 15.07903059706377035809 9.99289839306800864449 9.99289839306800864449 12.53596449506589038947 4.90676618907224870725 7.44983229107013045223 4.90676618907224870725 7.44983229107013045223 4.90676618907224870725 7.44983229107013045223 7.44983229107013045223 4.90676618907224870725 4.90676618907224870725 2.36370008707436829454 7.44983229107013045223 4.90676618907224870725 -0.17936601492351220144 4.90676618907224870725 4.90676618907224870725 7.44983229107013045223 9.99289839306800864449 4.90676618907224870725 2.36370008707436829454 4.90676618907224870725 2.36370008707436829454 4.90676618907224870725 7.44983229107013045223 7.44983229107013045223 7.44983229107013045223 2.36370008707436829454 4.90676618907224870725 7.44983229107013045223 4.90676618907224870725 2.36370008707436829454 2.36370008707436829454 -2.72243211692139253088 2.36370008707436829454 -0.17936601492351220144 9.99289839306800864449 9.99289839306800864449 7.44983229107013045223 7.44983229107013045223 4.90676618907224870725 7.44983229107013045223 4.90676618907224870725 9.99289839306800864449 7.44983229107013045223 4.90676618907224870725 2.36370008707436829454 7.44983229107013045223 2.36370008707436829454 2.36370008707436829454 7.44983229107013045223 4.90676618907224870725 7.44983229107013045223 4.90676618907224870725 7.44983229107013045223 9.99289839306800864449 7.44983229107013045223 4.90676618907224870725 4.90676618907224870725 4.90676618907224870725 9.99289839306800864449 4.90676618907224870725 7.44983229107013045223 7.44983229107013045223 9.99289839306800864449 7.44983229107013045223 2.36370008707436829454 -0.17936601492351220144 7.44983229107013045223 15.07903059706377035809 7.44983229107013045223 9.99289839306800864449 9.99289839306800864449 7.44983229107013045223 4.90676618907224870725 4.90676618907224870725 4.90676618907224870725 2.36370008707436829454 2.36370008707436829454 7.44983229107013045223 9.99289839306800864449 7.44983229107013045223 4.90676618907224870725 9.99289839306800864449 7.44983229107013045223 9.99289839306800864449 4.90676618907224870725 4.90676618907224870725 4.90676618907224870725 12.53596449506589038947 9.99289839306800864449 9.99289839306800864449 12.53596449506589038947 7.44983229107013045223 4.90676618907224870725 2.36370008707436829454 7.44983229107013045223 12.53596449506589038947 12.53596449506589038947 15.07903059706377035809 12.53596449506589038947 12.53596449506589038947 9.99289839306800864449 12.53596449506589038947 7.44983229107013045223 4.90676618907224870725 12.53596449506589038947 7.44983229107013045223 12.53596449506589038947 9.99289839306800864449 9.99289839306800864449 12.53596449506589038947 7.44983229107013045223 9.99289839306800864449 2.36370008707436829454 7.44983229107013045223 12.53596449506589038947 9.99289839306800864449 12.53596449506589038947 9.99289839306800864449 9.99289839306800864449 9.99289839306800864449 9.99289839306800864449 7.44983229107013045223 17.62209669906165032671 17.62209669906165032671 9.99289839306800864449 12.53596449506589038947 7.44983229107013045223 7.44983229107013045223 9.99289839306800864449 4.90676618907224870725 12.53596449506589038947 12.53596449506589038947 12.53596449506589038947 9.99289839306800864449 15.07903059706377035809 7.44983229107013045223 4.90676618907224870725 7.44983229107013045223 9.99289839306800864449 12.53596449506589038947 7.44983229107013045223 7.44983229107013045223 9.99289839306800864449 9.99289839306800864449 7.44983229107013045223 7.44983229107013045223 7.44983229107013045223 12.53596449506589038947 7.44983229107013045223 12.53596449506589038947 7.44983229107013045223 12.53596449506589038947 9.99289839306800864449 7.44983229107013045223 7.44983229107013045223 7.44983229107013045223 9.99289839306800864449 12.53596449506589038947 7.44983229107013045223 7.44983229107013045223 7.44983229107013045223 4.90676618907224870725 2.36370008707436829454 4.90676618907224870725 9.99289839306800864449 7.44983229107013045223 4.90676618907224870725 4.90676618907224870725 4.90676618907224870725 2.36370008707436829454 7.44983229107013045223 2.36370008707436829454 4.90676618907224870725 4.90676618907224870725 15.07903059706377035809 4.90676618907224870725 4.90676618907224870725 9.99289839306800864449 -0.17936601492351220144 4.90676618907224870725 4.90676618907224870725 -0.17936601492351220144 2.36370008707436829454 7.44983229107013045223 4.90676618907224870725 4.90676618907224870725 -0.17936601492351220144 -2.72243211692139253088 -0.17936601492351220144 2.36370008707436829454 2.36370008707436829454 2.36370008707436829454 4.90676618907224870725 4.90676618907224870725 4.90676618907224870725 4.90676618907224870725 2.36370008707436829454 4.90676618907224870725 4.90676618907224870725 -2.72243211692139253088 2.36370008707436829454 -0.17936601492351220144 7.44983229107013045223 4.90676618907224870725 4.90676618907224870725 4.90676618907224870725 2.36370008707436829454 -0.17936601492351220144 -2.72243211692139253088 2.36370008707436829454 9.99289839306800864449 9.99289839306800864449 9.99289839306800864449 2.36370008707436829454 4.90676618907224870725 7.44983229107013045223 2.36370008707436829454 9.99289839306800864449 9.99289839306800864449 4.90676618907224870725 4.90676618907224870725 4.90676618907224870725 4.90676618907224870725 4.90676618907224870725 2.36370008707436829454 -0.17936601492351220144 4.90676618907224870725 9.99289839306800864449 7.44983229107013045223 7.44983229107013045223 4.90676618907224870725 12.53596449506589038947 2.36370008707436829454 2.36370008707436829454 -0.17936601492351220144 4.90676618907224870725 7.44983229107013045223 4.90676618907224870725 7.44983229107013045223 7.44983229107013045223 9.99289839306800864449 4.90676618907224870725 4.90676618907224870725 7.44983229107013045223 7.44983229107013045223 12.53596449506589038947 12.53596449506589038947 12.53596449506589038947 12.53596449506589038947 9.99289839306800864449 7.44983229107013045223 7.44983229107013045223 7.44983229107013045223 4.90676618907224870725 9.99289839306800864449 17.62209669906165032671 4.90676618907224870725 9.99289839306800864449 12.53596449506589038947 12.53596449506589038947 15.07903059706377035809 9.99289839306800864449 7.44983229107013045223 7.44983229107013045223 15.07903059706377035809 12.53596449506589038947 9.99289839306800864449 12.53596449506589038947 15.07903059706377035809 12.53596449506589038947 9.99289839306800864449 9.99289839306800864449 9.99289839306800864449 15.07903059706377035809 17.62209669906165032671 12.53596449506589038947 17.62209669906165032671 15.07903059706377035809 12.53596449506589038947 4.90676618907224870725 9.99289839306800864449 12.53596449506589038947 12.53596449506589038947 17.62209669906165032671 15.07903059706377035809 17.62209669906165032671 9.99289839306800864449 9.99289839306800864449 15.07903059706377035809 12.53596449506589038947 7.44983229107013045223 7.44983229107013045223 15.07903059706377035809 12.53596449506589038947 15.07903059706377035809 7.44983229107013045223 2.36370008707436829454 4.90676618907224870725 7.44983229107013045223 17.62209669906165032671 17.62209669906165032671 9.99289839306800864449 12.53596449506589038947 7.44983229107013045223 4.90676618907224870725 4.90676618907224870725 4.90676618907224870725 2.36370008707436829454 7.44983229107013045223 4.90676618907224870725 4.90676618907224870725 9.99289839306800864449 9.99289839306800864449 7.44983229107013045223 7.44983229107013045223 2.36370008707436829454 4.90676618907224870725 9.99289839306800864449 7.44983229107013045223 4.90676618907224870725 9.99289839306800864449 7.44983229107013045223 12.53596449506589038947 7.44983229107013045223 2.36370008707436829454 4.90676618907224870725 4.90676618907224870725 7.44983229107013045223 7.44983229107013045223 9.99289839306800864449 9.99289839306800864449 7.44983229107013045223 4.90676618907224870725 2.36370008707436829454 4.90676618907224870725 7.44983229107013045223 7.44983229107013045223 7.44983229107013045223 9.99289839306800864449 4.90676618907224870725 7.44983229107013045223 4.90676618907224870725 2.36370008707436829454 7.44983229107013045223 4.90676618907224870725 7.44983229107013045223 4.90676618907224870725 4.90676618907224870725 4.90676618907224870725 4.90676618907224870725 4.90676618907224870725 7.44983229107013045223 9.99289839306800864449 9.99289839306800864449 7.44983229107013045223 15.07903059706377035809 15.07903059706377035809 15.07903059706377035809 20.16516280105953029533 9.99289839306800864449 9.99289839306800864449 7.44983229107013045223 2.36370008707436829454 2.36370008707436829454 2.36370008707436829454 4.90676618907224870725 4.90676618907224870725 2.36370008707436829454 2.36370008707436829454 2.36370008707436829454 7.44983229107013045223 -0.17936601492351220144 2.36370008707436829454 2.36370008707436829454 4.90676618907224870725 2.36370008707436829454 4.90676618907224870725 9.99289839306800864449 4.90676618907224870725 4.90676618907224870725 -5.26549821891927294359 -2.72243211692139253088 -0.17936601492351220144 -0.17936601492351220144 7.44983229107013045223 -0.17936601492351220144 -0.17936601492351220144 4.90676618907224870725 4.90676618907224870725 -0.17936601492351220144 4.90676618907224870725 2.36370008707436829454 4.90676618907224870725 -0.17936601492351220144 7.44983229107013045223 2.36370008707436829454 2.36370008707436829454 2.36370008707436829454 -2.72243211692139253088 -0.17936601492351220144 -2.72243211692139253088 -5.26549821891927294359 -0.17936601492351220144 2.36370008707436829454 -0.17936601492351220144 -2.72243211692139253088 2.36370008707436829454 -5.26549821891927294359 -5.26549821891927294359 -5.26549821891927294359 -10.35163042291503465719 -5.26549821891927294359 -2.72243211692139253088 -2.72243211692139253088 -2.72243211692139253088 -5.26549821891927294359 -2.72243211692139253088 -5.26549821891927294359 -2.72243211692139253088 -12.89469652491291640217 -10.35163042291503465719 -15.43776262691079637079 -15.43776262691079637079 -10.35163042291503465719 -10.35163042291503465719 -10.35163042291503465719 -7.80856432091715380039 -10.35163042291503465719 -12.89469652491291640217 -17.98082872890867633942 -17.98082872890867633942 -17.98082872890867633942 -17.98082872890867633942 -15.43776262691079637079 -10.35163042291503465719 -15.43776262691079637079 -15.43776262691079637079 -12.89469652491291640217 -17.98082872890867633942 -17.98082872890867633942 -25.61002703490231979799 -17.98082872890867633942 -17.98082872890867633942 -17.98082872890867633942 -15.43776262691079637079 -20.52389483090655630804 -17.98082872890867633942 -20.52389483090655630804 -23.06696093290443982937 -23.06696093290443982937 -23.06696093290443982937 -20.52389483090655630804 -20.52389483090655630804 -20.52389483090655630804 -23.06696093290443982937 -25.61002703490231979799 -23.06696093290443982937 -20.52389483090655630804 -23.06696093290443982937 -15.43776262691079637079 -17.98082872890867633942 -17.98082872890867633942 -17.98082872890867633942 -17.98082872890867633942 -15.43776262691079637079 -15.43776262691079637079 -10.35163042291503465719 -12.89469652491291640217 -12.89469652491291640217 -15.43776262691079637079 -15.43776262691079637079 -12.89469652491291640217 -10.35163042291503465719 -10.35163042291503465719 -10.35163042291503465719 -5.26549821891927294359 -5.26549821891927294359 -2.72243211692139253088 -5.26549821891927294359 -5.26549821891927294359 -2.72243211692139253088 -7.80856432091715380039 -5.26549821891927294359 -5.26549821891927294359 -5.26549821891927294359 -0.17936601492351220144 -0.17936601492351220144 4.90676618907224870725 2.36370008707436829454 7.44983229107013045223 2.36370008707436829454 4.90676618907224870725 4.90676618907224870725 4.90676618907224870725 2.36370008707436829454 7.44983229107013045223 7.44983229107013045223 2.36370008707436829454 4.90676618907224870725 7.44983229107013045223 9.99289839306800864449 12.53596449506589038947 9.99289839306800864449 7.44983229107013045223 9.99289839306800864449 12.53596449506589038947 2.36370008707436829454 7.44983229107013045223 7.44983229107013045223 -0.17936601492351220144 2.36370008707436829454 -2.72243211692139253088 -0.17936601492351220144 2.36370008707436829454 -2.72243211692139253088 -2.72243211692139253088 -0.17936601492351220144 -5.26549821891927294359 2.36370008707436829454 4.90676618907224870725 -0.17936601492351220144 -2.72243211692139253088 -2.72243211692139253088 7.44983229107013045223 -7.80856432091715380039 4.90676618907224870725 -5.26549821891927294359 -12.89469652491291640217 -12.89469652491291640217 -2.72243211692139253088 -5.26549821891927294359 -10.35163042291503465719 -12.89469652491291640217 -10.35163042291503465719 -10.35163042291503465719 -10.35163042291503465719 -10.35163042291503465719 -12.89469652491291640217 -7.80856432091715380039 -7.80856432091715380039 -7.80856432091715380039 -7.80856432091715380039 -7.80856432091715380039 -12.89469652491291640217 -12.89469652491291640217 -15.43776262691079637079 -12.89469652491291640217 -12.89469652491291640217 -10.35163042291503465719 -7.80856432091715380039 -12.89469652491291640217 -12.89469652491291640217 -10.35163042291503465719 -5.26549821891927294359 -2.72243211692139253088 -5.26549821891927294359 -10.35163042291503465719 -5.26549821891927294359 -5.26549821891927294359 -0.17936601492351220144 -7.80856432091715380039 -2.72243211692139253088 -5.26549821891927294359 -5.26549821891927294359 -0.17936601492351220144 -0.17936601492351220144 -5.26549821891927294359 -5.26549821891927294359 -0.17936601492351220144 -0.17936601492351220144 4.90676618907224870725 -0.17936601492351220144 2.36370008707436829454 4.90676618907224870725 4.90676618907224870725 7.44983229107013045223 2.36370008707436829454 2.36370008707436829454 9.99289839306800864449 7.44983229107013045223 7.44983229107013045223 4.90676618907224870725 4.90676618907224870725 4.90676618907224870725 7.44983229107013045223 9.99289839306800864449 7.44983229107013045223 9.99289839306800864449 7.44983229107013045223 2.36370008707436829454 4.90676618907224870725 -0.17936601492351220144 7.44983229107013045223 7.44983229107013045223 7.44983229107013045223 9.99289839306800864449 7.44983229107013045223 7.44983229107013045223 4.90676618907224870725 2.36370008707436829454 4.90676618907224870725 7.44983229107013045223 9.99289839306800864449 7.44983229107013045223 2.36370008707436829454 2.36370008707436829454 -0.17936601492351220144 2.36370008707436829454 12.53596449506589038947 2.36370008707436829454 2.36370008707436829454 4.90676618907224870725 -2.72243211692139253088 2.36370008707436829454 -2.72243211692139253088 4.90676618907224870725 -0.17936601492351220144 -0.17936601492351220144 -0.17936601492351220144 -2.72243211692139253088 -0.17936601492351220144 -7.80856432091715380039 -2.72243211692139253088 -0.17936601492351220144 -0.17936601492351220144 4.90676618907224870725 -0.17936601492351220144 -0.17936601492351220144 -5.26549821891927294359 -5.26549821891927294359 -7.80856432091715380039 -5.26549821891927294359 -7.80856432091715380039 -5.26549821891927294359 -2.72243211692139253088 -7.80856432091715380039 -2.72243211692139253088 -7.80856432091715380039 -5.26549821891927294359 -5.26549821891927294359 -5.26549821891927294359 -2.72243211692139253088 -2.72243211692139253088 -2.72243211692139253088 -2.72243211692139253088 -5.26549821891927294359 -5.26549821891927294359 -2.72243211692139253088 -2.72243211692139253088 -2.72243211692139253088 -2.72243211692139253088 2.36370008707436829454 -5.26549821891927294359 -0.17936601492351220144 -5.26549821891927294359 -5.26549821891927294359 -5.26549821891927294359 -5.26549821891927294359 -2.72243211692139253088 4.90676618907224870725 -5.26549821891927294359 -0.17936601492351220144 2.36370008707436829454 -2.72243211692139253088 -0.17936601492351220144 2.36370008707436829454 -0.17936601492351220144 7.44983229107013045223 -0.17936601492351220144 -2.72243211692139253088 2.36370008707436829454 2.36370008707436829454 -2.72243211692139253088 2.36370008707436829454 4.90676618907224870725 4.90676618907224870725 4.90676618907224870725 4.90676618907224870725 4.90676618907224870725 2.36370008707436829454 -0.17936601492351220144 9.99289839306800864449 7.44983229107013045223 4.90676618907224870725 9.99289839306800864449 7.44983229107013045223 4.90676618907224870725 7.44983229107013045223 7.44983229107013045223 7.44983229107013045223 7.44983229107013045223 9.99289839306800864449 4.90676618907224870725 4.90676618907224870725 4.90676618907224870725 2.36370008707436829454 2.36370008707436829454 9.99289839306800864449 7.44983229107013045223 9.99289839306800864449 7.44983229107013045223 9.99289839306800864449 4.90676618907224870725 9.99289839306800864449 2.36370008707436829454 4.90676618907224870725 9.99289839306800864449 7.44983229107013045223 9.99289839306800864449 12.53596449506589038947 7.44983229107013045223 12.53596449506589038947 7.44983229107013045223 7.44983229107013045223 2.36370008707436829454 7.44983229107013045223 4.90676618907224870725 7.44983229107013045223 7.44983229107013045223 9.99289839306800864449 12.53596449506589038947 9.99289839306800864449 4.90676618907224870725 9.99289839306800864449 4.90676618907224870725 7.44983229107013045223 9.99289839306800864449 7.44983229107013045223 7.44983229107013045223 4.90676618907224870725 7.44983229107013045223 7.44983229107013045223 2.36370008707436829454 2.36370008707436829454 7.44983229107013045223 4.90676618907224870725 9.99289839306800864449 4.90676618907224870725 7.44983229107013045223 4.90676618907224870725 4.90676618907224870725 2.36370008707436829454 -0.17936601492351220144 7.44983229107013045223 12.53596449506589038947 2.36370008707436829454 2.36370008707436829454 2.36370008707436829454 4.90676618907224870725 2.36370008707436829454 -0.17936601492351220144 4.90676618907224870725 4.90676618907224870725 9.99289839306800864449 2.36370008707436829454 2.36370008707436829454 2.36370008707436829454 -2.72243211692139253088 -0.17936601492351220144 -0.17936601492351220144 4.90676618907224870725 4.90676618907224870725 2.36370008707436829454 -0.17936601492351220144 2.36370008707436829454 -2.72243211692139253088 4.90676618907224870725 4.90676618907224870725 7.44983229107013045223 4.90676618907224870725 2.36370008707436829454 2.36370008707436829454 2.36370008707436829454 4.90676618907224870725 9.99289839306800864449 7.44983229107013045223 2.36370008707436829454 4.90676618907224870725 2.36370008707436829454 4.90676618907224870725 7.44983229107013045223 4.90676618907224870725 2.36370008707436829454 4.90676618907224870725 -0.17936601492351220144 2.36370008707436829454 -0.17936601492351220144 2.36370008707436829454 12.53596449506589038947 7.44983229107013045223 -0.17936601492351220144 2.36370008707436829454 4.90676618907224870725 2.36370008707436829454 7.44983229107013045223 2.36370008707436829454 7.44983229107013045223 4.90676618907224870725 2.36370008707436829454 -0.17936601492351220144 2.36370008707436829454 -0.17936601492351220144 -5.26549821891927294359 -0.17936601492351220144 -0.17936601492351220144 -0.17936601492351220144 -0.17936601492351220144 2.36370008707436829454 -2.72243211692139253088 -7.80856432091715380039 -7.80856432091715380039 -5.26549821891927294359 -7.80856432091715380039 -7.80856432091715380039 -7.80856432091715380039 -5.26549821891927294359 -2.72243211692139253088 -7.80856432091715380039 -5.26549821891927294359 -5.26549821891927294359 -12.89469652491291640217 -7.80856432091715380039 -15.43776262691079637079 -12.89469652491291640217 -7.80856432091715380039 -10.35163042291503465719 -7.80856432091715380039 -5.26549821891927294359 -12.89469652491291640217 -10.35163042291503465719 -7.80856432091715380039 -12.89469652491291640217 -7.80856432091715380039 -12.89469652491291640217 -5.26549821891927294359 -7.80856432091715380039 -7.80856432091715380039 -5.26549821891927294359 -15.43776262691079637079 -10.35163042291503465719 -7.80856432091715380039 -5.26549821891927294359 -7.80856432091715380039 -5.26549821891927294359 -5.26549821891927294359 -10.35163042291503465719 -7.80856432091715380039 -5.26549821891927294359 -10.35163042291503465719 -7.80856432091715380039 -0.17936601492351220144 -5.26549821891927294359 -5.26549821891927294359 -0.17936601492351220144 -2.72243211692139253088 -2.72243211692139253088 -0.17936601492351220144 -0.17936601492351220144 4.90676618907224870725 -5.26549821891927294359 -2.72243211692139253088 -5.26549821891927294359 -2.72243211692139253088 -0.17936601492351220144 2.36370008707436829454 2.36370008707436829454 -2.72243211692139253088 -2.72243211692139253088 -5.26549821891927294359 -7.80856432091715380039 -2.72243211692139253088 2.36370008707436829454 4.90676618907224870725 -2.72243211692139253088 -0.17936601492351220144 -5.26549821891927294359 -2.72243211692139253088 -5.26549821891927294359 -7.80856432091715380039 -2.72243211692139253088 -0.17936601492351220144 -2.72243211692139253088 2.36370008707436829454 -0.17936601492351220144 -2.72243211692139253088 -0.17936601492351220144 -5.26549821891927294359 -7.80856432091715380039 -2.72243211692139253088 -5.26549821891927294359 -0.17936601492351220144 -0.17936601492351220144 -5.26549821891927294359 -2.72243211692139253088 -5.26549821891927294359 -2.72243211692139253088 -7.80856432091715380039 -0.17936601492351220144 -2.72243211692139253088 -2.72243211692139253088 -2.72243211692139253088 -0.17936601492351220144 -5.26549821891927294359 -2.72243211692139253088 -0.17936601492351220144 2.36370008707436829454 2.36370008707436829454 2.36370008707436829454 2.36370008707436829454 -5.26549821891927294359 -0.17936601492351220144 -7.80856432091715380039 4.90676618907224870725 -0.17936601492351220144 -0.17936601492351220144 2.36370008707436829454 2.36370008707436829454 -0.17936601492351220144 -0.17936601492351220144 -0.17936601492351220144 -0.17936601492351220144 2.36370008707436829454 -2.72243211692139253088 4.90676618907224870725 7.44983229107013045223 2.36370008707436829454 -2.72243211692139253088 -5.26549821891927294359 2.36370008707436829454 -2.72243211692139253088 2.36370008707436829454 -0.17936601492351220144 -2.72243211692139253088 2.36370008707436829454 -2.72243211692139253088 4.90676618907224870725 4.90676618907224870725 4.90676618907224870725 4.90676618907224870725 2.36370008707436829454 -0.17936601492351220144 -0.17936601492351220144 4.90676618907224870725 -0.17936601492351220144 7.44983229107013045223 2.36370008707436829454 2.36370008707436829454 4.90676618907224870725 -0.17936601492351220144 2.36370008707436829454 7.44983229107013045223 4.90676618907224870725 9.99289839306800864449 2.36370008707436829454 9.99289839306800864449 7.44983229107013045223 2.36370008707436829454 2.36370008707436829454 -0.17936601492351220144 2.36370008707436829454 4.90676618907224870725 2.36370008707436829454 4.90676618907224870725 2.36370008707436829454 4.90676618907224870725 -0.17936601492351220144 -2.72243211692139253088 -2.72243211692139253088 -0.17936601492351220144 2.36370008707436829454 4.90676618907224870725 2.36370008707436829454 2.36370008707436829454 4.90676618907224870725 2.36370008707436829454 -0.17936601492351220144 4.90676618907224870725 2.36370008707436829454 7.44983229107013045223 9.99289839306800864449 2.36370008707436829454 4.90676618907224870725 2.36370008707436829454 2.36370008707436829454 2.36370008707436829454 7.44983229107013045223 7.44983229107013045223 2.36370008707436829454 4.90676618907224870725 7.44983229107013045223 2.36370008707436829454 4.90676618907224870725 7.44983229107013045223 7.44983229107013045223 7.44983229107013045223 7.44983229107013045223 2.36370008707436829454 4.90676618907224870725 4.90676618907224870725 9.99289839306800864449 7.44983229107013045223 7.44983229107013045223 9.99289839306800864449 4.90676618907224870725 7.44983229107013045223 2.36370008707436829454 2.36370008707436829454 7.44983229107013045223 4.90676618907224870725 7.44983229107013045223 4.90676618907224870725 7.44983229107013045223 9.99289839306800864449 2.36370008707436829454 2.36370008707436829454 -0.17936601492351220144 2.36370008707436829454 2.36370008707436829454 2.36370008707436829454 7.44983229107013045223 9.99289839306800864449 7.44983229107013045223 12.53596449506589038947 7.44983229107013045223 4.90676618907224870725 4.90676618907224870725 7.44983229107013045223 7.44983229107013045223 7.44983229107013045223 9.99289839306800864449 4.90676618907224870725 7.44983229107013045223 4.90676618907224870725 9.99289839306800864449 4.90676618907224870725 7.44983229107013045223 9.99289839306800864449 7.44983229107013045223 4.90676618907224870725 4.90676618907224870725 2.36370008707436829454 4.90676618907224870725 7.44983229107013045223 7.44983229107013045223 7.44983229107013045223 4.90676618907224870725 7.44983229107013045223 4.90676618907224870725 7.44983229107013045223 12.53596449506589038947 12.53596449506589038947 9.99289839306800864449 15.07903059706377035809 9.99289839306800864449 4.90676618907224870725 9.99289839306800864449 7.44983229107013045223 9.99289839306800864449 9.99289839306800864449 9.99289839306800864449 12.53596449506589038947 9.99289839306800864449 2.36370008707436829454 7.44983229107013045223 4.90676618907224870725 7.44983229107013045223 7.44983229107013045223 9.99289839306800864449 12.53596449506589038947 7.44983229107013045223 9.99289839306800864449 9.99289839306800864449 9.99289839306800864449 9.99289839306800864449 12.53596449506589038947 9.99289839306800864449 4.90676618907224870725 4.90676618907224870725 9.99289839306800864449 7.44983229107013045223 7.44983229107013045223 7.44983229107013045223 4.90676618907224870725 7.44983229107013045223 12.53596449506589038947 9.99289839306800864449 9.99289839306800864449 9.99289839306800864449 9.99289839306800864449 7.44983229107013045223 4.90676618907224870725 4.90676618907224870725 -0.17936601492351220144 4.90676618907224870725 12.53596449506589038947 7.44983229107013045223 9.99289839306800864449 7.44983229107013045223 7.44983229107013045223 7.44983229107013045223 4.90676618907224870725 2.36370008707436829454 4.90676618907224870725 4.90676618907224870725 4.90676618907224870725 7.44983229107013045223 9.99289839306800864449 9.99289839306800864449 7.44983229107013045223 4.90676618907224870725 2.36370008707436829454 -0.17936601492351220144 4.90676618907224870725 4.90676618907224870725 9.99289839306800864449 12.53596449506589038947 -0.17936601492351220144 4.90676618907224870725 4.90676618907224870725 -0.17936601492351220144 -0.17936601492351220144 -0.17936601492351220144 4.90676618907224870725 4.90676618907224870725 4.90676618907224870725 2.36370008707436829454 4.90676618907224870725 4.90676618907224870725 4.90676618907224870725 4.90676618907224870725 4.90676618907224870725 4.90676618907224870725 4.90676618907224870725 7.44983229107013045223 2.36370008707436829454 -0.17936601492351220144 -0.17936601492351220144 2.36370008707436829454 2.36370008707436829454 2.36370008707436829454 7.44983229107013045223 12.53596449506589038947 4.90676618907224870725 4.90676618907224870725 -0.17936601492351220144 -0.17936601492351220144 2.36370008707436829454 4.90676618907224870725 4.90676618907224870725 7.44983229107013045223 7.44983229107013045223 2.36370008707436829454 -0.17936601492351220144 2.36370008707436829454 7.44983229107013045223 4.90676618907224870725 7.44983229107013045223 7.44983229107013045223 4.90676618907224870725 2.36370008707436829454 -0.17936601492351220144 2.36370008707436829454 4.90676618907224870725 9.99289839306800864449 4.90676618907224870725 4.90676618907224870725 4.90676618907224870725 2.36370008707436829454 2.36370008707436829454 4.90676618907224870725 -0.17936601492351220144 4.90676618907224870725 7.44983229107013045223 4.90676618907224870725 7.44983229107013045223 4.90676618907224870725 4.90676618907224870725 7.44983229107013045223 9.99289839306800864449 7.44983229107013045223 7.44983229107013045223 7.44983229107013045223 7.44983229107013045223 4.90676618907224870725 4.90676618907224870725 4.90676618907224870725 12.53596449506589038947 7.44983229107013045223 9.99289839306800864449 2.36370008707436829454 7.44983229107013045223 9.99289839306800864449 12.53596449506589038947 7.44983229107013045223 15.07903059706377035809 9.99289839306800864449 2.36370008707436829454 4.90676618907224870725 7.44983229107013045223 9.99289839306800864449 9.99289839306800864449 9.99289839306800864449 12.53596449506589038947 4.90676618907224870725 7.44983229107013045223 4.90676618907224870725 2.36370008707436829454 2.36370008707436829454 -0.17936601492351220144 2.36370008707436829454 2.36370008707436829454 2.36370008707436829454 2.36370008707436829454 2.36370008707436829454 2.36370008707436829454 -0.17936601492351220144 -0.17936601492351220144 -2.72243211692139253088 -2.72243211692139253088 -2.72243211692139253088 2.36370008707436829454 4.90676618907224870725 7.44983229107013045223 7.44983229107013045223 2.36370008707436829454 2.36370008707436829454 -0.17936601492351220144 -0.17936601492351220144 4.90676618907224870725 2.36370008707436829454 4.90676618907224870725 4.90676618907224870725 4.90676618907224870725 4.90676618907224870725 -0.17936601492351220144 4.90676618907224870725 -0.17936601492351220144 2.36370008707436829454 2.36370008707436829454 4.90676618907224870725 -0.17936601492351220144 2.36370008707436829454 2.36370008707436829454 2.36370008707436829454 -5.26549821891927294359 -0.17936601492351220144 4.90676618907224870725 4.90676618907224870725 4.90676618907224870725 2.36370008707436829454 4.90676618907224870725 2.36370008707436829454 -0.17936601492351220144 -0.17936601492351220144 2.36370008707436829454 7.44983229107013045223 7.44983229107013045223 9.99289839306800864449 4.90676618907224870725 2.36370008707436829454 -0.17936601492351220144 4.90676618907224870725 9.99289839306800864449 9.99289839306800864449 4.90676618907224870725 7.44983229107013045223 4.90676618907224870725 7.44983229107013045223 7.44983229107013045223 4.90676618907224870725 4.90676618907224870725 7.44983229107013045223 9.99289839306800864449 7.44983229107013045223 2.36370008707436829454 4.90676618907224870725 4.90676618907224870725 7.44983229107013045223 -0.17936601492351220144 -2.72243211692139253088 -0.17936601492351220144 4.90676618907224870725 7.44983229107013045223 4.90676618907224870725 7.44983229107013045223 4.90676618907224870725 7.44983229107013045223 2.36370008707436829454 -0.17936601492351220144 -0.17936601492351220144 4.90676618907224870725 4.90676618907224870725 9.99289839306800864449 12.53596449506589038947 2.36370008707436829454 4.90676618907224870725 -2.72243211692139253088 7.44983229107013045223 -0.17936601492351220144 4.90676618907224870725 2.36370008707436829454 7.44983229107013045223 4.90676618907224870725 7.44983229107013045223 7.44983229107013045223 4.90676618907224870725 2.36370008707436829454 4.90676618907224870725 9.99289839306800864449 7.44983229107013045223 7.44983229107013045223 7.44983229107013045223 7.44983229107013045223 4.90676618907224870725 9.99289839306800864449 15.07903059706377035809 12.53596449506589038947 9.99289839306800864449 9.99289839306800864449 12.53596449506589038947 9.99289839306800864449 9.99289839306800864449 9.99289839306800864449 12.53596449506589038947 15.07903059706377035809 12.53596449506589038947 9.99289839306800864449 4.90676618907224870725 7.44983229107013045223 7.44983229107013045223 12.53596449506589038947 9.99289839306800864449 9.99289839306800864449 12.53596449506589038947 15.07903059706377035809 15.07903059706377035809 7.44983229107013045223 9.99289839306800864449 4.90676618907224870725 4.90676618907224870725 4.90676618907224870725 4.90676618907224870725 7.44983229107013045223 12.53596449506589038947 17.62209669906165032671 12.53596449506589038947 9.99289839306800864449 12.53596449506589038947 9.99289839306800864449 4.90676618907224870725 4.90676618907224870725 2.36370008707436829454 2.36370008707436829454 7.44983229107013045223 12.53596449506589038947 12.53596449506589038947 9.99289839306800864449 7.44983229107013045223 7.44983229107013045223 2.36370008707436829454 2.36370008707436829454 4.90676618907224870725 7.44983229107013045223 7.44983229107013045223 12.53596449506589038947 7.44983229107013045223 4.90676618907224870725 4.90676618907224870725 2.36370008707436829454 4.90676618907224870725 -0.17936601492351220144 7.44983229107013045223 15.07903059706377035809 7.44983229107013045223 9.99289839306800864449 4.90676618907224870725 2.36370008707436829454 -0.17936601492351220144 2.36370008707436829454 -0.17936601492351220144 4.90676618907224870725 4.90676618907224870725 7.44983229107013045223 4.90676618907224870725 2.36370008707436829454 2.36370008707436829454 2.36370008707436829454 -2.72243211692139253088 4.90676618907224870725 2.36370008707436829454 9.99289839306800864449 2.36370008707436829454 4.90676618907224870725 -0.17936601492351220144 -0.17936601492351220144 -0.17936601492351220144 4.90676618907224870725 4.90676618907224870725 4.90676618907224870725 2.36370008707436829454 4.90676618907224870725 7.44983229107013045223 2.36370008707436829454 4.90676618907224870725 4.90676618907224870725 4.90676618907224870725 -0.17936601492351220144 7.44983229107013045223 -0.17936601492351220144 -0.17936601492351220144 2.36370008707436829454 4.90676618907224870725 4.90676618907224870725 4.90676618907224870725 4.90676618907224870725 2.36370008707436829454 2.36370008707436829454 -0.17936601492351220144 -2.72243211692139253088 2.36370008707436829454 2.36370008707436829454 7.44983229107013045223 4.90676618907224870725 -0.17936601492351220144 -0.17936601492351220144 -0.17936601492351220144 -0.17936601492351220144 -0.17936601492351220144 4.90676618907224870725 2.36370008707436829454 7.44983229107013045223 4.90676618907224870725 2.36370008707436829454 2.36370008707436829454 -2.72243211692139253088 -5.26549821891927294359 -2.72243211692139253088 2.36370008707436829454 2.36370008707436829454 2.36370008707436829454 -0.17936601492351220144 -0.17936601492351220144 -0.17936601492351220144 2.36370008707436829454 -0.17936601492351220144 -2.72243211692139253088 -2.72243211692139253088 -0.17936601492351220144 -0.17936601492351220144 -0.17936601492351220144 -2.72243211692139253088 -0.17936601492351220144 -2.72243211692139253088 -0.17936601492351220144 -7.80856432091715380039 -10.35163042291503465719 -7.80856432091715380039 -0.17936601492351220144 -0.17936601492351220144 -0.17936601492351220144 -2.72243211692139253088 -0.17936601492351220144 -2.72243211692139253088 -5.26549821891927294359 -5.26549821891927294359 -2.72243211692139253088 -0.17936601492351220144 -2.72243211692139253088 4.90676618907224870725 2.36370008707436829454 2.36370008707436829454 2.36370008707436829454 -0.17936601492351220144 -0.17936601492351220144 -2.72243211692139253088 7.44983229107013045223 2.36370008707436829454 4.90676618907224870725 -0.17936601492351220144 -0.17936601492351220144 -0.17936601492351220144 -0.17936601492351220144 -0.17936601492351220144 4.90676618907224870725 4.90676618907224870725 4.90676618907224870725 2.36370008707436829454 -0.17936601492351220144 4.90676618907224870725 2.36370008707436829454 4.90676618907224870725 4.90676618907224870725 7.44983229107013045223 2.36370008707436829454 7.44983229107013045223 12.53596449506589038947 7.44983229107013045223 12.53596449506589038947 12.53596449506589038947 9.99289839306800864449 7.44983229107013045223 7.44983229107013045223 7.44983229107013045223 9.99289839306800864449 7.44983229107013045223 4.90676618907224870725 7.44983229107013045223 9.99289839306800864449 4.90676618907224870725 4.90676618907224870725 9.99289839306800864449 9.99289839306800864449 9.99289839306800864449 9.99289839306800864449 12.53596449506589038947 7.44983229107013045223 7.44983229107013045223 7.44983229107013045223 9.99289839306800864449 7.44983229107013045223 12.53596449506589038947 17.62209669906165032671 12.53596449506589038947 9.99289839306800864449 7.44983229107013045223 4.90676618907224870725 7.44983229107013045223 2.36370008707436829454 4.90676618907224870725 4.90676618907224870725 9.99289839306800864449 7.44983229107013045223 7.44983229107013045223 7.44983229107013045223 9.99289839306800864449 4.90676618907224870725 4.90676618907224870725 -0.17936601492351220144 -0.17936601492351220144 -0.17936601492351220144 9.99289839306800864449 4.90676618907224870725 12.53596449506589038947 4.90676618907224870725 7.44983229107013045223 4.90676618907224870725 2.36370008707436829454 2.36370008707436829454 -0.17936601492351220144 -7.80856432091715380039 -0.17936601492351220144 4.90676618907224870725 4.90676618907224870725 4.90676618907224870725 4.90676618907224870725 2.36370008707436829454 2.36370008707436829454 2.36370008707436829454 -2.72243211692139253088 -2.72243211692139253088 4.90676618907224870725 4.90676618907224870725 4.90676618907224870725 4.90676618907224870725 4.90676618907224870725 -0.17936601492351220144 -2.72243211692139253088 -2.72243211692139253088 -2.72243211692139253088 2.36370008707436829454 2.36370008707436829454 4.90676618907224870725 -2.72243211692139253088 4.90676618907224870725 -0.17936601492351220144 -5.26549821891927294359 -2.72243211692139253088 4.90676618907224870725 -0.17936601492351220144 2.36370008707436829454 4.90676618907224870725 2.36370008707436829454 -2.72243211692139253088 4.90676618907224870725 -2.72243211692139253088 -2.72243211692139253088 -0.17936601492351220144 4.90676618907224870725 4.90676618907224870725 -0.17936601492351220144 -0.17936601492351220144 -2.72243211692139253088 -0.17936601492351220144 2.36370008707436829454 4.90676618907224870725 4.90676618907224870725 2.36370008707436829454 -0.17936601492351220144 -2.72243211692139253088 -0.17936601492351220144 2.36370008707436829454 -2.72243211692139253088 -0.17936601492351220144 2.36370008707436829454 7.44983229107013045223 -2.72243211692139253088 2.36370008707436829454 -2.72243211692139253088 -2.72243211692139253088 -0.17936601492351220144 -5.26549821891927294359 -2.72243211692139253088 -0.17936601492351220144 4.90676618907224870725 -0.17936601492351220144 -2.72243211692139253088 -0.17936601492351220144 -2.72243211692139253088 2.36370008707436829454 -2.72243211692139253088 -0.17936601492351220144 -2.72243211692139253088 -0.17936601492351220144 -5.26549821891927294359 -7.80856432091715380039 -2.72243211692139253088 -0.17936601492351220144 -0.17936601492351220144 -0.17936601492351220144 -0.17936601492351220144 -0.17936601492351220144 -2.72243211692139253088 -5.26549821891927294359 -0.17936601492351220144 -2.72243211692139253088 -2.72243211692139253088 -5.26549821891927294359 -5.26549821891927294359 -10.35163042291503465719 -5.26549821891927294359 -10.35163042291503465719 -5.26549821891927294359 -5.26549821891927294359 -5.26549821891927294359 -5.26549821891927294359 -10.35163042291503465719 -10.35163042291503465719 -5.26549821891927294359 -7.80856432091715380039 -5.26549821891927294359 -5.26549821891927294359 -5.26549821891927294359 -0.17936601492351220144 -7.80856432091715380039 -5.26549821891927294359 -12.89469652491291640217 -7.80856432091715380039 -15.43776262691079637079 -12.89469652491291640217 -12.89469652491291640217 -10.35163042291503465719 -12.89469652491291640217 -7.80856432091715380039 -10.35163042291503465719 -12.89469652491291640217 -7.80856432091715380039 -10.35163042291503465719 -10.35163042291503465719 -17.98082872890867633942 -12.89469652491291640217 -10.35163042291503465719 -12.89469652491291640217 -10.35163042291503465719 -7.80856432091715380039 -7.80856432091715380039 -7.80856432091715380039 -12.89469652491291640217 -10.35163042291503465719 -15.43776262691079637079 -17.98082872890867633942 -20.52389483090655630804 -10.35163042291503465719 -10.35163042291503465719 -10.35163042291503465719 -12.89469652491291640217 -10.35163042291503465719 -15.43776262691079637079 -17.98082872890867633942 -17.98082872890867633942 -12.89469652491291640217 -17.98082872890867633942 -12.89469652491291640217 -12.89469652491291640217 -7.80856432091715380039 -10.35163042291503465719 -12.89469652491291640217 -12.89469652491291640217 -12.89469652491291640217 -12.89469652491291640217 -15.43776262691079637079 -15.43776262691079637079 -15.43776262691079637079 -12.89469652491291640217 -10.35163042291503465719 -10.35163042291503465719 -12.89469652491291640217 -12.89469652491291640217 -15.43776262691079637079 -10.35163042291503465719 -17.98082872890867633942 -17.98082872890867633942 -10.35163042291503465719 -10.35163042291503465719 -15.43776262691079637079 -10.35163042291503465719 -12.89469652491291640217 -10.35163042291503465719 -17.98082872890867633942 -10.35163042291503465719 -15.43776262691079637079 -10.35163042291503465719 -10.35163042291503465719 -12.89469652491291640217 -10.35163042291503465719 -12.89469652491291640217 -5.26549821891927294359 -10.35163042291503465719 -5.26549821891927294359 -5.26549821891927294359 -5.26549821891927294359 -0.17936601492351220144 -5.26549821891927294359 -10.35163042291503465719 -2.72243211692139253088 -7.80856432091715380039 -2.72243211692139253088 -5.26549821891927294359 -2.72243211692139253088 -0.17936601492351220144 -2.72243211692139253088 -7.80856432091715380039 -5.26549821891927294359 -7.80856432091715380039 -10.35163042291503465719 -5.26549821891927294359 -7.80856432091715380039 -2.72243211692139253088 -5.26549821891927294359 -7.80856432091715380039 -5.26549821891927294359 -5.26549821891927294359 -5.26549821891927294359 -7.80856432091715380039 -5.26549821891927294359 -5.26549821891927294359 -5.26549821891927294359 -2.72243211692139253088 -2.72243211692139253088 -5.26549821891927294359 -5.26549821891927294359 -2.72243211692139253088 -7.80856432091715380039 -7.80856432091715380039 -10.35163042291503465719 -10.35163042291503465719 -2.72243211692139253088 -0.17936601492351220144 -2.72243211692139253088 -0.17936601492351220144 -0.17936601492351220144 -2.72243211692139253088 -2.72243211692139253088 -2.72243211692139253088 -5.26549821891927294359 -12.89469652491291640217 -7.80856432091715380039 -7.80856432091715380039 -2.72243211692139253088 -5.26549821891927294359 -2.72243211692139253088 -2.72243211692139253088 -5.26549821891927294359 -2.72243211692139253088 -5.26549821891927294359 -5.26549821891927294359 -5.26549821891927294359 -0.17936601492351220144 -2.72243211692139253088 -5.26549821891927294359 -2.72243211692139253088 -2.72243211692139253088 -0.17936601492351220144 -2.72243211692139253088 -2.72243211692139253088 2.36370008707436829454 -2.72243211692139253088 -2.72243211692139253088 -0.17936601492351220144 -2.72243211692139253088 -5.26549821891927294359 -2.72243211692139253088 -5.26549821891927294359 -7.80856432091715380039 -5.26549821891927294359 -2.72243211692139253088 -5.26549821891927294359 -7.80856432091715380039 -2.72243211692139253088 -10.35163042291503465719 -5.26549821891927294359 -2.72243211692139253088 -2.72243211692139253088 -0.17936601492351220144 -7.80856432091715380039 -2.72243211692139253088 -2.72243211692139253088 -0.17936601492351220144 -5.26549821891927294359 -5.26549821891927294359 -5.26549821891927294359 -5.26549821891927294359 -2.72243211692139253088 -0.17936601492351220144 -2.72243211692139253088 2.36370008707436829454 -2.72243211692139253088 -2.72243211692139253088 -2.72243211692139253088 -2.72243211692139253088 2.36370008707436829454 -2.72243211692139253088 -2.72243211692139253088 -5.26549821891927294359 -0.17936601492351220144 -2.72243211692139253088 -7.80856432091715380039 -7.80856432091715380039 -7.80856432091715380039 -0.17936601492351220144 -0.17936601492351220144 -2.72243211692139253088 -5.26549821891927294359 -2.72243211692139253088 -2.72243211692139253088 -0.17936601492351220144 -7.80856432091715380039 -7.80856432091715380039 -0.17936601492351220144 -2.72243211692139253088 -0.17936601492351220144 2.36370008707436829454 -0.17936601492351220144 -0.17936601492351220144 -2.72243211692139253088 -5.26549821891927294359 -5.26549821891927294359 -2.72243211692139253088 -2.72243211692139253088 2.36370008707436829454 -2.72243211692139253088 -2.72243211692139253088 -0.17936601492351220144 -7.80856432091715380039 -2.72243211692139253088 -0.17936601492351220144 -10.35163042291503465719 -5.26549821891927294359 -2.72243211692139253088 -2.72243211692139253088 -2.72243211692139253088 2.36370008707436829454 -7.80856432091715380039 -5.26549821891927294359 -2.72243211692139253088 -7.80856432091715380039 -7.80856432091715380039 -2.72243211692139253088 -2.72243211692139253088 -0.17936601492351220144 -0.17936601492351220144 -0.17936601492351220144 2.36370008707436829454 -0.17936601492351220144 -2.72243211692139253088 -7.80856432091715380039 -5.26549821891927294359 -7.80856432091715380039 2.36370008707436829454 2.36370008707436829454 -0.17936601492351220144 2.36370008707436829454 2.36370008707436829454 -0.17936601492351220144 -0.17936601492351220144 -0.17936601492351220144 2.36370008707436829454 4.90676618907224870725 -0.17936601492351220144 4.90676618907224870725 2.36370008707436829454 2.36370008707436829454 -0.17936601492351220144 4.90676618907224870725 9.99289839306800864449 4.90676618907224870725 4.90676618907224870725 2.36370008707436829454 4.90676618907224870725 2.36370008707436829454 2.36370008707436829454 -0.17936601492351220144 2.36370008707436829454 9.99289839306800864449 2.36370008707436829454 4.90676618907224870725 2.36370008707436829454 2.36370008707436829454 -2.72243211692139253088 -0.17936601492351220144 2.36370008707436829454 9.99289839306800864449 4.90676618907224870725 7.44983229107013045223 2.36370008707436829454 2.36370008707436829454 2.36370008707436829454 4.90676618907224870725 4.90676618907224870725 4.90676618907224870725 4.90676618907224870725 7.44983229107013045223 7.44983229107013045223 -0.17936601492351220144 -0.17936601492351220144 2.36370008707436829454 7.44983229107013045223 9.99289839306800864449 7.44983229107013045223 7.44983229107013045223 7.44983229107013045223 4.90676618907224870725 4.90676618907224870725 2.36370008707436829454 -2.72243211692139253088 -2.72243211692139253088 4.90676618907224870725 4.90676618907224870725 7.44983229107013045223 4.90676618907224870725 4.90676618907224870725 7.44983229107013045223 2.36370008707436829454 2.36370008707436829454 -0.17936601492351220144 4.90676618907224870725 -0.17936601492351220144 2.36370008707436829454 4.90676618907224870725 7.44983229107013045223 4.90676618907224870725 7.44983229107013045223 2.36370008707436829454 2.36370008707436829454 -2.72243211692139253088 4.90676618907224870725 4.90676618907224870725 4.90676618907224870725 2.36370008707436829454 2.36370008707436829454 7.44983229107013045223 4.90676618907224870725 4.90676618907224870725 -0.17936601492351220144 -0.17936601492351220144 4.90676618907224870725 -0.17936601492351220144 2.36370008707436829454 2.36370008707436829454 -0.17936601492351220144 2.36370008707436829454 -5.26549821891927294359 -2.72243211692139253088 2.36370008707436829454 4.90676618907224870725 7.44983229107013045223 4.90676618907224870725 -0.17936601492351220144 2.36370008707436829454 4.90676618907224870725 4.90676618907224870725 4.90676618907224870725 7.44983229107013045223 7.44983229107013045223 7.44983229107013045223 7.44983229107013045223 2.36370008707436829454 9.99289839306800864449 7.44983229107013045223 12.53596449506589038947 7.44983229107013045223 7.44983229107013045223 9.99289839306800864449 9.99289839306800864449 15.07903059706377035809 9.99289839306800864449 9.99289839306800864449 12.53596449506589038947 4.90676618907224870725 2.36370008707436829454 4.90676618907224870725 2.36370008707436829454 2.36370008707436829454 9.99289839306800864449 9.99289839306800864449 12.53596449506589038947 9.99289839306800864449 9.99289839306800864449 2.36370008707436829454 4.90676618907224870725 4.90676618907224870725 4.90676618907224870725 4.90676618907224870725 4.90676618907224870725 9.99289839306800864449 2.36370008707436829454 4.90676618907224870725 4.90676618907224870725 2.36370008707436829454 -0.17936601492351220144 2.36370008707436829454 -0.17936601492351220144 7.44983229107013045223 2.36370008707436829454 4.90676618907224870725 4.90676618907224870725 -2.72243211692139253088 2.36370008707436829454 2.36370008707436829454 -0.17936601492351220144 -2.72243211692139253088 -0.17936601492351220144 -0.17936601492351220144 4.90676618907224870725 4.90676618907224870725 -0.17936601492351220144 2.36370008707436829454 -0.17936601492351220144 -2.72243211692139253088 -5.26549821891927294359 -2.72243211692139253088 -5.26549821891927294359 -0.17936601492351220144 -0.17936601492351220144 2.36370008707436829454 4.90676618907224870725 -2.72243211692139253088 -0.17936601492351220144 -0.17936601492351220144 -2.72243211692139253088 -7.80856432091715380039 -5.26549821891927294359 -5.26549821891927294359 -0.17936601492351220144 -0.17936601492351220144 -0.17936601492351220144 -5.26549821891927294359 -7.80856432091715380039 -10.35163042291503465719 -2.72243211692139253088 -5.26549821891927294359 -2.72243211692139253088 -2.72243211692139253088 2.36370008707436829454 -2.72243211692139253088 -2.72243211692139253088 -2.72243211692139253088 -7.80856432091715380039 -5.26549821891927294359 -5.26549821891927294359 -5.26549821891927294359 -2.72243211692139253088 -5.26549821891927294359 -2.72243211692139253088 -2.72243211692139253088 -5.26549821891927294359 -2.72243211692139253088 -5.26549821891927294359 -5.26549821891927294359 -5.26549821891927294359 -5.26549821891927294359 -2.72243211692139253088 -2.72243211692139253088 -5.26549821891927294359 -0.17936601492351220144 -0.17936601492351220144 -2.72243211692139253088 -2.72243211692139253088 -2.72243211692139253088 -10.35163042291503465719 -7.80856432091715380039 -5.26549821891927294359 -0.17936601492351220144 -5.26549821891927294359 -0.17936601492351220144 -2.72243211692139253088 2.36370008707436829454 -2.72243211692139253088 -5.26549821891927294359 -12.89469652491291640217 -5.26549821891927294359 -7.80856432091715380039 -2.72243211692139253088 -0.17936601492351220144 -0.17936601492351220144 -2.72243211692139253088 -7.80856432091715380039 -2.72243211692139253088 -7.80856432091715380039 -7.80856432091715380039 -7.80856432091715380039 -5.26549821891927294359 -5.26549821891927294359 2.36370008707436829454 -0.17936601492351220144 -2.72243211692139253088 -0.17936601492351220144 -7.80856432091715380039 -7.80856432091715380039 -7.80856432091715380039 -5.26549821891927294359 -2.72243211692139253088 -0.17936601492351220144 -0.17936601492351220144 -0.17936601492351220144 -2.72243211692139253088 -2.72243211692139253088 -2.72243211692139253088 -5.26549821891927294359 -5.26549821891927294359 -0.17936601492351220144 -0.17936601492351220144 -2.72243211692139253088 -5.26549821891927294359 -5.26549821891927294359 -5.26549821891927294359 -2.72243211692139253088 -0.17936601492351220144 -0.17936601492351220144 -0.17936601492351220144 -2.72243211692139253088 -0.17936601492351220144 -2.72243211692139253088 -0.17936601492351220144 -2.72243211692139253088 2.36370008707436829454 7.44983229107013045223 9.99289839306800864449 4.90676618907224870725 2.36370008707436829454 9.99289839306800864449 4.90676618907224870725 4.90676618907224870725 4.90676618907224870725 4.90676618907224870725 -0.17936601492351220144 2.36370008707436829454 4.90676618907224870725 4.90676618907224870725 4.90676618907224870725 -0.17936601492351220144 7.44983229107013045223 7.44983229107013045223 9.99289839306800864449 2.36370008707436829454 4.90676618907224870725 9.99289839306800864449 4.90676618907224870725 9.99289839306800864449 4.90676618907224870725 4.90676618907224870725 9.99289839306800864449 9.99289839306800864449 4.90676618907224870725 4.90676618907224870725 -0.17936601492351220144 2.36370008707436829454 4.90676618907224870725 7.44983229107013045223 7.44983229107013045223 4.90676618907224870725 -0.17936601492351220144 4.90676618907224870725 4.90676618907224870725 -2.72243211692139253088 -7.80856432091715380039 4.90676618907224870725 4.90676618907224870725 2.36370008707436829454 7.44983229107013045223 -0.17936601492351220144 -0.17936601492351220144 -0.17936601492351220144 -0.17936601492351220144 -2.72243211692139253088 -7.80856432091715380039 -0.17936601492351220144 -0.17936601492351220144 4.90676618907224870725 2.36370008707436829454 2.36370008707436829454 2.36370008707436829454 -0.17936601492351220144 -2.72243211692139253088 -5.26549821891927294359 -2.72243211692139253088 -5.26549821891927294359 -7.80856432091715380039 -5.26549821891927294359 -2.72243211692139253088 -0.17936601492351220144 -7.80856432091715380039 -2.72243211692139253088 -7.80856432091715380039 -5.26549821891927294359 -5.26549821891927294359 -7.80856432091715380039 -2.72243211692139253088 -0.17936601492351220144 -0.17936601492351220144 2.36370008707436829454 -2.72243211692139253088 -2.72243211692139253088 -7.80856432091715380039 -7.80856432091715380039 -2.72243211692139253088 -7.80856432091715380039 -0.17936601492351220144 -2.72243211692139253088 -2.72243211692139253088 -2.72243211692139253088 -0.17936601492351220144 -5.26549821891927294359 -7.80856432091715380039 -7.80856432091715380039 -5.26549821891927294359 -5.26549821891927294359 -7.80856432091715380039 -5.26549821891927294359 -2.72243211692139253088 2.36370008707436829454 -2.72243211692139253088 -2.72243211692139253088 -0.17936601492351220144 -0.17936601492351220144 -7.80856432091715380039 -5.26549821891927294359 -5.26549821891927294359 2.36370008707436829454 -2.72243211692139253088 -0.17936601492351220144 -0.17936601492351220144 -5.26549821891927294359 -5.26549821891927294359 -0.17936601492351220144 2.36370008707436829454 -0.17936601492351220144 4.90676618907224870725 -0.17936601492351220144 7.44983229107013045223 4.90676618907224870725 -0.17936601492351220144 2.36370008707436829454 -0.17936601492351220144 -2.72243211692139253088 -2.72243211692139253088 -2.72243211692139253088 4.90676618907224870725 2.36370008707436829454 2.36370008707436829454 -0.17936601492351220144 2.36370008707436829454 -0.17936601492351220144 -0.17936601492351220144 -0.17936601492351220144 4.90676618907224870725 4.90676618907224870725 2.36370008707436829454 4.90676618907224870725 7.44983229107013045223 2.36370008707436829454 4.90676618907224870725 4.90676618907224870725 7.44983229107013045223 2.36370008707436829454 4.90676618907224870725 7.44983229107013045223 4.90676618907224870725 2.36370008707436829454 2.36370008707436829454 4.90676618907224870725 2.36370008707436829454 4.90676618907224870725 -0.17936601492351220144 2.36370008707436829454 2.36370008707436829454 2.36370008707436829454 4.90676618907224870725 2.36370008707436829454 -0.17936601492351220144 2.36370008707436829454 4.90676618907224870725 -2.72243211692139253088 2.36370008707436829454 2.36370008707436829454 7.44983229107013045223 7.44983229107013045223 -0.17936601492351220144 -0.17936601492351220144 -0.17936601492351220144 -0.17936601492351220144 2.36370008707436829454 -0.17936601492351220144 4.90676618907224870725 -2.72243211692139253088 -0.17936601492351220144 4.90676618907224870725 4.90676618907224870725 -0.17936601492351220144 -2.72243211692139253088 -2.72243211692139253088 -2.72243211692139253088 2.36370008707436829454 2.36370008707436829454 2.36370008707436829454 2.36370008707436829454 -0.17936601492351220144 2.36370008707436829454 2.36370008707436829454 4.90676618907224870725 -0.17936601492351220144 -2.72243211692139253088 -0.17936601492351220144 4.90676618907224870725 2.36370008707436829454 2.36370008707436829454 2.36370008707436829454 4.90676618907224870725 2.36370008707436829454 -0.17936601492351220144 -2.72243211692139253088 2.36370008707436829454 2.36370008707436829454 2.36370008707436829454 2.36370008707436829454 2.36370008707436829454 4.90676618907224870725 7.44983229107013045223 -0.17936601492351220144 2.36370008707436829454 -0.17936601492351220144 2.36370008707436829454 4.90676618907224870725 4.90676618907224870725 4.90676618907224870725 2.36370008707436829454 4.90676618907224870725 2.36370008707436829454 -2.72243211692139253088 -5.26549821891927294359 -0.17936601492351220144 2.36370008707436829454 2.36370008707436829454 4.90676618907224870725 2.36370008707436829454 -0.17936601492351220144 2.36370008707436829454 4.90676618907224870725 2.36370008707436829454 9.99289839306800864449 22.70822890305741381667 22.70822890305741381667 20.16516280105953029533 20.16516280105953029533 9.99289839306800864449 15.07903059706377035809 15.07903059706377035809 20.16516280105953029533 20.16516280105953029533 25.25129500505529378529 22.70822890305741381667 20.16516280105953029533 15.07903059706377035809 9.99289839306800864449 9.99289839306800864449 12.53596449506589038947 15.07903059706377035809 9.99289839306800864449 15.07903059706377035809 7.44983229107013045223 2.36370008707436829454 4.90676618907224870725 4.90676618907224870725 2.36370008707436829454 2.36370008707436829454 7.44983229107013045223 2.36370008707436829454 2.36370008707436829454 2.36370008707436829454 -2.72243211692139253088 2.36370008707436829454 -2.72243211692139253088 -0.17936601492351220144 4.90676618907224870725 9.99289839306800864449 15.07903059706377035809 4.90676618907224870725 7.44983229107013045223 4.90676618907224870725 7.44983229107013045223 -0.17936601492351220144 2.36370008707436829454 7.44983229107013045223 2.36370008707436829454 7.44983229107013045223 4.90676618907224870725 4.90676618907224870725 4.90676618907224870725 2.36370008707436829454 4.90676618907224870725 4.90676618907224870725 -0.17936601492351220144 7.44983229107013045223 7.44983229107013045223 2.36370008707436829454 2.36370008707436829454 2.36370008707436829454 -0.17936601492351220144 4.90676618907224870725 -2.72243211692139253088 -0.17936601492351220144 2.36370008707436829454 9.99289839306800864449 -0.17936601492351220144 2.36370008707436829454 2.36370008707436829454 -0.17936601492351220144 2.36370008707436829454 -2.72243211692139253088 -2.72243211692139253088 -2.72243211692139253088 2.36370008707436829454 2.36370008707436829454 4.90676618907224870725 2.36370008707436829454 -0.17936601492351220144 -5.26549821891927294359 -0.17936601492351220144 -0.17936601492351220144 -10.35163042291503465719 -0.17936601492351220144 -0.17936601492351220144 -2.72243211692139253088 2.36370008707436829454 4.90676618907224870725 4.90676618907224870725 -0.17936601492351220144 -0.17936601492351220144 -0.17936601492351220144 4.90676618907224870725 -5.26549821891927294359 -0.17936601492351220144 -0.17936601492351220144 -2.72243211692139253088 -0.17936601492351220144 -5.26549821891927294359 -5.26549821891927294359 -5.26549821891927294359 -10.35163042291503465719 -10.35163042291503465719 -7.80856432091715380039 -5.26549821891927294359 -15.43776262691079637079 -10.35163042291503465719 -10.35163042291503465719 -10.35163042291503465719 -2.72243211692139253088 -5.26549821891927294359 -5.26549821891927294359 -5.26549821891927294359 -2.72243211692139253088 -2.72243211692139253088 -0.17936601492351220144 2.36370008707436829454 2.36370008707436829454 -0.17936601492351220144 -0.17936601492351220144 -0.17936601492351220144 -0.17936601492351220144 -7.80856432091715380039 -7.80856432091715380039 -5.26549821891927294359 -5.26549821891927294359 -5.26549821891927294359 -5.26549821891927294359 -5.26549821891927294359 -0.17936601492351220144 -7.80856432091715380039 -7.80856432091715380039 -2.72243211692139253088 -2.72243211692139253088 -2.72243211692139253088 -5.26549821891927294359 -0.17936601492351220144 -7.80856432091715380039 -5.26549821891927294359 -2.72243211692139253088 2.36370008707436829454 -0.17936601492351220144 4.90676618907224870725 2.36370008707436829454 -2.72243211692139253088 -2.72243211692139253088 -0.17936601492351220144 2.36370008707436829454 -0.17936601492351220144 -0.17936601492351220144 -2.72243211692139253088 -5.26549821891927294359 -0.17936601492351220144 -0.17936601492351220144 -7.80856432091715380039 -2.72243211692139253088 -10.35163042291503465719 -5.26549821891927294359 -7.80856432091715380039 -5.26549821891927294359 -7.80856432091715380039 -10.35163042291503465719 -7.80856432091715380039 -10.35163042291503465719 -10.35163042291503465719 -7.80856432091715380039 -7.80856432091715380039 -10.35163042291503465719 -7.80856432091715380039 -10.35163042291503465719 -12.89469652491291640217 -10.35163042291503465719 -10.35163042291503465719 -10.35163042291503465719 -10.35163042291503465719 -12.89469652491291640217 -12.89469652491291640217 -10.35163042291503465719 -15.43776262691079637079 -15.43776262691079637079 -15.43776262691079637079 -20.52389483090655630804 -20.52389483090655630804 -17.98082872890867633942 -15.43776262691079637079 -15.43776262691079637079 -15.43776262691079637079 -15.43776262691079637079 -17.98082872890867633942 -25.61002703490231979799 -17.98082872890867633942 -17.98082872890867633942 -20.52389483090655630804 -20.52389483090655630804 -23.06696093290443982937 -20.52389483090655630804 -23.06696093290443982937 -17.98082872890867633942 -23.06696093290443982937 -20.52389483090655630804 -25.61002703490231979799 -23.06696093290443982937 -23.06696093290443982937 -23.06696093290443982937 -23.06696093290443982937 -20.52389483090655630804 -25.61002703490231979799 -23.06696093290443982937 -23.06696093290443982937 -25.61002703490231979799 -23.06696093290443982937 -23.06696093290443982937 -20.52389483090655630804 -20.52389483090655630804 -20.52389483090655630804 -17.98082872890867633942 -20.52389483090655630804 -20.52389483090655630804 -17.98082872890867633942 -17.98082872890867633942 -15.43776262691079637079 -15.43776262691079637079 -15.43776262691079637079 -17.98082872890867633942 -15.43776262691079637079 -15.43776262691079637079 -17.98082872890867633942 -15.43776262691079637079 -12.89469652491291640217 -15.43776262691079637079 -17.98082872890867633942 -12.89469652491291640217 -15.43776262691079637079 -12.89469652491291640217 -12.89469652491291640217 -15.43776262691079637079 -12.89469652491291640217 -10.35163042291503465719 -10.35163042291503465719 -10.35163042291503465719 -10.35163042291503465719 -12.89469652491291640217 -7.80856432091715380039 -10.35163042291503465719 -10.35163042291503465719 -10.35163042291503465719 -12.89469652491291640217 -7.80856432091715380039 -12.89469652491291640217 -7.80856432091715380039 -5.26549821891927294359 -12.89469652491291640217 -7.80856432091715380039 -7.80856432091715380039 -10.35163042291503465719 -7.80856432091715380039 -12.89469652491291640217 -12.89469652491291640217 -10.35163042291503465719 -10.35163042291503465719 -10.35163042291503465719 -10.35163042291503465719 -10.35163042291503465719 -7.80856432091715380039 -7.80856432091715380039 -12.89469652491291640217 -10.35163042291503465719 -7.80856432091715380039 -12.89469652491291640217 -7.80856432091715380039 -7.80856432091715380039 -12.89469652491291640217 -10.35163042291503465719 -5.26549821891927294359 -15.43776262691079637079 -15.43776262691079637079 -10.35163042291503465719 -12.89469652491291640217 -12.89469652491291640217 -12.89469652491291640217 -12.89469652491291640217 -15.43776262691079637079 -15.43776262691079637079 -17.98082872890867633942 -10.35163042291503465719 -12.89469652491291640217 -10.35163042291503465719 -10.35163042291503465719 -12.89469652491291640217 -10.35163042291503465719 -15.43776262691079637079 -20.52389483090655630804 -10.35163042291503465719 -10.35163042291503465719 -15.43776262691079637079 -12.89469652491291640217 -7.80856432091715380039 -7.80856432091715380039 -15.43776262691079637079 -12.89469652491291640217 -10.35163042291503465719 -12.89469652491291640217 -10.35163042291503465719 -12.89469652491291640217 -12.89469652491291640217 -12.89469652491291640217 -12.89469652491291640217 -12.89469652491291640217 -7.80856432091715380039 -5.26549821891927294359 -15.43776262691079637079 -10.35163042291503465719 -10.35163042291503465719 -12.89469652491291640217 -5.26549821891927294359 -10.35163042291503465719 -5.26549821891927294359 -10.35163042291503465719 -7.80856432091715380039 -7.80856432091715380039 -10.35163042291503465719 -7.80856432091715380039 -5.26549821891927294359 -5.26549821891927294359 -2.72243211692139253088 -0.17936601492351220144 -7.80856432091715380039 -7.80856432091715380039 -7.80856432091715380039 -5.26549821891927294359 -0.17936601492351220144 -2.72243211692139253088 -2.72243211692139253088 -5.26549821891927294359 -2.72243211692139253088 -0.17936601492351220144 -2.72243211692139253088 -0.17936601492351220144 -5.26549821891927294359 -0.17936601492351220144 2.36370008707436829454 -0.17936601492351220144 -2.72243211692139253088 2.36370008707436829454 9.99289839306800864449 4.90676618907224870725 4.90676618907224870725 7.44983229107013045223 2.36370008707436829454 7.44983229107013045223 7.44983229107013045223 7.44983229107013045223 7.44983229107013045223 7.44983229107013045223 4.90676618907224870725 7.44983229107013045223 12.53596449506589038947 12.53596449506589038947 12.53596449506589038947 9.99289839306800864449 7.44983229107013045223 7.44983229107013045223 7.44983229107013045223 12.53596449506589038947 15.07903059706377035809 12.53596449506589038947 9.99289839306800864449 9.99289839306800864449 12.53596449506589038947 7.44983229107013045223 12.53596449506589038947 9.99289839306800864449 17.62209669906165032671 12.53596449506589038947 12.53596449506589038947 12.53596449506589038947 9.99289839306800864449 12.53596449506589038947 4.90676618907224870725 12.53596449506589038947 7.44983229107013045223 12.53596449506589038947 7.44983229107013045223 9.99289839306800864449 7.44983229107013045223 7.44983229107013045223 4.90676618907224870725 4.90676618907224870725 9.99289839306800864449 9.99289839306800864449 7.44983229107013045223 7.44983229107013045223 2.36370008707436829454 -0.17936601492351220144 2.36370008707436829454 -0.17936601492351220144 2.36370008707436829454 4.90676618907224870725 9.99289839306800864449 7.44983229107013045223 4.90676618907224870725 4.90676618907224870725 2.36370008707436829454 2.36370008707436829454 -0.17936601492351220144 -0.17936601492351220144 4.90676618907224870725 4.90676618907224870725 7.44983229107013045223 2.36370008707436829454 2.36370008707436829454 4.90676618907224870725 2.36370008707436829454 2.36370008707436829454 -0.17936601492351220144 2.36370008707436829454 2.36370008707436829454 2.36370008707436829454 -0.17936601492351220144 2.36370008707436829454 2.36370008707436829454 2.36370008707436829454 2.36370008707436829454 -0.17936601492351220144 -0.17936601492351220144 2.36370008707436829454 2.36370008707436829454 4.90676618907224870725 -0.17936601492351220144 -0.17936601492351220144 -0.17936601492351220144 -2.72243211692139253088 -2.72243211692139253088 2.36370008707436829454 -0.17936601492351220144 4.90676618907224870725 -0.17936601492351220144 2.36370008707436829454 -0.17936601492351220144 -0.17936601492351220144 -0.17936601492351220144 -5.26549821891927294359 -0.17936601492351220144 2.36370008707436829454 2.36370008707436829454 2.36370008707436829454 -0.17936601492351220144 2.36370008707436829454 -7.80856432091715380039 -5.26549821891927294359 -2.72243211692139253088 -2.72243211692139253088 -0.17936601492351220144 -0.17936601492351220144 4.90676618907224870725 -0.17936601492351220144 -0.17936601492351220144 -2.72243211692139253088 2.36370008707436829454 -5.26549821891927294359 -5.26549821891927294359 -0.17936601492351220144 -0.17936601492351220144 -0.17936601492351220144 -2.72243211692139253088 -5.26549821891927294359 -2.72243211692139253088 -7.80856432091715380039 -5.26549821891927294359 -5.26549821891927294359 -5.26549821891927294359 -0.17936601492351220144 2.36370008707436829454 -2.72243211692139253088 -0.17936601492351220144 -2.72243211692139253088 -5.26549821891927294359 -10.35163042291503465719 -7.80856432091715380039 -2.72243211692139253088 -2.72243211692139253088 2.36370008707436829454 -2.72243211692139253088 -2.72243211692139253088 -0.17936601492351220144 -2.72243211692139253088 -2.72243211692139253088 -0.17936601492351220144 -7.80856432091715380039 -2.72243211692139253088 -0.17936601492351220144 -2.72243211692139253088 -0.17936601492351220144 2.36370008707436829454 -5.26549821891927294359 -0.17936601492351220144 -2.72243211692139253088 -5.26549821891927294359 4.90676618907224870725 4.90676618907224870725 4.90676618907224870725 -0.17936601492351220144 -0.17936601492351220144 2.36370008707436829454 -0.17936601492351220144 -5.26549821891927294359 -0.17936601492351220144 2.36370008707436829454 7.44983229107013045223 -0.17936601492351220144 -0.17936601492351220144 2.36370008707436829454 -0.17936601492351220144 -2.72243211692139253088 -2.72243211692139253088 -5.26549821891927294359 -0.17936601492351220144 4.90676618907224870725 2.36370008707436829454 2.36370008707436829454 -0.17936601492351220144 2.36370008707436829454 -0.17936601492351220144 -2.72243211692139253088 -2.72243211692139253088 2.36370008707436829454 4.90676618907224870725 4.90676618907224870725 7.44983229107013045223 -0.17936601492351220144 4.90676618907224870725 -0.17936601492351220144 -0.17936601492351220144 4.90676618907224870725 4.90676618907224870725 4.90676618907224870725 9.99289839306800864449 2.36370008707436829454 4.90676618907224870725 4.90676618907224870725 7.44983229107013045223 4.90676618907224870725 7.44983229107013045223 4.90676618907224870725 4.90676618907224870725 9.99289839306800864449 7.44983229107013045223 12.53596449506589038947 9.99289839306800864449 7.44983229107013045223 2.36370008707436829454 7.44983229107013045223 4.90676618907224870725 12.53596449506589038947 9.99289839306800864449 12.53596449506589038947 4.90676618907224870725 7.44983229107013045223 7.44983229107013045223 12.53596449506589038947 4.90676618907224870725 2.36370008707436829454 7.44983229107013045223 7.44983229107013045223 9.99289839306800864449 12.53596449506589038947 9.99289839306800864449 7.44983229107013045223 7.44983229107013045223 7.44983229107013045223 2.36370008707436829454 7.44983229107013045223 9.99289839306800864449 7.44983229107013045223 7.44983229107013045223 4.90676618907224870725 -0.17936601492351220144 2.36370008707436829454 2.36370008707436829454 -0.17936601492351220144 2.36370008707436829454 2.36370008707436829454 4.90676618907224870725 7.44983229107013045223 2.36370008707436829454 -0.17936601492351220144 4.90676618907224870725 -5.26549821891927294359 -0.17936601492351220144 -5.26549821891927294359 -0.17936601492351220144 2.36370008707436829454 -0.17936601492351220144 -0.17936601492351220144 -2.72243211692139253088 -5.26549821891927294359 -5.26549821891927294359 -5.26549821891927294359 -7.80856432091715380039 -5.26549821891927294359 -7.80856432091715380039 -2.72243211692139253088 -7.80856432091715380039 2.36370008707436829454 -2.72243211692139253088 -7.80856432091715380039 -7.80856432091715380039 -12.89469652491291640217 -12.89469652491291640217 -10.35163042291503465719 -5.26549821891927294359 -7.80856432091715380039 -5.26549821891927294359 -10.35163042291503465719 -10.35163042291503465719 -10.35163042291503465719 -10.35163042291503465719 -10.35163042291503465719 -7.80856432091715380039 -10.35163042291503465719 -5.26549821891927294359 -10.35163042291503465719 -7.80856432091715380039 -7.80856432091715380039 -12.89469652491291640217 -7.80856432091715380039 -5.26549821891927294359 -2.72243211692139253088 -7.80856432091715380039 -7.80856432091715380039 -10.35163042291503465719 -10.35163042291503465719 -7.80856432091715380039 -2.72243211692139253088 -0.17936601492351220144 -7.80856432091715380039 -5.26549821891927294359 -10.35163042291503465719 -2.72243211692139253088 -10.35163042291503465719 -10.35163042291503465719 -5.26549821891927294359 -2.72243211692139253088 -2.72243211692139253088 -5.26549821891927294359 -7.80856432091715380039 -7.80856432091715380039 -10.35163042291503465719 -5.26549821891927294359 -0.17936601492351220144 -2.72243211692139253088 -2.72243211692139253088 -0.17936601492351220144 -7.80856432091715380039 -5.26549821891927294359 -7.80856432091715380039 -5.26549821891927294359 -7.80856432091715380039 -7.80856432091715380039 -7.80856432091715380039 -0.17936601492351220144 -5.26549821891927294359 -7.80856432091715380039 -0.17936601492351220144 -7.80856432091715380039 -5.26549821891927294359 -7.80856432091715380039 -12.89469652491291640217 -10.35163042291503465719 -5.26549821891927294359 -5.26549821891927294359 -5.26549821891927294359 -5.26549821891927294359 -5.26549821891927294359 -5.26549821891927294359 -7.80856432091715380039 -10.35163042291503465719 -7.80856432091715380039 -2.72243211692139253088 -2.72243211692139253088 -2.72243211692139253088 -5.26549821891927294359 -7.80856432091715380039 -5.26549821891927294359 -7.80856432091715380039 -7.80856432091715380039 -7.80856432091715380039 -5.26549821891927294359 -2.72243211692139253088 -2.72243211692139253088 -7.80856432091715380039 -5.26549821891927294359 -5.26549821891927294359 -7.80856432091715380039 -10.35163042291503465719 -5.26549821891927294359 -7.80856432091715380039 -5.26549821891927294359 -7.80856432091715380039 -10.35163042291503465719 -7.80856432091715380039 -12.89469652491291640217 -7.80856432091715380039 -7.80856432091715380039 -5.26549821891927294359 -2.72243211692139253088 -5.26549821891927294359 -10.35163042291503465719 -5.26549821891927294359 -5.26549821891927294359 -7.80856432091715380039 -7.80856432091715380039 -12.89469652491291640217 -7.80856432091715380039 -5.26549821891927294359 -5.26549821891927294359 -2.72243211692139253088 -5.26549821891927294359 -10.35163042291503465719 -7.80856432091715380039 -10.35163042291503465719 -7.80856432091715380039 -5.26549821891927294359 -0.17936601492351220144 -5.26549821891927294359 -2.72243211692139253088 -7.80856432091715380039 -7.80856432091715380039 -12.89469652491291640217 -10.35163042291503465719 -10.35163042291503465719 -5.26549821891927294359 -5.26549821891927294359 -5.26549821891927294359 -10.35163042291503465719 -7.80856432091715380039 -5.26549821891927294359 -10.35163042291503465719 -12.89469652491291640217 -12.89469652491291640217 -12.89469652491291640217 -7.80856432091715380039 -5.26549821891927294359 -5.26549821891927294359 -2.72243211692139253088 -5.26549821891927294359 -10.35163042291503465719 -7.80856432091715380039 -7.80856432091715380039 -12.89469652491291640217 -10.35163042291503465719 -7.80856432091715380039 -5.26549821891927294359 -5.26549821891927294359 -5.26549821891927294359 -10.35163042291503465719 -10.35163042291503465719 -12.89469652491291640217 -10.35163042291503465719 -12.89469652491291640217 -2.72243211692139253088 -10.35163042291503465719 -7.80856432091715380039 -7.80856432091715380039 -5.26549821891927294359 -12.89469652491291640217 -12.89469652491291640217 -10.35163042291503465719 -12.89469652491291640217 -10.35163042291503465719 -10.35163042291503465719 -7.80856432091715380039 -10.35163042291503465719 -5.26549821891927294359 -7.80856432091715380039 -12.89469652491291640217 -10.35163042291503465719 -15.43776262691079637079 -7.80856432091715380039 -7.80856432091715380039 -5.26549821891927294359 -2.72243211692139253088 -5.26549821891927294359 -10.35163042291503465719 -10.35163042291503465719 -12.89469652491291640217 -15.43776262691079637079 -7.80856432091715380039 -10.35163042291503465719 -7.80856432091715380039 -7.80856432091715380039 -7.80856432091715380039 -10.35163042291503465719 -10.35163042291503465719 -12.89469652491291640217 -12.89469652491291640217 -12.89469652491291640217 -7.80856432091715380039 -5.26549821891927294359 -7.80856432091715380039 -5.26549821891927294359 -10.35163042291503465719 -12.89469652491291640217 -12.89469652491291640217 -10.35163042291503465719 -5.26549821891927294359 -7.80856432091715380039 -7.80856432091715380039 -10.35163042291503465719 -7.80856432091715380039 -12.89469652491291640217 -10.35163042291503465719 -10.35163042291503465719 -7.80856432091715380039 -5.26549821891927294359 -2.72243211692139253088 -5.26549821891927294359 -2.72243211692139253088 -2.72243211692139253088 -7.80856432091715380039 -7.80856432091715380039 -10.35163042291503465719 -12.89469652491291640217 -2.72243211692139253088 -5.26549821891927294359 -7.80856432091715380039 -5.26549821891927294359 -7.80856432091715380039 -10.35163042291503465719 -7.80856432091715380039 -5.26549821891927294359 -12.89469652491291640217 -2.72243211692139253088 -0.17936601492351220144 2.36370008707436829454 -2.72243211692139253088 -7.80856432091715380039 -5.26549821891927294359 -5.26549821891927294359 -10.35163042291503465719 -10.35163042291503465719 -5.26549821891927294359 -2.72243211692139253088 -7.80856432091715380039 -2.72243211692139253088 -5.26549821891927294359 -2.72243211692139253088 -7.80856432091715380039 -10.35163042291503465719 -5.26549821891927294359 -5.26549821891927294359 -0.17936601492351220144 -0.17936601492351220144 -2.72243211692139253088 -2.72243211692139253088 -5.26549821891927294359 -7.80856432091715380039 -0.17936601492351220144 -2.72243211692139253088 -2.72243211692139253088 -0.17936601492351220144 -2.72243211692139253088 -2.72243211692139253088 -2.72243211692139253088 -5.26549821891927294359 -7.80856432091715380039 -7.80856432091715380039 -2.72243211692139253088 -2.72243211692139253088 -0.17936601492351220144 -2.72243211692139253088 -2.72243211692139253088 -7.80856432091715380039 -2.72243211692139253088 -2.72243211692139253088 -2.72243211692139253088 -5.26549821891927294359 -0.17936601492351220144 -5.26549821891927294359 -5.26549821891927294359 -7.80856432091715380039 -7.80856432091715380039 -0.17936601492351220144 -5.26549821891927294359 -0.17936601492351220144 -0.17936601492351220144 -2.72243211692139253088 -2.72243211692139253088 -5.26549821891927294359 -10.35163042291503465719 -7.80856432091715380039 -10.35163042291503465719 -10.35163042291503465719 -0.17936601492351220144 -5.26549821891927294359 -2.72243211692139253088 -5.26549821891927294359 -10.35163042291503465719 -5.26549821891927294359 -7.80856432091715380039 -10.35163042291503465719 -10.35163042291503465719 -5.26549821891927294359 -5.26549821891927294359 -5.26549821891927294359 -7.80856432091715380039 -5.26549821891927294359 -7.80856432091715380039 -10.35163042291503465719 -10.35163042291503465719 -7.80856432091715380039 -7.80856432091715380039 -7.80856432091715380039 -7.80856432091715380039 -10.35163042291503465719 -5.26549821891927294359 -12.89469652491291640217 -12.89469652491291640217 -10.35163042291503465719 -15.43776262691079637079 -15.43776262691079637079 -10.35163042291503465719 -7.80856432091715380039 -7.80856432091715380039 -10.35163042291503465719 -10.35163042291503465719 -12.89469652491291640217 -10.35163042291503465719 -12.89469652491291640217 -15.43776262691079637079 -10.35163042291503465719 -10.35163042291503465719 -10.35163042291503465719 -7.80856432091715380039 -12.89469652491291640217 -10.35163042291503465719 -12.89469652491291640217 -12.89469652491291640217 -15.43776262691079637079 -10.35163042291503465719 -10.35163042291503465719 -10.35163042291503465719 -7.80856432091715380039 -10.35163042291503465719 -12.89469652491291640217 -15.43776262691079637079 -15.43776262691079637079 -12.89469652491291640217 -7.80856432091715380039 -10.35163042291503465719 -7.80856432091715380039 -15.43776262691079637079 -12.89469652491291640217 -15.43776262691079637079 -17.98082872890867633942 -15.43776262691079637079 -5.26549821891927294359 -10.35163042291503465719 -5.26549821891927294359 -10.35163042291503465719 -7.80856432091715380039 -12.89469652491291640217 -12.89469652491291640217 -15.43776262691079637079 -15.43776262691079637079 -10.35163042291503465719 -10.35163042291503465719 -7.80856432091715380039 -7.80856432091715380039 -7.80856432091715380039 -10.35163042291503465719 -12.89469652491291640217 -10.35163042291503465719 -12.89469652491291640217 -10.35163042291503465719 -7.80856432091715380039 -5.26549821891927294359 -7.80856432091715380039 -12.89469652491291640217 -10.35163042291503465719 -7.80856432091715380039 -15.43776262691079637079 -7.80856432091715380039 -10.35163042291503465719 -5.26549821891927294359 -5.26549821891927294359 -7.80856432091715380039 -7.80856432091715380039 -10.35163042291503465719 -10.35163042291503465719 -12.89469652491291640217 -12.89469652491291640217 -10.35163042291503465719 -10.35163042291503465719 -7.80856432091715380039 -7.80856432091715380039 -5.26549821891927294359 -12.89469652491291640217 -7.80856432091715380039 -10.35163042291503465719 -7.80856432091715380039 -5.26549821891927294359 -7.80856432091715380039 -7.80856432091715380039 -5.26549821891927294359 -10.35163042291503465719 -12.89469652491291640217 -12.89469652491291640217 -5.26549821891927294359 -5.26549821891927294359 -10.35163042291503465719 -7.80856432091715380039 -7.80856432091715380039 -12.89469652491291640217 -12.89469652491291640217 -12.89469652491291640217 -7.80856432091715380039 -7.80856432091715380039 -7.80856432091715380039 -7.80856432091715380039 -7.80856432091715380039 -10.35163042291503465719 -10.35163042291503465719 -15.43776262691079637079 -10.35163042291503465719 -5.26549821891927294359 -10.35163042291503465719 -10.35163042291503465719 -10.35163042291503465719 -10.35163042291503465719 -12.89469652491291640217 -12.89469652491291640217 -5.26549821891927294359 -5.26549821891927294359 -10.35163042291503465719 -7.80856432091715380039 -12.89469652491291640217 -10.35163042291503465719 -10.35163042291503465719 -15.43776262691079637079 -12.89469652491291640217 -7.80856432091715380039 -10.35163042291503465719 -7.80856432091715380039 -12.89469652491291640217 -10.35163042291503465719 -7.80856432091715380039 -12.89469652491291640217 -12.89469652491291640217 -10.35163042291503465719 -10.35163042291503465719 -10.35163042291503465719 -7.80856432091715380039 -7.80856432091715380039 -10.35163042291503465719 -12.89469652491291640217 -10.35163042291503465719 -7.80856432091715380039 -5.26549821891927294359 -10.35163042291503465719 -5.26549821891927294359 -12.89469652491291640217 -12.89469652491291640217 -10.35163042291503465719 -10.35163042291503465719 -17.98082872890867633942 -12.89469652491291640217 -12.89469652491291640217 -7.80856432091715380039 -7.80856432091715380039 -7.80856432091715380039 -10.35163042291503465719 -10.35163042291503465719 -10.35163042291503465719 -17.98082872890867633942 -12.89469652491291640217 -12.89469652491291640217 -12.89469652491291640217 -7.80856432091715380039 -7.80856432091715380039 -15.43776262691079637079 -7.80856432091715380039 -15.43776262691079637079 -15.43776262691079637079 -10.35163042291503465719 -7.80856432091715380039 -10.35163042291503465719 -7.80856432091715380039 -10.35163042291503465719 -7.80856432091715380039 -15.43776262691079637079 -17.98082872890867633942 -12.89469652491291640217 -7.80856432091715380039 -7.80856432091715380039 -10.35163042291503465719 -10.35163042291503465719 -10.35163042291503465719 -7.80856432091715380039 -10.35163042291503465719 -15.43776262691079637079 -10.35163042291503465719 -10.35163042291503465719 -12.89469652491291640217 -10.35163042291503465719 -10.35163042291503465719 -10.35163042291503465719 -10.35163042291503465719 -12.89469652491291640217 -12.89469652491291640217 -10.35163042291503465719 -7.80856432091715380039 -7.80856432091715380039 -0.17936601492351220144 -2.72243211692139253088 -0.17936601492351220144 -5.26549821891927294359 -2.72243211692139253088 -5.26549821891927294359 