-0.336737 -0.423069 -0.504414 0.300676 -1.533998 -1.600871 0.099976 0.923875 0.870744 1.575296 1.038813 -0.750855 -0.940711 0.521268 2.515253 -0.587772 -0.431282 -1.840387 -1.052716 -1.563951 0.680682 -0.004046 -0.431689 -0.508478 -0.051010 1.780511 0.538039 1.434750 0.275420 0.351013 0.348443 1.207019 -0.094676 0.795124 -0.369651 -0.876959 1.136347 -0.031157 -1.686156 -0.199640 -0.163044 -1.083399 -0.793468 0.398855 -2.389163 0.066998 0.087290 -1.571847 0.503967 0.390937 -1.394388 1.629982 0.354119 -1.208739 -0.727512 -0.187542 -0.242533 -0.444188 -1.112519 -1.599323 -1.239873 -0.767626 1.084361 1.291462 0.822181 0.768247 -0.651399 0.147136 1.204583 0.762436 0.295176 2.505977 -1.731248 -3.209980 0.811452 -0.272404 0.200051 0.633334 0.379278 -1.528726 -1.451301 -0.303227 1.472831 -0.337456 -0.287728 -1.134434 -0.674007 -1.204741 -0.579668 -2.134531 -0.780998 0.699230 -1.447292 0.643304 1.332425 -0.632554 0.710043 -1.632033 0.872172 0.207976 -0.031064 0.615840 -1.401070 1.666520 -0.480199 -0.059877 0.116910 -0.749491 -1.440079 -0.193957 1.277466 -0.304790 -0.348607 0.058974 -0.621814 -1.110563 -1.388845 -0.206217 0.977043 0.974076 -1.109949 0.364890 0.515667 -0.196869 -2.418343 1.063761 0.977549 0.919962 0.414846 -0.201189 -0.739101 2.372170 0.068975 0.194508 1.549974 0.091285 -0.022698 -2.283894 2.155224 2.720849 0.688380 0.704322 0.052682 -0.522043 0.791129 0.642102 0.281560 0.517968 1.043391 -0.879812 0.578347 0.674307 0.574585 0.307361 0.311934 0.998049 0.561235 -1.172404 -1.286125 0.029167 0.661491 0.964866 -0.345635 0.696769 -0.282520 1.833289 -1.037959 -2.014548 -1.371648 0.496093 -0.299858 1.974224 -0.595586 -0.931212 1.401630 0.664168 -1.009456 -0.584236 -0.554890 -0.794808 0.725051 -1.254356 -0.017114 0.736465 -0.923965 1.280182 0.088603 0.123667 0.806757 -0.270354 -0.910862 -0.610942 1.231584 2.258236 -1.232267 1.195263 0.135199 -1.337172 0.162828 -0.634866 0.884716 -1.624197 1.387199 0.823618 -0.231056 -0.650583 -0.763012 1.167843 0.555373 0.960688 0.538317 -2.169900 -0.284077 0.842704 -0.324611 -1.232646 -0.943901 0.850263 -0.599094 -0.301067 0.836305 -0.328448 0.648807 -1.032276 0.360760 -0.776588 1.034112 0.484977 -1.365269 -0.007563 -1.524624 -0.152215 -1.036777 -0.004585 2.125561 0.247681 0.336014 -1.798918 0.131184 -0.654530 -0.556441 -0.721661 -0.097036 0.248971 0.129206 0.290622 0.589233 -0.243082 0.101553 0.116684 1.610852 -0.096534 0.729783 0.543722 -1.907519 -0.161718 0.828819 0.307128 1.523819 0.858905 -0.106851 -0.640976 0.093163 1.125995 0.494594 0.959761 0.484691 0.284924 -1.248774 1.249815 -0.790561 1.954667 0.981739 -0.143158 -0.065396 -0.522764 -0.155569 -0.875870 0.118762 -2.660980 -1.217898 -0.234158 0.457849 -0.816249 1.299592 0.102865 0.344710 -0.350078 -0.632233 0.265349 -0.090501 -0.324484 0.446681 0.140615 -1.459397 0.116112 0.234995 -0.722804 -1.467773 -0.158422 0.422150 -0.037295 0.808142 0.693679 -1.090511 1.272571 -0.610178 -1.136920 -0.111138 0.535460 0.759763 -1.347504 0.200406 -1.376703 0.019338 0.876796 -1.174310 -1.838676 2.000560 1.031847 0.646469 0.630589 -0.736452 0.507035 -0.350756 -2.551349 1.384932 -1.442461 0.399244 -0.841585 0.532129 0.365774 1.285345 0.265217 -1.198424 -0.813306 -0.492154 0.124501 2.220631 -0.554778 -1.945076 0.700072 0.753498 -0.301220 -1.025060 -0.682849 0.797432 1.767243 -0.447201 -0.042473 0.125120 -0.498763 -0.192120 -0.920681 -0.050806 -1.405133 -0.328840 1.338641 -0.906201 -0.471841 -0.049950 1.750159 0.179185 -0.647926 -1.134008 0.837147 1.080842 -0.147190 0.740991 -0.301982 -0.141008 -0.721881 -1.102668 -0.881159 2.300557 -1.457268 0.689657 -1.190937 0.395869 1.055659 0.903371 -1.076425 0.962493 -0.391065 0.678564 0.303065 -0.456130 1.234962 -0.889102 -0.417157 -1.034541 0.889636 -0.540421 1.144182 1.458871 -0.614302 -0.214399 1.152545 -0.802825 0.289236 0.013254 -0.160758 1.174885 -0.910555 -0.358110 0.669862 1.324455 -1.618592 -0.113341 -0.093051 -0.269682 1.192492 1.647586 0.161625 1.903660 -0.031062 0.519404 -1.980742 0.551064 0.730859 0.778916 -1.486627 0.007997 0.007291 -0.576832 0.598240 -0.306306 -0.459815 1.952748 -1.310831 0.956382 -0.197240 -0.736133 -0.479740 -1.914561 -0.551604 1.647672 -1.069605 0.122494 0.904738 -0.791130 0.541554 -1.029812 0.286658 1.408716 -1.049267 0.134483 0.850357 -1.049604 -0.506391 -1.835176 -0.329483 2.562939 -1.258713 0.845995 -0.255385 0.124357 -1.352394 0.286138 -0.758630 0.719885 -0.055808 -0.013388 -0.141671 -0.654505 -0.229651 -0.004086 -0.940693 -0.776335 0.811360 -0.576924 0.343576 0.275721 0.377120 -0.494695 0.741506 -1.112360 0.851611 0.259950 0.928883 -1.220846 -0.559000 -0.283568 0.659282 -1.412977 0.757868 0.162087 0.000508 -0.015224 -1.342398 0.855889 -0.389160 -1.135933 0.837793 0.280715 2.480125 0.766407 0.930097 -1.428023 -0.501626 1.447311 -0.132363 1.098989 -0.404035 -1.183447 0.237405 0.424698 0.440083 0.204260 0.069437 0.022001 2.405361 1.626909 1.255106 -1.356422 1.301051 0.122318 -1.517042 -0.284655 0.326829 0.427372 -0.741809 0.588351 -0.195573 -0.822515 0.566534 0.463798 1.677919 0.859946 -0.983045 2.120948 1.535195 -0.361927 0.070885 -0.576882 -0.495508 1.006979 -0.323228 -1.151552 -0.901397 0.371431 -1.380571 -0.022027 1.584202 0.785970 -1.248309 -0.374593 1.649833 -0.662463 -0.377102 1.519890 -0.899555 -0.743110 -0.307289 0.758323 1.046734 -1.017123 0.438526 0.304330 -1.424665 0.896274 1.342961 1.495180 -0.785564 0.696608 -0.066115 0.099291 0.977235 -0.138473 -0.337515 1.318979 0.010738 0.996695 -0.032006 -1.326766 0.070890 -3.252142 0.289544 -0.379892 -0.718491 0.030055 0.879713 1.561527 -0.259021 -0.425716 0.207587 -0.001362 0.626491 0.965099 -0.462489 0.477485 -1.151453 -0.319374 1.553615 0.930155 0.444578 0.299728 -0.449507 0.734527 0.586718 -1.893053 1.225157 -1.122424 2.441837 -0.295345 0.111565 -0.585690 -0.888270 -0.461424 -0.272376 0.238103 -0.163463 0.396660 -1.250593 -0.543099 1.502077 1.016601 2.244109 -0.930497 -0.283831 0.815018 -0.166748 -0.062266 0.682480 0.179833 -0.034381 -1.568958 0.190578 0.049704 -0.076599 -1.747814 -0.313873 0.366734 -0.758791 1.143703 -0.793032 0.378546 -2.143709 0.547619 1.036769 0.410772 0.887822 -0.916138 -0.412243 0.829694 -1.817324 -0.253660 -1.316712 -0.339537 -1.467861 -0.228263 -0.241426 -1.041161 -0.621184 -1.005405 0.896540 -0.424174 -2.007047 0.345225 0.043414 0.689034 1.244309 -0.676553 -1.056889 0.290307 -0.500802 0.382988 0.723664 0.264690 0.011861 -1.430325 0.298269 1.046445 -0.276600 -1.054555 -0.749117 -2.293201 0.008075 -1.063361 2.416091 1.091766 -0.000275 0.436456 0.072666 1.192832 0.073666 1.575562 -0.086446 -1.125160 -1.464357 0.858102 -1.285473 -0.899186 0.865298 -0.457083 0.288453 -0.459618 0.778421 1.314556 0.076868 -0.518927 -0.219342 -0.225664 1.387199 -0.966448 0.230862 0.022027 0.877257 -0.183168 -1.488561 -1.675559 1.262294 2.805224 -0.895551 0.348505 0.521971 -0.220521 -0.655933 -0.059685 -0.274889 -1.597711 -1.346929 0.697816 0.906572 -0.324341 -0.726956 1.537708 0.260777 1.131455 -0.778495 -0.418398 -0.513859 2.033488 0.301828 0.235983 1.035309 -0.677578 -1.021828 -1.151327 0.814925 1.603485 0.541193 1.198250 0.198645 0.591701 0.132295 1.321815 -0.818093 -1.558719 1.157612 -1.238548 0.603961 -0.453184 -0.116953 0.792191 -0.930288 0.474760 -2.180393 0.123810 1.453825 -0.227052 0.607068 -0.269189 0.072819 0.315163 0.416069 -0.470177 2.751189 1.486447 -1.385263 0.279867 -1.032550 -0.597686 0.286140 -1.658301 0.970243 0.078036 0.093152 -0.516243 1.679520 -1.167470 -1.360490 -0.013783 0.640322 0.589958 -1.429602 -0.797923 0.374170 0.238383 -0.476022 -0.206909 -0.265318 1.266762 -0.947949 1.247501 -0.863179 1.203664 -0.045188 -0.597601 -0.386473 -0.268453 0.405960 0.974636 -1.146564 -0.565495 -0.331558 -0.908623 -1.436910 -0.210530 1.150122 -0.508421 -1.156911 -0.431391 -0.155437 -0.915807 1.115789 -1.079478 -0.089953 -0.251717 3.239844 -1.272749 -0.419673 1.662547 -2.055250 0.249986 0.194212 -1.795899 -0.754115 0.963235 -0.210001 -0.234689 -1.581120 -1.457679 -0.291880 0.479164 0.001213 -0.352525 0.482741 0.443513 0.538194 0.744136 -0.108165 0.767352 0.434618 -2.195818 0.211373 -0.896071 1.657298 -0.059338 0.104312 0.187008 -0.463291 -0.878573 -1.168944 0.647163 2.423084 1.050410 0.786933 -1.507663 0.473651 1.456225 -0.596812 1.925592 0.816965 -1.385343 -0.751132 -0.116120 0.020805 -0.231955 -1.070917 -1.625650 0.249555 1.612784 0.126882 0.163129 -0.425814 2.438473 -1.625694 -0.699261 -1.306649 0.456200 0.471717 -0.679575 0.313660 0.258455 1.082945 -0.517398 -0.008397 0.861395 0.322896 1.666234 1.064698 0.748796 0.708257 0.035997 -0.392143 -0.135540 -0.236072 -1.287934 0.443459 2.466156 -2.668003 0.255558 1.347663 1.036506 1.430904 -0.414900 -0.907821 -0.677573 2.011077 0.431965 -0.762793 0.372772 1.176620 -0.016282 -0.440488 -0.009844 -0.098865 1.299537 1.611857 -0.575083 1.409476 0.342061 -0.204645 -2.313166 0.353299 0.619999 -0.153376 1.275326 0.091893 1.004142 -1.351795 -0.197218 1.721679 0.000715 -1.910993 -1.283451 1.428030 -0.195395 0.680499 -1.707453 -2.504599 -0.823025 0.260142 3.037177 1.399809 -1.628746 0.320336 -0.837845 -0.816948 -0.476310 -0.670487 -2.011335 -0.296196 -1.236689 -0.775720 1.100985 0.922139 -0.097333 0.214254 -1.214454 0.120216 1.484386 -0.034129 -1.047463 0.945135 -0.137290 1.677654 -0.389624 -1.525866 -0.196124 -0.236451 0.474979 0.043028 0.677302 0.412334 -0.386818 -0.571887 -0.849877 0.209123 0.678193 0.093197 -0.112381 0.754579 -0.973287 0.554484 -0.219991 -0.855535 0.882515 -0.455015 0.380745 -0.657659 -0.272323 -0.054926 0.026856 0.083456 0.853466 1.227426 0.859436 -0.089106 2.792640 1.985993 1.559678 3.011484 -0.917843 -0.214032 -0.714600 -2.004333 -1.681823 -1.672788 -0.846618 -1.135736 -1.740548 -0.876880 -0.474340 1.467220 -1.454495 0.011001 -0.032671 0.726641 -0.469147 0.702107 2.073956 -0.311522 0.028379 -2.777478 -0.801347 -0.011723 -0.452784 1.668011 -1.744149 -1.034630 1.336175 1.199836 -0.623671 1.378667 0.060368 0.772048 -1.194648 2.091732 -0.475052 -0.274869 -0.032627 -1.433761 -0.245316 -1.016964 -1.608848 0.415569 0.779466 -0.335173 -0.868681 1.502237 -1.228069 -0.569514 -0.144307 -1.742945 0.159407 0.743091 0.451342 0.359822 -0.175748 1.351397 0.419895 1.533957 -1.991927 -0.261224 -1.816790 -1.129087 0.688243 0.319089 0.076314 1.162327 0.443541 0.179728 -1.014390 -0.172806 -0.232637 -0.489905 0.226519 1.567414 -0.706658 -0.042922 1.310257 -0.402494 -0.119013 -2.450058 0.777706 -0.117403 -0.444211 0.412718 -1.349834 0.047363 -0.583930 -1.055784 -0.786838 -0.940873 -0.206388 -0.565401 -0.601987 -1.263579 -1.699046 -0.296554 0.387632 -0.978260 1.506684 -0.166298 -0.141547 -0.010917 0.220561 0.842581 0.280938 1.610840 -0.027878 -0.161929 -0.832069 -0.499329 0.260116 0.614603 -0.067726 -0.342678 1.234956 0.772096 1.374944 0.213320 0.277075 0.912429 -1.171889 -0.056853 -0.360254 -0.666118 0.815532 0.266319 1.738453 0.262631 2.083001 -0.036325 1.063151 0.752977 0.469635 -0.783910 1.045462 0.374660 -1.496000 -0.147026 0.829055 1.131119 1.456951 0.299250 -0.358870 0.793659 1.591926 -2.126947 0.334732 0.056271 -2.660836 -1.016133 -2.226578 -0.807211 -0.131931 -1.777828 -1.023626 0.134706 -1.388255 1.821979 2.072731 -0.032224 -0.531235 0.295384 3.901857 -2.384431 3.014392 -1.183092 -3.041503 -1.812043 2.435506 0.186318 -1.827497 -1.803582 0.159557 -0.065299 0.381660 0.467887 -0.621648 1.106260 0.919836 0.893151 0.771122 0.700071 -1.033944 -0.493326 -1.161324 -0.201263 -0.747650 -0.056527 0.396550 -1.551979 -0.913055 0.349912 1.692530 1.574909 0.000011 -1.580744 0.710970 0.378195 1.786786 -1.640958 0.447880 -0.902057 -0.670049 1.093655 0.565026 -1.646367 -1.114966 0.868821 0.377221 1.532911 -0.708340 0.413246 1.007333 0.823696 1.465342 -0.680600 -0.434063 2.106975 0.340145 0.230043 -0.677023 -0.331392 -0.298051 0.591667 1.134422 -0.333259 0.510174 -0.286505 -1.585206 -0.009208 -1.707298 1.093191 0.194978 -0.049640 0.784741 -0.054359 0.397262 -0.168613 -0.687586 0.389435 0.725960 1.064651 -0.244675 -1.595942 -0.654709 -1.069766 0.133304 3.072141 -1.739486 -1.117180 0.341630 -1.906377 0.517750 -1.360586 1.419927 -1.349976 -0.924346 -0.388679 -1.000134 0.136316 -2.332865 0.018746 0.541223 -0.003626 1.587690 -0.496456 0.001616 -1.333939 -0.560584 -1.239009 -0.412307 -1.651089 -0.659208 0.008294 -1.645269 0.671163 -1.054883 0.250441 0.078167 0.012286 0.683483 0.307309 0.205589 0.269936 -0.571396 -0.197827 0.601108 0.232379 -0.039055 -0.128906 1.573816 -1.471142 0.922775 -0.957943 -0.584408 -0.633505 -0.522182 0.145572 2.251482 -2.016641 0.704161 1.397578 -0.468991 0.555761 1.305058 -0.114017 2.169427 -1.062959 -1.100102 0.894119 0.574577 -1.422111 0.612839 1.068577 0.480894 0.273507 0.674185 0.605314 -0.397240 -0.857421 2.776785 0.524407 -0.605225 1.409240 0.302351 -0.491637 0.760372 0.667111 0.229089 -0.104029 0.893960 -1.098986 -0.664604 -0.284184 -1.044764 -0.930964 1.675617 -0.057364 0.695362 -0.206774 1.162431 -0.737948 1.479535 -1.494111 -0.193051 1.145688 -0.230003 0.496985 1.277701 -0.650372 1.531469 -0.452752 0.062488 -1.749866 0.470117 -0.854577 -0.031474 -0.253004 0.708513 1.199383 0.274992 -1.089682 1.337383 -0.827408 0.292287 0.777538 -0.462261 -0.486061 -1.032752 0.390597 0.225555 -1.579880 -0.927195 0.883703 -0.520017 1.257900 -0.800296 0.552573 -0.422650 0.041715 -0.677366 -1.299747 1.381765 2.229471 -2.082081 -0.950953 -0.302222 0.757472 -0.501262 -1.064557 0.791585 0.068205 1.641428 -1.092934 -0.326133 -0.050184 -1.584658 -0.218368 -0.379924 0.934445 0.204716 -0.643429 -0.819972 0.605623 -1.117619 1.848588 0.903835 1.255048 -0.123744 -0.455396 0.097789 0.284120 0.969593 2.130347 0.245989 -1.356081 0.295399 -0.328009 0.678884 1.120226 -0.237830 -1.133277 0.171305 -1.347888 0.053270 -0.942438 0.120938 2.991982 0.112261 -2.075521 0.037782 1.132674 -0.153297 1.417302 -0.815129 0.916073 -0.414356 -0.613024 -0.972661 0.207985 -0.940607 -2.441254 -0.143285 -0.353718 -0.631441 -0.448414 0.690968 -1.191243 -2.264173 -1.206765 -0.086317 -1.499586 -1.352100 -1.167223 -0.200487 0.495434 -1.159781 0.337361 0.250454 -2.307040 0.236483 -2.489408 -1.067399 0.391599 -0.931369 -0.008593 0.749806 -1.794219 -0.006545 0.915096 -1.020976 0.687371 -1.426962 1.486392 -0.205954 0.013078 1.003497 -2.578726 0.130360 0.852023 1.049525 -0.465161 0.486065 0.438277 -1.234113 0.309342 1.228047 -1.209530 -0.153744 2.272546 -0.348278 -0.214655 1.854866 0.603597 0.386991 1.307701 1.041541 2.159727 -1.913497 0.057039 -0.789182 0.204348 0.665914 1.034207 0.426248 -1.289695 -0.466183 -0.699991 -1.303309 0.603479 1.537829 1.314958 -1.720370 0.249436 -1.028371 0.413978 -0.607787 -1.377023 0.208559 0.475833 -0.730642 1.373966 0.225082 -0.352688 0.818862 -0.862112 -1.414094 0.453339 -0.875639 0.729656 0.163414 -1.403035 0.089944 -0.585543 0.609192 -1.426281 1.419467 -0.220422 -0.305879 -0.129613 0.995154 -1.075684 0.293894 0.995314 1.375589 0.623542 0.640135 0.634783 -1.846934 0.722350 -2.003454 2.560569 -0.621489 -0.529972 0.426215 0.527241 -0.335390 0.138049 0.166961 0.035264 0.493661 -1.304212 1.599846 1.681153 -0.490793 -1.667080 -1.492811 1.518048 -1.105346 0.682267 -0.647465 -1.462458 0.721387 -0.897284 2.065166 1.179973 0.738540 0.648888 -0.110892 -0.565340 -0.217088 1.385120 -1.043617 1.492088 -0.810884 -0.363985 0.721236 -0.907318 0.303591 1.740294 0.107037 1.702127 -1.320946 2.093472 0.571391 -1.023646 -0.476834 -1.166572 -0.255508 0.311041 -0.910761 0.165722 -0.852802 0.529868 -1.142274 -1.371607 -0.921841 -0.062733 0.333392 0.764669 -0.466161 -0.097948 1.026473 0.182970 -0.514309 1.376719 -0.150604 1.351014 1.610105 -1.246553 0.262944 -0.407982 -0.095448 -0.238258 1.286246 0.509220 -1.513393 0.109082 1.206374 -0.905952 0.369717 1.084376 0.519843 0.169322 0.368783 -1.174378 0.134766 0.086807 1.664123 -0.082195 -0.030321 0.932449 -0.852900 0.535380 -1.131168 -0.764024 0.868157 -0.595116 0.298218 -0.687893 0.530428 1.286123 -1.498411 -0.650201 -1.227900 -0.173699 -0.474389 -0.584771 1.049659 1.298104 0.136341 2.288024 0.239835 -0.233469 0.067789 0.968885 0.281513 -0.142005 0.639377 -1.242010 0.140415 -0.481492 1.459596 -0.915864 0.254069 0.927350 -0.228825 -0.922392 -0.308229 -1.041931 0.025460 0.570759 0.233695 -0.047106 -0.751022 0.640460 -0.267210 0.767514 2.105859 1.208603 -0.022820 2.007185 -0.035707 -1.334714 1.007456 -0.217108 0.277383 -0.159828 -0.102400 0.706133 -0.292855 -2.283611 0.454590 -0.735383 0.116101 -0.305200 0.532863 1.000632 -0.891414 0.730835 0.816934 0.559053 0.399580 1.113096 -0.169069 -1.747381 -0.954671 1.095415 -0.498288 -0.510178 -0.377370 -1.092514 0.097505 1.843981 0.386390 0.252635 0.316481 0.499905 -0.385872 -0.893394 -0.555330 -2.319990 -0.159559 2.036384 -0.717105 0.370595 -0.248896 0.290569 0.415936 -0.320871 -1.035617 -0.176660 -0.483422 -0.470099 0.351712 1.063483 0.695556 -0.128499 -0.470550 -0.854346 -1.394082 0.571891 -0.099822 1.127029 1.286556 -3.100131 0.232375 0.502012 -1.282735 -1.061028 -0.965164 0.533351 -0.218821 -0.103219 -0.581223 0.564007 0.526115 0.549184 0.370384 0.209933 0.000544 0.024091 0.890915 -1.083675 -1.507329 -0.954849 0.057128 -0.343714 -0.477388 1.193681 2.303920 -0.904785 0.043569 -1.142846 -0.576037 0.161207 0.579612 -0.181586 0.335330 0.227661 -1.100960 -1.141710 0.393872 1.677404 -0.212674 0.513189 0.320486 -0.515739 -0.881135 -1.014287 0.139723 0.465076 1.514371 -0.882308 -0.448957 -0.004491 -0.515295 -0.208109 0.667162 -1.557699 0.371907 0.849224 -0.240983 0.727402 -0.092024 0.194187 1.028239 1.562581 0.186466 0.110682 0.228230 0.305745 -0.608350 -0.260165 -0.268588 2.073928 -0.551921 0.657420 -1.874917 0.788141 1.306156 1.692409 -0.682005 2.203310 -0.229041 -2.203786 -0.252940 0.814191 0.768534 0.080455 0.048480 0.980164 -1.724674 0.314567 -0.344763 -1.183898 -1.104348 -1.806060 -0.679186 -0.811644 -0.697367 -0.437422 -0.288702 -0.071593 -0.756002 -0.395437 -1.099522 -0.874902 -0.785174 0.905860 1.101012 1.449562 1.123685 -0.430864 0.266459 -0.271942 -0.135627 1.243659 -0.529965 0.164174 0.004958 0.206559 0.373566 -1.167737 1.081709 -1.131851 -0.078330 -0.243932 0.501168 -1.534778 -0.052105 0.004479 0.020588 -2.607246 0.136050 1.413655 0.550058 0.221490 -0.373249 0.778798 -0.165973 -0.659861 -0.303019 0.303108 1.404685 0.671555 1.339777 -0.517397 -0.725789 -0.872861 1.247030 2.068088 0.859610 -1.277756 0.299898 -0.355184 0.934950 0.690445 -0.403337 -0.520078 0.376618 1.054038 -0.113530 -1.606215 0.021561 -0.054832 0.675718 -2.150969 -2.201599 -0.797984 0.835010 1.045639 -0.234989 0.755441 -0.110270 1.144442 -0.478948 -0.891935 -0.752224 0.814796 0.071906 1.509944 1.721498 -1.915026 0.139246 -1.834521 2.269206 -1.535326 0.346155 -1.051819 0.816599 -0.375173 1.032332 0.809021 -0.043360 -0.833199 0.562928 1.815861 0.117514 -0.005197 0.179654 0.226109 -0.552146 1.513251 2.554190 0.596945 -0.329837 0.278727 1.286073 0.063837 0.151831 0.080422 0.623273 1.032133 -0.030730 -0.601370 -1.822974 -0.217217 -0.256143 1.187770 -0.451981 -0.412823 0.629306 1.528915 1.261649 -1.286446 0.305819 -1.424305 -1.046281 -0.900855 -0.924720 -0.299994 1.152414 2.378770 0.175039 -0.136764 1.473510 0.468453 -1.240949 -0.786977 -1.666980 -1.650806 0.130085 1.504211 0.728459 -0.200250 -0.308133 0.423120 -1.093047 -0.584568 0.139256 0.306966 -0.312628 1.425615 -0.543783 -0.746171 -0.038572 -0.537791 0.318275 -1.777827 1.065615 2.746863 -0.886391 0.712137 -0.605483 -0.763151 -1.194562 0.028886 -1.292577 0.107391 -0.399168 0.604019 -0.390842 -0.586498 -0.026256 0.137432 -1.687558 1.251086 -0.472274 1.936325 -1.381386 0.383485 -1.175594 -0.476163 -0.363149 1.265023 0.249326 -0.021749 -0.841831 0.690027 1.398596 -0.544276 0.609011 0.377627 0.105887 -1.621597 1.581566 -1.607468 -1.130281 0.025364 0.826491 0.174348 0.150534 0.300548 -0.439475 -0.158169 -0.651119 -1.311592 0.532134 -0.031018 1.373356 -0.036033 -1.379072 -0.495278 -0.046883 -0.031431 -0.250061 1.152756 -0.388973 1.355665 0.326929 -0.145797 0.187033 -1.293570 -1.665431 -0.497657 0.822883 -0.008589 -0.273910 -0.778231 -0.146644 0.181144 1.197532 -0.108813 -1.039276 -0.785705 0.271770 0.018681 -0.044188 -0.878636 0.283562 -0.682491 0.514297 -2.148415 -2.188509 -0.811174 1.600224 0.488831 0.171632 -0.579951 0.850528 0.012486 -0.369497 -0.174911 0.412318 0.585561 -0.666565 2.083524 0.556612 0.575973 0.774713 0.093123 0.140074 -0.783654 2.669311 -0.310489 0.471257 -1.191248 -0.433393 -0.231104 -0.083643 -0.265312 1.199667 0.381051 0.341127 -0.382396 -0.621174 1.415055 0.030576 0.756463 0.318523 0.947779 -1.023244 1.295708 2.642421 0.085376 1.821091 1.497077 0.351260 -0.358927 0.122475 0.123298 0.567732 -0.698071 -1.286447 -0.128115 0.728990 -1.190299 -0.628076 1.299721 0.693298 0.382689 0.528666 1.420026 -0.675323 -0.128389 0.187510 0.856045 -0.583044 1.269507 2.406053 -0.053053 -0.470900 -0.480876 -0.852516 0.187844 -1.800845 -0.648297 -0.974853 0.743552 -0.395947 0.013054 0.311736 1.310464 -0.687390 -0.132277 -1.728279 -1.197205 -1.131885 2.306677 -0.650643 2.017673 -0.995992 0.882358 0.137810 -0.237137 -0.184454 -1.161371 -3.651529 -0.087368 1.039890 0.328148 0.053567 0.465584 -0.097776 0.365345 0.657851 -1.125791 -1.055054 1.476849 0.586468 0.203755 0.338244 0.611570 -0.986546 -1.066067 -0.488163 -0.661707 0.616118 0.003254 0.671492 -1.965448 1.673914 -0.282206 -1.574136 -0.161534 2.202442 -0.815487 0.209467 1.130514 0.139284 -1.469194 2.083704 -1.081342 -0.893398 0.044888 1.628698 0.614181 -1.179803 -0.311312 -0.762178 0.335941 1.072239 1.290927 0.546908 -0.431828 -0.697678 -0.833269 0.433195 0.940648 -1.416934 -0.290749 0.522044 1.965761 -1.942833 0.902123 -0.878807 -0.535061 0.343093 -1.451656 -0.449634 0.229307 1.662241 -0.524508 -0.900804 0.677589 -0.276017 1.458405 -0.718554 0.280610 -0.846947 0.323455 -1.362958 -1.583323 0.509685 0.895581 0.228269 0.224544 0.327367 0.458926 -0.277986 -0.640477 1.270561 -0.358962 -0.435199 -1.159770 -0.702064 -2.208917 0.215625 -1.717330 0.309372 -0.209685 -0.153986 -0.116370 -1.470920 -0.737897 1.212286 -0.328413 0.463925 0.112344 0.123190 1.797267 -1.089075 0.500813 -2.106332 0.291351 -2.606605 -1.107808 -1.217219 -0.385917 -1.526409 0.756502 -0.393863 -0.861233 1.213220 0.153794 0.006906 -2.479898 0.128040 0.595863 -0.829556 0.168756 0.902741 0.457144 0.480976 -0.946040 0.568811 -1.441634 -1.842300 -2.246765 1.396774 0.146024 -0.231517 -0.877674 0.689950 -1.034427 -1.101761 -0.617998 0.907157 -1.831439 0.232460 -0.018687 1.624144 0.210439 -0.184815 0.223636 0.271908 0.069771 -0.848847 -0.803809 -0.803475 0.001753 0.685608 0.381142 -0.542940 -0.141754 -0.723053 1.288139 -1.814116 -1.263127 1.351896 0.496787 -1.549624 0.876773 -0.131495 0.762457 -1.961243 1.564068 -0.996377 0.735618 0.309799 -0.540554 0.365454 -0.443149 2.266144 -0.202940 1.544400 1.081542 0.802092 2.336944 0.137593 -1.314554 1.841777 -0.624817 1.138736 -0.374351 0.619482 1.057816 -0.034317 -1.301248 0.276538 -0.772761 -1.440430 0.409611 -0.853149 0.726882 -0.523457 -0.886704 0.469243 0.398732 0.305437 -0.650608 0.357209 0.118549 -0.062794 0.858706 0.604538 -0.443647 -0.114229 0.915032 -1.071014 -0.739499 -1.357406 -1.060172 1.405831 1.428742 -0.017338 1.011153 1.062056 0.336224 0.585946 0.645790 -0.559515 -3.147075 -0.464720 -0.669571 0.690600 -0.747821 0.431885 0.337504 -0.298740 1.040857 0.117599 -0.015247 -0.131883 1.422441 -0.074002 -0.882625 0.436356 0.386012 1.006522 -0.118753 0.034610 1.644135 -0.661432 -0.209786 0.836902 -0.349164 -1.163420 0.085387 -0.842466 -1.618980 -0.391010 0.493508 -0.829826 -1.447460 0.877227 -1.985056 0.340719 1.001081 0.524934 0.922675 -1.727270 0.896466 0.621427 1.211208 -0.887867 -0.580341 -0.469883 -0.400192 0.420535 1.042761 -0.422887 1.410416 -0.603173 -0.009201 0.129754 0.146485 1.522784 -0.916972 -0.604930 -1.182310 0.883701 -0.361947 -1.942459 -1.300351 -1.022283 1.426500 0.646394 -0.480398 -1.001564 0.402214 0.459986 1.242280 -1.748329 -1.163557 1.437320 -0.128099 0.645849 1.301492 0.086597 0.223326 -0.299064 -0.639988 -0.547771 0.138926 -0.241239 1.129701 -1.089305 -0.477109 0.731765 -1.778876 0.601420 1.051167 -2.910809 -0.375322 0.452790 0.147305 -0.141119 1.736924 -2.044480 -0.363692 0.797812 -1.048200 -1.058104 0.804118 0.206001 0.685653 0.535293 0.781093 1.462441 0.395373 -0.199461 -1.664911 -0.316466 -1.365315 1.991868 0.776890 -0.467635 0.702631 0.987782 0.222634 0.517962 0.450513 0.947380 1.030013 -1.005247 1.159433 -0.055117 0.132335 -0.615598 1.380917 2.320887 -0.331479 -0.005985 -0.448290 0.657841 -0.387347 -0.224088 -1.142605 -0.226247 2.030113 -1.239246 0.184171 -0.479049 -0.144735 -1.728677 -0.199448 0.405334 2.214195 -0.605340 0.808116 -0.839861 -0.043395 0.170392 1.038453 0.289659 -0.120522 -0.224628 0.858870 0.637922 -1.785317 -0.905431 0.230485 1.463058 1.390069 0.007724 0.204247 0.453693 -0.090318 0.344868 -0.586167 -2.260840 -1.789034 0.982457 0.167205 0.641122 -0.322959 0.209011 1.308258 -0.388526 0.067372 -0.840138 0.831664 -1.467198 -0.226859 0.592619 1.117927 -0.136384 1.159340 -0.626447 -0.128024 -1.682048 1.500135 0.473790 -0.019772 -0.938423 -0.337993 1.538949 0.327636 0.378446 -1.256655 -0.824617 1.043875 -1.145807 -0.008178 -0.181937 -1.077870 0.154049 -2.259950 -0.487228 1.067867 1.170001 1.405895 0.165229 -1.126895 0.575239 1.446363 0.993972 0.393506 0.940589 0.541023 0.478773 0.688896 -0.888327 1.975294 0.316519 1.846768 -0.515498 -0.075656 0.930772 0.761287 2.213431 -0.141754 0.003248 1.043444 -1.679507 -1.669515 -0.263677 -1.370304 -1.388911 1.237931 0.618895 1.127042 0.239816 0.925639 -1.449739 0.269932 0.183768 -0.241993 -0.700342 -0.626531 1.109348 -1.729087 0.057353 0.317343 -0.629718 -1.313799 0.012156 -1.039363 1.545515 -0.886194 0.502104 0.350903 -1.961698 0.655742 0.463410 -0.734322 -1.498355 -0.228890 -0.262197 1.264480 0.812561 -0.897811 0.404364 -0.279321 -0.806219 -1.338775 -0.197565 -1.415629 0.313224 -0.020911 0.824862 1.356437 -1.227033 0.531896 0.615237 -0.431670 -2.067078 -0.667998 -0.820422 0.634483 0.109110 0.186044 -1.479759 -1.403364 -1.453307 1.526009 -0.408230 0.160267 -0.204636 1.622618 -0.473367 0.246563 0.513475 -1.240438 -0.181761 -0.260486 -0.528360 0.130166 -0.906230 0.359349 0.266376 -0.486093 0.686407 -0.396926 -0.259069 -0.252926 -0.235884 0.557828 0.200770 -0.672476 1.346991 0.886530 -0.110593 0.116769 0.279877 -2.317616 -0.688729 0.218132 1.383585 -1.284902 0.960019 -0.041008 1.892933 -0.183147 -0.423974 -2.709546 0.694907 -0.896081 0.726539 0.788243 0.466060 -0.449812 -1.291876 1.377459 -0.682147 -0.688207 -0.680096 0.013130 -0.403865 2.169953 0.651141 -0.087334 1.128585 -1.253940 -0.609707 -0.460514 0.193921 0.337474 0.625138 0.416666 0.503318 -0.107547 0.488435 0.489006 -0.542947 -0.548522 1.037438 0.340405 -0.718272 -1.114527 -0.461834 -0.314872 0.522969 0.999797 0.399083 0.142627 -0.493778 0.865197 -0.106953 0.813898 -0.423466 1.269019 2.265135 2.297777 0.061620 -0.165010 2.855112 0.366488 0.321970 0.283855 0.013100 -1.958035 -0.375392 0.589565 0.081349 -0.222943 -1.585891 1.605476 0.983628 1.561678 -1.297423 0.297565 1.882639 -0.439916 1.462220 -0.613844 -0.451423 1.351187 0.959232 -0.932640 -0.520744 -1.897270 -0.355420 0.291283 0.831447 0.165615 -0.786501 -1.839429 0.890069 0.626664 -2.119516 -3.159024 1.939175 0.624741 -0.758109 1.370648 -1.273626 -0.660183 -0.049131 0.296930 -0.985105 -2.761199 0.551236 -0.038879 1.337677 0.119833 0.385293 0.538393 -0.072382 -0.548160 -1.085421 -0.210856 -1.408826 -2.140621 -0.747322 0.077646 0.620501 -2.069603 0.642465 -1.156394 0.119253 0.017526 -0.856558 0.796044 1.121187 0.688432 1.516961 -0.414588 0.190729 -1.351539 -0.724009 0.907040 -1.647782 1.024455 -0.434570 -0.228665 0.077342 1.232887 -0.707029 -1.194015 -0.787133 0.166831 -0.438435 -1.306286 -0.138168 0.592394 1.960019 -0.214062 0.255084 1.245075 0.912636 -1.819315 -0.142390 -0.310621 1.845159 -0.900897 0.432924 0.312070 -1.287666 -0.563000 1.543584 1.507132 -0.202821 1.505316 -0.430837 2.437809 0.978524 -0.580200 0.593781 -0.444759 -1.248018 -0.944912 -0.858067 1.580647 -0.301816 -0.055711 -0.582187 0.750698 -0.172914 0.058551 -0.018626 1.442886 0.572189 -0.356218 0.844751 1.612475 -0.528237 0.785173 0.648764 1.185852 -1.077883 0.348059 1.073876 -0.257663 -0.962045 -0.371086 0.504950 -0.706521 0.315921 -1.436590 -0.170922 -0.235894 -0.097864 0.696582 -0.429489 -1.090746 0.258716 0.996366 -1.884073 0.436419 0.210218 1.633907 0.878181 -1.591008 -0.689642 -0.319581 -0.255592 0.491478 -0.897480 0.822596 -2.188369 -0.297005 1.660708 1.004651 -1.117275 -1.325635 -0.732913 -0.595473 0.988459 0.452363 -0.025142 -0.096440 -0.572477 0.834252 0.687422 1.265474 -0.974803 -1.446541 -0.054353 1.502762 -0.130877 -0.098095 -0.023949 0.907521 -0.187368 -0.613015 -1.100638 0.788826 0.126783 -0.058920 -0.112130 -0.020189 0.852651 1.573046 -1.269774 0.254246 -0.687858 0.359607 0.819496 0.409861 0.132941 -0.694054 0.647335 -0.162179 -1.707453 -1.889222 0.208088 0.417456 -0.155771 0.628408 -0.293656 -0.785477 0.767856 1.611670 0.104992 2.402161 5.627310 3.650249 2.102879 2.602997 -0.536771 1.982469 1.455244 2.361313 0.729597 1.843197 0.535830 0.135566 -0.845075 -1.523767 -1.049630 -0.238421 -0.050810 -2.281330 -0.032827 -2.445974 -2.915754 -0.781085 -0.552153 -1.751335 -1.572218 0.399401 -1.646058 -1.080125 -0.338525 -1.754341 0.371479 -1.554353 -0.284131 1.139706 2.195497 3.092356 -0.970915 1.036192 0.485557 1.428083 -1.558793 -0.267003 0.955249 -1.565894 0.513304 -0.235857 -0.063876 0.073342 -0.517479 0.674168 0.263736 -1.601320 1.526658 0.807303 -1.109819 -0.541703 -0.067387 -0.899198 0.932861 -1.969325 -0.487485 0.180734 2.570234 -1.750987 0.074927 0.332797 -0.456822 0.468076 -1.180073 -0.966163 -0.956058 0.847707 0.461015 1.027307 -0.026997 -0.468506 -1.631621 0.977767 0.423457 -3.383761 0.893280 0.269353 -0.952875 1.118872 1.904737 1.348967 -0.578085 0.316029 0.568483 1.793571 -2.286915 0.258839 -0.127442 -1.075394 0.069956 -1.433086 -0.965933 -0.773252 -2.240857 -1.464549 -0.482799 0.166552 -3.529771 -0.562418 -0.364395 -0.434654 2.048630 0.576436 0.406992 0.481370 1.627142 1.386615 1.802930 2.133213 1.452234 0.240036 0.647049 0.716453 0.552078 -2.175276 -1.367359 -0.325971 -0.645452 -0.763670 -0.569012 -0.422183 1.409624 -1.410849 -0.458676 1.466540 0.829937 0.405640 -0.418803 1.601344 -1.471524 0.114276 1.150053 2.282072 0.333986 2.161670 0.894694 -0.605044 0.064496 1.340650 1.471526 -0.174821 -0.135386 -0.787107 -1.245973 1.092232 0.750651 -2.153170 0.286357 -2.300875 0.235317 -0.846125 0.326778 -0.876825 -1.423058 0.054559 -0.648178 -0.483152 0.596216 0.233946 -0.683998 0.536544 -0.237288 -0.806734 0.423585 0.384035 0.159572 0.103554 -0.548130 -0.130595 0.895631 -0.889988 -0.395409 -0.197266 -1.743895 -1.122692 0.120772 0.778477 0.296888 0.338785 0.647328 -0.039620 -2.055392 1.619200 0.886968 -0.563880 -0.477602 -0.962887 0.251962 -0.615739 1.482620 -0.730011 0.267734 -1.432811 0.124175 -0.034200 -0.094723 -0.307838 0.554210 -1.484636 0.001226 -0.059037 -0.903737 -0.013965 -0.182634 0.460394 0.048078 -0.004499 0.886267 -0.326913 -0.158365 0.725932 0.258954 0.757461 0.299224 0.154069 -0.774191 0.365673 0.178642 -0.917814 0.007359 0.603330 -0.764127 -1.418901 0.793675 -0.487310 0.277682 0.078775 -0.794743 0.139121 0.854874 0.514605 0.268267 0.165250 -0.621322 1.263121 -0.052125 -0.040465 -0.169941 -0.982464 0.944190 -1.177763 0.894716 1.259120 -1.774506 0.704844 0.592765 -0.432172 0.519085 -1.314594 -0.820369 0.045277 -0.086359 -0.172085 -0.287629 -0.133266 0.805356 0.575763 -1.062100 0.293681 0.999297 -1.116737 0.937963 0.585803 -1.347147 -0.011136 1.843836 -2.175123 -1.395457 0.841578 -0.479621 -0.739469 -0.427547 -0.235645 -1.223964 -0.724117 -1.097919 1.571009 -0.228713 0.665924 0.440027 -0.316521 0.829340 -0.895964 -2.133422 1.835326 0.623391 -1.625839 -0.297960 1.608534 0.924917 -1.818077 0.195301 0.968332 -0.688125 0.269804 -0.677742 -0.713464 -0.735139 -0.452498 -0.356511 1.133047 1.276690 -2.583373 0.184198 0.219589 -0.863460 1.671050 -0.794060 0.910653 -1.331784 0.233124 0.232687 -0.820566 0.165440 0.741013 0.114867 0.851902 1.365595 -1.435848 -0.725801 -0.303172 0.497315 1.453601 -0.262925 -0.287894 -0.994986 0.430388 1.262837 -0.104505 0.660705 -1.398810 0.715358 1.228343 -0.080919 -0.881289 1.165419 3.143334 0.264640 0.430292 1.549114 -0.587441 1.409582 1.060506 0.616736 0.078010 0.067424 -0.610571 0.493828 1.951461 1.186204 0.666774 -0.126245 -0.563823 -0.145543 -0.029421 1.475090 1.338535 -0.223792 -0.790362 -0.102187 1.066149 -0.929267 1.071676 -0.365341 2.020445 -0.523842 0.048539 0.299533 -0.418419 0.589020 -2.077938 1.030378 -1.335447 0.576656 -1.380315 0.088145 -0.827864 -0.391459 -1.130264 -0.647608 0.928122 0.422982 -0.721119 -0.222035 -1.634727 -1.702518 -0.278462 -1.262782 -0.481331 0.033901 1.508102 0.113102 -0.347854 0.383001 -0.231535 -0.093897 -0.938981 -0.888765 0.642816 0.011363 0.799835 -0.992310 -0.263400 0.933984 -0.113634 -0.050706 -0.954751 0.033834 -0.200692 -0.208107 -0.899713 0.279345 0.102101 0.120171 0.121991 -0.644869 -0.425947 0.565905 0.304129 0.966364 -1.101249 -0.525930 -0.238630 -0.936811 -0.678056 1.034022 -0.525140 1.177680 -0.868330 0.670309 -0.266515 0.083351 0.079135 -1.701011 0.365825 0.830878 0.251220 0.191995 -0.508753 0.790901 -2.690501 -0.653076 0.264603 -0.395268 0.043109 -0.098047 1.627875 -0.487153 0.158377 -0.214397 1.614481 -1.699257 -1.119666 0.709881 0.117779 -0.270188 -0.824940 -1.172368 0.133026 -1.657178 -0.157038 -0.440566 -0.659389 0.990133 1.427386 -0.618820 0.794870 0.019964 -0.525039 -2.023785 -0.484491 0.854396 -0.121331 1.312778 -0.702708 -0.134762 1.191924 0.332263 0.363234 0.982681 -2.063021 0.268516 0.850656 -0.309804 0.515644 1.284253 -1.528675 0.905766 -0.056064 -0.724604 2.609626 1.536632 0.961993 -0.838137 0.099210 1.270006 -0.032514 -1.632543 0.519591 0.665158 1.827670 -1.311047 -0.305895 0.902977 -0.112863 -0.766514 -0.374686 -1.377202 0.414520 1.648937 0.248466 0.248847 -0.304060 1.118198 0.103035 -0.592356 -0.401558 1.100751 1.163155 0.709776 1.503966 -1.158989 1.375054 -0.438104 -0.056390 1.423157 0.601908 0.131288 1.847711 -1.058685 0.635519 0.626267 1.503709 -0.049365 0.807475 -0.291127 -0.119751 1.650908 0.423533 1.949928 0.530050 -0.195410 -1.474445 1.009458 -0.280874 2.071016 0.147352 1.032473 -1.751414 0.334309 0.508268 2.100487 -1.452584 -1.662991 0.500555 0.250578 0.833678 1.527548 0.220594 -0.488797 0.102348 0.547885 -1.318645 0.673240 1.017300 -0.492337 -0.324195 -0.685211 -1.866412 -0.259705 -0.215649 -1.229258 -0.376833 -0.428925 0.502206 1.186262 -0.599763 -0.823961 1.379717 -2.397971 0.159176 -1.826009 0.260745 0.444852 -0.643614 -0.270554 -0.767052 -1.123729 -0.474746 -0.450103 -1.351470 -0.455273 -1.410861 0.668637 -1.372698 2.642200 0.013521 -1.387536 -0.584100 -1.777169 -1.366918 -0.407556 0.844189 -0.864583 0.008265 -1.336995 -0.426202 -0.081089 0.081399 -0.227328 0.365748 -0.893280 1.088613 -0.984953 0.485778 0.343171 -1.373701 0.760328 1.199000 1.384034 -0.853510 -0.280138 -0.719826 -0.416282 0.502412 1.819025 1.531245 -1.629465 0.198445 -1.087558 2.016946 -1.363917 -0.924605 0.717177 0.951726 0.401718 -0.254435 -0.676240 -0.172185 -0.949799 1.166584 2.046843 0.060521 0.051106 1.277277 -1.272049 0.399438 -0.430561 0.449457 -1.092947 -0.907443 -0.704868 1.939392 -0.557538 -0.874195 2.167752 -0.980585 0.273852 -0.494868 -1.933696 -0.702619 0.911873 0.328395 -0.040311 0.021368 0.405099 0.451959 -0.194104 -0.737865 0.220867 1.495152 0.693571 0.415040 -0.340943 -0.717511 0.647965 -0.286781 -0.260675 -0.476164 0.251229 0.797221 0.518095 -1.109369 0.453804 0.403623 -0.508767 -1.209811 0.830187 -0.685029 0.167191 -0.728136 -1.123495 0.053938 -1.624759 0.621114 0.149140 0.676527 1.163762 0.047162 -1.287718 1.240786 0.863953 -0.327639 -0.382032 -1.936409 0.245039 0.737007 0.406015 1.053645 -0.122397 -1.454228 0.284475 -0.502606 0.404894 0.647291 1.835493 -0.658399 0.713899 -0.731914 -0.023020 -1.668208 -0.216565 -0.650432 0.742136 0.035344 0.107323 -1.422126 0.439512 1.320897 -0.747990 -1.393933 -0.949412 -0.933744 0.744820 1.093211 0.652605 1.292529 0.375954 -0.811503 0.795634 0.616169 -1.526759 -0.464282 0.270519 0.671889 0.242380 0.461655 -1.041058 -0.402218 -0.890082 0.288878 -1.091004 2.295858 -1.451339 0.028219 0.252673 1.408672 -1.583529 -0.709509 0.321855 -0.948064 -0.223591 -0.164440 0.525266 -0.625279 1.493622 0.391953 -1.257274 0.194910 -1.470335 1.332857 0.463226 0.926787 1.327754 0.199125 -1.063734 -0.136827 -0.781968 -1.505042 0.994002 -0.751464 -0.093904 -0.181898 0.200159 -0.455078 0.007158 -0.677838 -0.542405 -0.724681 0.981897 1.074711 -0.250583 0.903296 -0.726457 -0.958152 -0.414518 0.474841 1.484160 -0.396793 -0.314197 -0.839697 0.556998 -1.114121 0.251620 -0.058451 0.472435 0.807557 1.428610 0.217427 1.365262 1.219814 -0.507463 -0.151082 -0.876631 -1.654080 1.892053 -0.086822 -1.086332 0.190646 -0.391803 -0.867879 0.450515 1.166591 -2.088970 1.793607 1.982664 2.113636 -0.159667 -0.987466 0.695941 0.501874 -1.470132 -1.073804 0.435595 0.601594 -1.516497 1.088352 0.115880 1.038611 -0.804133 -0.941881 0.998763 0.309366 1.645703 1.031318 -0.064055 0.334965 -0.188985 -0.567588 2.183067 0.204268 -0.087522 0.697108 -0.170307 0.102537 0.327426 -0.410749 -1.154526 -0.917130 0.976823 0.268743 0.845390 -0.163346 0.203716 -1.238671 1.277086 0.805957 0.335833 -0.846867 1.238971 -0.938013 -0.380533 -0.920932 -0.482450 1.859620 -0.720056 1.221666 0.860649 -0.068532 0.342341 -0.223062 -1.656647 -0.350108 -1.438755 -1.240307 2.062383 -0.647944 0.490035 -0.204096 -1.228572 1.193262 -0.051994 -0.971853 -0.928325 0.791718 0.297980 0.103204 -0.493868 0.837997 -0.286134 -0.783049 -0.399340 0.429371 -0.127710 -0.236280 -0.132525 -0.835735 1.209585 -1.637860 -0.883347 0.186633 -1.786316 -1.409739 0.615164 0.959902 0.360629 -0.483559 0.223095 -0.481336 0.701190 -0.319826 -1.215913 0.576416 0.098836 -0.072837 0.881455 -0.933033 0.453936 -0.453295 -0.123917 -1.059078 0.799535 0.223321 -0.012191 0.856321 -0.033669 -0.702803 -1.001457 -0.522208 0.276762 1.391171 -0.263454 0.644748 -1.943800 0.064250 -0.623346 -1.204190 -0.269982 2.740056 -0.477175 1.457818 -0.377788 1.286793 -0.629202 0.039724 -0.883011 -0.935897 0.499136 0.013279 0.573676 0.497728 0.596011 -0.036825 -0.476310 0.757371 -0.521265 0.197570 0.715771 1.110203 -0.159750 -1.450225 0.347355 1.175654 -1.940856 1.248639 -0.319251 1.240151 0.659125 -0.003090 0.312271 -0.415593 -0.086366 -0.852887 -0.827616 0.020053 -0.401895 0.416726 0.294335 1.191245 -1.517874 1.107240 0.018549 0.836958 1.148779 -0.117987 -0.107361 0.934829 -0.919177 -1.190167 -0.784105 1.885609 0.680295 -1.402741 0.189652 0.303336 -1.398049 -0.622513 -0.346584 1.062367 0.122439 0.073194 0.228994 0.332959 -0.349103 0.114510 -1.565019 0.543286 1.595303 -0.943727 -0.622847 -0.175675 0.041586 -0.765203 -0.358419 2.225897 0.971582 -1.139880 0.554464 -1.034226 0.311511 0.175951 -1.610651 -0.502239 1.000565 -0.399688 0.621555 -1.115259 0.464809 1.135731 -0.826557 -0.423906 0.475525 0.081944 -0.061876 0.851913 0.675504 -0.407886 -0.857211 0.623007 1.149695 1.370249 -0.849522 1.326279 -1.584600 -0.714591 0.516055 0.258923 -2.781306 -0.209182 -0.328171 1.284427 0.602657 0.756710 -0.170143 0.240859 0.504745 -1.986626 0.273235 -0.178041 -0.593384 1.015763 0.648748 -1.992362 1.596123 -1.228327 -0.603715 1.040355 1.324001 -0.436915 0.533030 -0.210746 0.976136 -1.881844 -1.683354 0.370625 1.328666 0.243741 -0.818162 -0.385388 -0.034619 0.961237 -0.033700 -1.765570 0.252375 -0.259190 -1.327610 -0.179807 -0.288366 -0.474372 -0.482795 -1.089353 -0.801623 -0.039691 0.498628 -0.029815 2.243097 0.457751 1.257797 -0.644975 0.790203 -0.474192 