-0.00000000000000011224 0.00000000000000005442 -0.00000000000000004762 
-0.00000000000000007355 0.00000000000000010884 0.00000000000000001991 
-0.00000000000000013632 0.00000000000000010884 -0.00000000000000003129 
0.00000000000000003890 0.00000000000000000000 0.00000000000000004606 
-0.00000000000000017740 0.00000000000000016326 0.00000000000000001544 
0.00000000000000000723 0.00000000000000010884 0.00000000000000007539 
-0.00000000000000011479 0.00000000000000027210 0.00000000000000004733 
0.00000000000000000808 0.00000000000000010884 0.00000000000000004536 
0.00000000000000002742 0.00000000000000000000 -0.00000000000000004153 
-0.00000000000000001913 0.00000000000000021768 -0.00000000000000000632 
-0.00000000000000001446 0.00000000000000032652 0.00000000000000004767 
-0.00000000000000002381 0.00000000000000010884 -0.00000000000000006611 
-0.00000000000000011989 0.00000000000000010884 0.00000000000000000888 
-0.00000000000000002296 0.00000000000000016326 0.00000000000000009359 
-0.00000000000000000043 0.00000000000000010884 -0.00000000000000004632 
-0.00000000000000006080 0.00000000000000010884 0.00000000000000001249 
0.00000000000000004804 0.00000000000000000000 -0.00000000000000000276 
-0.00000000000000005527 0.00000000000000010884 0.00000000000000009736 
-0.00000000000000000170 0.00000000000000010884 0.00000000000000003773 
-0.00000000000000001361 0.00000000000000021768 -0.00000000000000001977 
-0.00000000000000012500 0.00000000000000010884 -0.00000000000000001281 
0.00000000000000002381 0.00000000000000010884 0.00000000000000002083 
-0.00000000000000001020 0.00000000000000010884 -0.00000000000000003715 
0.00000000000000012074 0.00000000000000005442 0.00000000000000009975 
-0.00000000000000008333 0.00000000000000010884 -0.00000000000000008652 
-0.00000000000000002551 0.00000000000000016326 0.00000000000000001520 
-0.00000000000000005357 0.00000000000000010884 0.00000000000000005585 
0.00000000000000003231 0.00000000000000010884 -0.00000000000000005352 
-0.00000000000000003316 0.00000000000000000000 -0.00000000000000007536 
0.00000000000000004337 0.00000000000000005442 -0.00000000000000009072 
-0.00000000000000007908 0.00000000000000010884 -0.00000000000000012797 
-0.00000000000000014966 0.00000000000000010884 0.00000000000000004921 
-0.00000000000000008843 0.00000000000000005442 0.00000000000000002519 
0.00000000000000002891 0.00000000000000000000 0.00000000000000004756 
-0.00000000000000012500 0.00000000000000016326 0.00000000000000000632 
0.00000000000000008248 0.00000000000000010884 -0.00000000000000000893 
0.00000000000000005357 0.00000000000000005442 -0.00000000000000004299 
0.00000000000000006207 0.00000000000000010884 0.00000000000000000590 
-0.00000000000000001361 0.00000000000000016326 0.00000000000000009146 
-0.00000000000000006292 -0.00000000000000005442 0.00000000000000000271 
0.00000000000000013435 0.00000000000000000000 -0.00000000000000009922 
0.00000000000000003911 0.00000000000000005442 0.00000000000000001642 
0.00000000000000004252 0.00000000000000010884 -0.00000000000000003816 
0.00000000000000002211 0.00000000000000010884 -0.00000000000000003593 
-0.00000000000000004762 0.00000000000000005442 -0.00000000000000009136 
0.00000000000000009353 0.00000000000000005442 0.00000000000000001010 
-0.00000000000000004252 0.00000000000000016326 -0.00000000000000007934 
-0.00000000000000009183 0.00000000000000016326 0.00000000000000006149 
0.00000000000000001361 0.00000000000000010884 -0.00000000000000000329 
0.00000000000000008333 0.00000000000000027210 0.00000000000000002997 
-0.00000000000000000680 0.00000000000000010884 -0.00000000000000003120 
0.00000000000000000680 0.00000000000000000000 0.00000000000000000101 
0.00000000000000005952 0.00000000000000010884 -0.00000000000000002567 
0.00000000000000000680 0.00000000000000005442 -0.00000000000000003252 
0.00000000000000001701 0.00000000000000005442 -0.00000000000000004517 
0.00000000000000001190 0.00000000000000005442 -0.00000000000000002221 
-0.00000000000000000340 0.00000000000000010884 -0.00000000000000009311 
0.00000000000000001020 0.00000000000000000000 -0.00000000000000004384 
-0.00000000000000001020 -0.00000000000000005442 0.00000000000000002163 
-0.00000000000000001020 0.00000000000000005442 -0.00000000000000005001 
-0.00000000000000005952 -0.00000000000000005442 -0.00000000000000007345 
0.00000000000000009013 0.00000000000000016326 -0.00000000000000006686 
-0.00000000000000000170 0.00000000000000010884 -0.00000000000000003996 
-0.00000000000000006973 0.00000000000000000000 0.00000000000000006144 
0.00000000000000000170 -0.00000000000000010884 -0.00000000000000007196 
-0.00000000000000000680 0.00000000000000005442 -0.00000000000000005705 
-0.00000000000000003401 0.00000000000000021768 0.00000000000000001929 
0.00000000000000007313 0.00000000000000016326 -0.00000000000000000399 
0.00000000000000017346 0.00000000000000000000 -0.00000000000000001847 
0.00000000000000003741 0.00000000000000000000 -0.00000000000000008822 
-0.00000000000000002041 0.00000000000000021768 -0.00000000000000006412 
0.00000000000000002041 0.00000000000000005442 0.00000000000000002745 
0.00000000000000004762 0.00000000000000010884 -0.00000000000000013589 
-0.00000000000000000680 0.00000000000000010884 0.00000000000000003181 
-0.00000000000000006122 0.00000000000000010884 -0.00000000000000005304 
-0.00000000000000001701 0.00000000000000000000 -0.00000000000000000704 
-0.00000000000000006803 -0.00000000000000010884 -0.00000000000000009074 
0.00000000000000004422 0.00000000000000005442 -0.00000000000000005633 
-0.00000000000000006462 0.00000000000000016326 -0.00000000000000005811 
-0.00000000000000010884 0.00000000000000010884 0.00000000000000005817 
-0.00000000000000004082 0.00000000000000005442 -0.00000000000000011312 
-0.00000000000000007143 0.00000000000000027210 0.00000000000000002764 
-0.00000000000000003061 0.00000000000000005442 -0.00000000000000000526 
-0.00000000000000004082 0.00000000000000000000 -0.00000000000000000146 
0.00000000000000000000 0.00000000000000000000 -0.00000000000000017750 
-0.00000000000000006122 0.00000000000000000000 0.00000000000000002112 
0.00000000000000002041 0.00000000000000010884 -0.00000000000000003167 
0.00000000000000003061 -0.00000000000000016326 -0.00000000000000010693 
-0.00000000000000005782 -0.00000000000000005442 -0.00000000000000019276 
-0.00000000000000008843 0.00000000000000000000 -0.00000000000000003690 
-0.00000000000000006122 -0.00000000000000010884 -0.00000000000000012056 
0.00000000079580845024 0.00000000000000005442 -0.00000000000000014661 
0.00000006783478688081 0.00000000000000010884 -0.00000000000000010093 
0.00000079354040100525 0.00000000000000000000 -0.00000000000000004856 
0.00000432181856604307 0.00000000000000000000 -0.00000000000000007422 
0.00001563212455904881 0.00000000000000010884 -0.00000000000000003613 
0.00004378831532305693 -0.00000000000000002721 -0.00000000000000019799 
0.00010297049505119084 0.00000000000000005442 -0.00000000000000011110 
0.00021319257617539154 0.00000000000000000000 -0.00000000000000006434 
0.00040066818524468300 0.00000000000000010884 -0.00000000000000007273 
0.00069782852863097358 0.00000000000000002721 -0.00000000000000003688 
0.00114302244577780686 0.00000000000000005442 -0.00000000000000014698 
0.00177994473618374406 -0.00000000000000005442 -0.00000000000000005607 
0.00265684680880355585 0.00000000000000005442 -0.00000000000000004683 
0.00382558600890949138 0.00000000000000002721 -0.00000000000000013900 
0.00534056836678821565 0.00000000000000005442 -0.00000000000000004100 
0.00725763532029790725 0.00000000000000010884 -0.00000000000000006838 
0.00963293920095541038 0.00000000000000008163 -0.00000000000000019323 
0.01252184569466845664 -0.00000000000000005442 -0.00000000000000013153 
0.01597789464316117305 0.00000000000000002721 -0.00000000000000007883 
0.02005184383009808724 0.00000000000000013605 -0.00000000000000014993 
0.02479081406192394990 0.00000000000000002721 -0.00000000000000001558 
0.03023754807677337883 0.00000000000000005442 -0.00000000000000012697 
0.03642979069226705280 0.00000000000000014966 -0.00000000000000006739 
0.04339979317731014474 0.00000000000000002721 -0.00000000000000008204 
0.05117394110754468206 0.00000000000000004082 -0.00000000000000009539 
0.05977250191453822165 0.00000000000000004082 -0.00000000000000021015 
0.06920948592195828863 -0.00000000000000002721 -0.00000000000000008988 
0.07949261282303123066 -0.00000000000000002041 -0.00000000000000001882 
0.09062337423107849621 0.00000000000000006803 -0.00000000000000002736 
0.10259718206494132520 -0.00000000000000004762 -0.00000000000000018892 
0.11540359205006107957 0.00000000000000007483 -0.00000000000000016102 
0.12902659146267098089 0.00000000000000008163 -0.00000000000000011724 
0.14344494036158678130 0.00000000000000001361 -0.00000000000000007331 
0.15863255588672472984 -0.00000000000000003401 -0.00000000000000009117 
0.17455892970812830756 0.00000000000000001531 -0.00000000000000015017 
0.19118956934172154360 0.00000000000000005952 -0.00000000000000017220 
0.20848645477129956749 -0.00000000000000005612 -0.00000000000000009625 
0.22640850259860983984 0.00000000000000002439 -0.00000000000000006582 
0.24491203075785095145 0.00000000000000010246 -0.00000000000000009319 
0.26395121765503609668 0.00000000000000002126 -0.00000000000000007224 
0.28347855040808062066 -0.00000000000000012925 -0.00000000000000005758 
0.30344525765547131213 0.00000000000000001361 -0.00000000000000009452 
0.32380172315852834286 -0.00000000000000004422 -0.00000000000000011155 
0.34449787713599339112 0.00000000000000010204 -0.00000000000000015314 
0.36548356293382361359 0.00000000000000003741 -0.00000000000000008438 
0.38670887724365771154 -0.00000000000000003401 -0.00000000000000009566 
0.40812448263818174032 -0.00000000000000005442 -0.00000000000000009194 
0.42968189168977655168 0.00000000000000001361 -0.00000000000000005443 
0.45133372238083152572 0.00000000000000005442 -0.00000000000000020256 
0.47303392490130835579 -0.00000000000000008163 -0.00000000000000013272 
0.49473798026371029746 0.00000000000000000000 -0.00000000000000001666 
0.51640307145020880597 0.00000000000000010884 -0.00000000000000010999 
0.53798822804446111423 0.00000000000000012245 -0.00000000000000010833 
0.55945444549494594000 -0.00000000000000002721 -0.00000000000000003092 
0.58076478031103395683 -0.00000000000000000680 -0.00000000000000007835 
0.60188442261108077158 0.00000000000000002721 -0.00000000000000006321 
0.62278074752718037832 0.00000000000000002721 -0.00000000000000008323 
0.64342334702739756302 0.00000000000000003401 -0.00000000000000011853 
0.66378404374667809851 0.00000000000000006122 -0.00000000000000012520 
0.68383688842552703413 -0.00000000000000003401 -0.00000000000000007353 
0.70355814237199487682 0.00000000000000002041 -0.00000000000000011273 
0.72292621242574772733 0.00000000000000002721 -0.00000000000000003646 
0.74192125803966191278 0.00000000000000007483 -0.00000000000000006846 
0.76052420965362266259 0.00000000000000005442 -0.00000000000000012853 
0.77871544750723831196 -0.00000000000000001361 -0.00000000000000015054 
0.79647345899060340013 0.00000000000000002721 -0.00000000000000007200 
0.81377367803036726457 0.00000000000000011564 -0.00000000000000000444 
0.83058761969533956293 0.00000000000000004762 -0.00000000000000006056 
0.84688235879073636703 0.00000000000000000000 -0.00000000000000004435 
0.86262035675470238871 0.00000000000000001361 -0.00000000000000007889 
0.87775961191722395860 0.00000000000000010884 -0.00000000000000004678 
0.89225409034097125094 -0.00000000000000001361 -0.00000000000000006445 
0.90605438503868573896 -0.00000000000000005442 0.00000000000000001929 
0.91910854799958285888 0.00000000000000000000 -0.00000000000000011735 
0.93136304032760264260 0.00000000000000002721 -0.00000000000000011317 
0.94276374948836039191 0.00000000000000013605 0.00000000000000001864 
0.95325702810897328110 -0.00000000000000004082 -0.00000000000000004420 
0.96279071534702220792 0.00000000000000005442 -0.00000000000000009378 
0.97131514251992745468 0.00000000000000005442 -0.00000000000000004285 
0.97878437922154215567 0.00000000000000014966 -0.00000000000000009914 
0.98515796291481494418 -0.00000000000000004082 -0.00000000000000014539 
0.99040285080344381274 0.00000000000000004082 -0.00000000000000008096 
0.99449526897631612687 0.00000000000000005442 -0.00000000000000006906 
0.99742225287031749392 -0.00000000000000004082 -0.00000000000000002955 
0.99918276715794351883 0.00000000000000004762 -0.00000000000000007252 
0.99978836064784815107 -0.00000000000000002721 -0.00000000000000009523 
0.99926335866837689981 0.00000000000000006122 -0.00000000000000011653 
0.99764462649787133408 0.00000000000000006803 -0.00000000000000003646 
0.99498095656125751240 0.00000000000000002721 -0.00000000000000009707 
0.99133214239180267313 0.00000000000000002721 -0.00000000000000008194 
0.98676780617701842502 -0.00000000000000002721 -0.00000000000000005460 
0.98136604596101251197 0.00000000000000008163 0.00000000000000001320 
0.97521196472937021760 0.00000000000000000000 -0.00000000000000010565 
0.96839613778119981724 0.00000000000000008843 -0.00000000000000014195 
0.96101306784539242134 0.00000000000000000000 -0.00000000000000001101 
0.95315966995436940401 0.00000000000000010204 -0.00000000000000011226 
0.94493382060483610552 -0.00000000000000005442 -0.00000000000000009936 
0.93643299853139494449 0.00000000000000001361 -0.00000000000000015807 
0.92775303770946970783 0.00000000000000007483 -0.00000000000000010959 
0.91898700712165326543 0.00000000000000013605 -0.00000000000000009877 
0.91022422643760803052 0.00000000000000002721 -0.00000000000000013388 
0.90154942209751776083 0.00000000000000005442 -0.00000000000000009358 
0.89304202434514867726 0.00000000000000014285 -0.00000000000000004472 
0.88477560249783548940 0.00000000000000002041 -0.00000000000000004412 
0.87681743312063531448 0.00000000000000002041 0.00000000000000003996 
0.86922819373435356027 0.00000000000000002721 -0.00000000000000005772 
0.86206177317088494849 0.00000000000000004762 -0.00000000000000009698 
0.85536518863152022352 0.00000000000000004082 -0.00000000000000009994 
0.84917859884234492274 0.00000000000000003401 -0.00000000000000006395 
0.84353540237620716624 0.00000000000000006803 -0.00000000000000013339 
0.83846241016704070592 0.00000000000000002721 -0.00000000000000002892 
0.83398008142840918122 0.00000000000000004082 -0.00000000000000008240 
0.83010281255749196472 0.00000000000000002041 -0.00000000000000014714 
0.82683926911708105489 0.00000000000000006122 -0.00000000000000010204 
0.82419275160507432521 0.00000000000000014285 -0.00000000000000011243 
0.82216158641195957735 0.00000000000000010204 -0.00000000000000009492 
0.82073953410487954230 0.00000000000000000680 -0.00000000000000011180 
0.81991620793936759171 0.00000000000000006122 -0.00000000000000008964 
0.81967749626782993033 0.00000000000000000680 0.00000000000000002366 
0.82000598327201823512 0.00000000000000004762 -0.00000000000000009190 
0.82088136318277404868 0.00000000000000014285 -0.00000000000000006139 
0.82228084385476274409 0.00000000000000009524 -0.00000000000000014481 
0.82417953622959849724 0.00000000000000004082 -0.00000000000000011501 
0.82655082684261904635 -0.00000000000000000680 0.00000000000000000091 
0.82936673110329983682 0.00000000000000001361 -0.00000000000000005522 
0.83259822560502050326 0.00000000000000009524 -0.00000000000000010468 
0.83621555819599702186 0.00000000000000001361 -0.00000000000000001690 
0.84018853497001588782 0.00000000000000008163 -0.00000000000000008867 
0.84448678371431717959 -0.00000000000000001020 -0.00000000000000012374 
0.84907999368432118814 0.00000000000000001020 -0.00000000000000006954 
0.85393813186314715402 0.00000000000000008163 -0.00000000000000005592 
0.85903163611058608318 0.00000000000000009524 -0.00000000000000009048 
0.86433158581419922140 0.00000000000000000340 -0.00000000000000012576 
0.86980985082743877967 0.00000000000000015986 -0.00000000000000006718 
0.87543921961917858798 0.00000000000000011904 0.00000000000000000230 
0.88119350766876036740 0.00000000000000004082 -0.00000000000000005227 
0.88704764722361828522 0.00000000000000011564 -0.00000000000000005203 
0.89297775957461578145 0.00000000000000011564 -0.00000000000000011699 
0.89896119435327592750 0.00000000000000003061 -0.00000000000000008591 
0.90497631829446523177 0.00000000000000006122 -0.00000000000000010867 
0.91100172158414893797 0.00000000000000005442 -0.00000000000000002919 
0.91701501006394137150 0.00000000000000001361 -0.00000000000000005823 
0.92299151812212620882 0.00000000000000002721 0.00000000000000006008 
0.92890316743729106630 0.00000000000000008503 -0.00000000000000003716 
0.93471760047420904272 -0.00000000000000004762 -0.00000000000000003435 
0.94039764858829444361 0.00000000000000008843 -0.00000000000000007627 
0.94590114659345969628 -0.00000000000000000340 -0.00000000000000002493 
0.95118107371294657870 -0.00000000000000000680 0.00000000000000003970 
0.95618598099638330012 0.00000000000000003061 -0.00000000000000000427 
0.96086065440607371091 0.00000000000000003401 -0.00000000000000006568 
0.96514695838038500053 0.00000000000000011224 -0.00000000000000005450 
0.96898480484605420404 0.00000000000000001020 -0.00000000000000000693 
0.97231319588863029946 0.00000000000000006462 0.00000000000000001397 
0.97507129346906074030 0.00000000000000012415 -0.00000000000000003878 
0.97719947664105055729 -0.00000000000000001871 -0.00000000000000002071 
0.97864041492974818137 0.00000000000000004082 0.00000000000000010808 
0.97934046643286110090 0.00000000000000002891 -0.00000000000000005306 
0.97925154397264801975 -0.00000000000000011224 -0.00000000000000002116 
0.97833313225931717305 0.00000000000000002721 -0.00000000000000007511 
0.97655415221856445296 0.00000000000000010204 0.00000000000000000214 
0.97389448628278474374 0.00000000000000002041 -0.00000000000000005476 
0.97034606692344049783 -0.00000000000000001871 -0.00000000000000004472 
0.96591349388767311357 0.00000000000000004592 -0.00000000000000001899 
0.96061418921691998918 -0.00000000000000001190 0.00000000000000001638 
0.95447812776922646982 -0.00000000000000003061 -0.00000000000000011121 
0.94754719831770439775 0.00000000000000003571 -0.00000000000000004342 
0.93987425927678525106 0.00000000000000005442 0.00000000000000002574 
0.93152195601930753988 -0.00000000000000004422 0.00000000000000002704 
0.92256136539243271955 -0.00000000000000003571 -0.00000000000000001446 
0.91307052881314976212 0.00000000000000000850 0.00000000000000001044 
0.90313292929099309170 -0.00000000000000009524 -0.00000000000000000394 
0.89283596068988857475 0.00000000000000010969 0.00000000000000000551 
0.88226943009672254004 -0.00000000000000007313 -0.00000000000000002133 
0.87152412673978174595 -0.00000000000000010289 0.00000000000000005558 
0.86069048379429080597 -0.00000000000000002126 -0.00000000000000002315 
0.84985735282295660209 0.00000000000000005357 -0.00000000000000006377 
0.83911090464753790297 -0.00000000000000013945 0.00000000000000001429 
0.82853366519558735437 0.00000000000000005697 -0.00000000000000002827 
0.81820369033404594106 -0.00000000000000003486 -0.00000000000000001742 
0.80819387987654878192 0.00000000000000002041 -0.00000000000000001945 
0.79857142780057521758 0.00000000000000010119 -0.00000000000000001565 
0.78939740318599649349 -0.00000000000000004082 0.00000000000000002890 
0.78072645443150090472 -0.00000000000000007228 -0.00000000000000000023 
0.77260662785865241720 0.00000000000000003231 0.00000000000000000304 
0.76507929081266612403 0.00000000000000006462 -0.00000000000000005874 
0.75817914875306613443 -0.00000000000000003571 -0.00000000000000008531 
0.75193434553777294127 -0.00000000000000004932 -0.00000000000000005694 
0.74636663608614883803 -0.00000000000000003996 0.00000000000000010418 
0.74149162080998887170 -0.00000000000000001743 -0.00000000000000005701 
0.73731903158110045915 -0.00000000000000005867 0.00000000000000001831 
0.73385305951972767957 -0.00000000000000005144 -0.00000000000000000874 
0.73109271550427334940 -0.00000000000000006930 -0.00000000000000009468 
0.72903221498902803788 -0.00000000000000008376 -0.00000000000000001430 
0.72766137944673914273 0.00000000000000000893 -0.00000000000000002854 
0.72696604750496596203 -0.00000000000000001871 0.00000000000000004639 
0.72692848960098221944 -0.00000000000000001446 -0.00000000000000014637 
0.72752782072478372477 -0.00000000000000015221 -0.00000000000000002699 
0.72874040654173333209 -0.00000000000000006377 -0.00000000000000004425 
0.73054025887642948245 0.00000000000000001403 0.00000000000000004302 
0.73289941719073892212 -0.00000000000000002764 0.00000000000000010298 
0.73578831329678662243 -0.00000000000000006632 -0.00000000000000002000 
0.73917611710692865401 -0.00000000000000000595 -0.00000000000000010550 
0.74303106173568145287 -0.00000000000000009268 -0.00000000000000010392 
0.74732074673271009502 -0.00000000000000001339 -0.00000000000000006064 
0.75201241864173495877 -0.00000000000000012967 0.00000000000000002642 
0.75707322844880764467 -0.00000000000000011182 -0.00000000000000005685 
0.76247046580663269122 -0.00000000000000012521 -0.00000000000000002407 
0.76817177020169036261 -0.00000000000000006377 0.00000000000000000227 
0.77414531947044906701 -0.00000000000000011373 -0.00000000000000004702 
0.78035999627269125867 -0.00000000000000011756 -0.00000000000000009080 
0.78678553329684741691 -0.00000000000000007228 0.00000000000000001903 
0.79339263810717630676 -0.00000000000000009736 -0.00000000000000000547 
0.80015309864862560474 -0.00000000000000003061 -0.00000000000000002073 
0.80703987050513004142 -0.00000000000000008694 0.00000000000000002168 
0.81402714689182154029 -0.00000000000000009162 -0.00000000000000009141 
0.82109037848908639212 -0.00000000000000012691 0.00000000000000001339 
0.82820596242321853353 -0.00000000000000009205 -0.00000000000000008439 
0.83535033931360003212 0.00000000000000003359 0.00000000000000001148 
0.84249874733014029626 0.00000000000000000755 0.00000000000000000808 
0.84962395120474287769 0.00000000000000007897 0.00000000000000000978 
0.85669514958223313972 -0.00000000000000008131 0.00000000000000000850 
0.86367717382270670079 -0.00000000000000006207 -0.00000000000000002806 
0.87053002698785775237 -0.00000000000000005485 0.00000000000000004889 
0.87720876732037988965 0.00000000000000010491 -0.00000000000000002976 
0.88366371130050336280 -0.00000000000000007121 -0.00000000000000007483 
0.88984091354826599929 -0.00000000000000006717 -0.00000000000000004167 
0.89568287143714886422 -0.00000000000000005102 0.00000000000000003656 
0.90112939894151689035 0.00000000000000010863 -0.00000000000000010374 
0.90611861512683178344 -0.00000000000000011394 -0.00000000000000005442 
0.91058799639919885127 -0.00000000000000007823 -0.00000000000000000680 
0.91447544708993178109 0.00000000000000009460 -0.00000000000000004932 
0.91772035656815120763 -0.00000000000000001828 -0.00000000000000004762 
0.92026476732320183771 -0.00000000000000006909 -0.00000000000000002551 
0.92205499711207383751 -0.00000000000000003699 -0.00000000000000011734 
0.92304363125806077051 -0.00000000000000000244 -0.00000000000000000510 
0.92319153113094210017 0.00000000000000005867 -0.00000000000000014966 
0.92246960373519093501 0.00000000000000000760 -0.00000000000000003401 
0.92086018423448012804 -0.00000000000000001079 -0.00000000000000000340 
0.91835796097282995643 -0.00000000000000003752 -0.00000000000000001701 
0.91497042742318501762 0.00000000000000002530 -0.00000000000000012585 
0.91071788274659237761 -0.00000000000000010129 -0.00000000000000000340 
0.90563302648682153517 -0.00000000000000006707 -0.00000000000000015306 
0.89976020671220102720 -0.00000000000000003518 0.00000000000000001020 
0.89315438730760265962 -0.00000000000000001297 -0.00000000000000002721 
0.88587990120537751793 0.00000000000000005601 -0.00000000000000015306 
0.87800905375323590185 -0.00000000000000006213 -0.00000000000000002721 
0.86962063540486789215 -0.00000000000000000409 -0.00000000000000001361 
0.86079839644049860325 -0.00000000000000006882 0.00000000000000001361 
0.85162952919432588494 -0.00000000000000002756 0.00000000000000000000 
0.84220319580800528936 0.00000000000000008684 -0.00000000000000016326 
0.83260913221772314685 -0.00000000000000004868 -0.00000000000000014285 
0.82293635217322447239 0.00000000000000000141 0.00000000000000005442 
0.81327196874600704568 -0.00000000000000011795 -0.00000000000000009524 
0.80370014510712528555 -0.00000000000000013424 -0.00000000000000011564 
0.79430118138713623477 -0.00000000000000000914 -0.00000000000000014966 
0.78515074017801700368 0.00000000000000008474 -0.00000000000000008843 
0.77631920967851397730 -0.00000000000000008772 -0.00000000000000013605 
0.76787120058081448359 0.00000000000000002750 -0.00000000000000012245 
0.75986517049610602381 -0.00000000000000004669 -0.00000000000000008163 
0.75235316796097562175 0.00000000000000007533 -0.00000000000000003401 
0.74538068679413738149 0.00000000000000002128 -0.00000000000000017006 
0.73898662072174192694 0.00000000000000000422 -0.00000000000000006803 
0.73320330769946773231 0.00000000000000004953 -0.00000000000000011564 
0.72805665317378898127 0.00000000000000007796 -0.00000000000000012245 
0.72356632159049860675 -0.00000000000000007455 -0.00000000000000010884 
0.71974598572760017934 0.00000000000000003748 -0.00000000000000016326 
0.71660362385888698444 -0.00000000000000008074 -0.00000000000000004082 
0.71414185530566043347 0.00000000000000001915 -0.00000000000000008163 
0.71235830557372281646 -0.00000000000000004864 -0.00000000000000016326 
0.71124599297226365202 -0.00000000000000005279 -0.00000000000000008163 
0.71079372934611950718 -0.00000000000000005879 0.00000000000000002721 
0.71098652830268671554 0.00000000000000000871 -0.00000000000000013605 
0.71180601506269924883 -0.00000000000000005719 -0.00000000000000004082 
0.71323083279656718236 0.00000000000000003077 -0.00000000000000013605 
0.71523704101431562208 0.00000000000000004171 -0.00000000000000004082 
0.71779850224918617663 -0.00000000000000000385 -0.00000000000000004082 
0.72088725390667696136 -0.00000000000000002245 -0.00000000000000012245 
0.72447386273804414980 0.00000000000000002971 0.00000000000000008163 
0.72852775993755924944 0.00000000000000002265 -0.00000000000000005442 
0.73301755535482560067 0.00000000000000001676 -0.00000000000000006803 
0.73791132975711337671 -0.00000000000000000471 -0.00000000000000006803 
0.74317690447264461717 0.00000000000000004745 -0.00000000000000020408 
0.74878208809552293523 -0.00000000000000004582 -0.00000000000000001361 
0.75469490023846708127 0.00000000000000000044 0.00000000000000002721 
0.76088377258305661677 -0.00000000000000001463 -0.00000000000000004082 
0.76731772770145534324 -0.00000000000000001819 -0.00000000000000006803 
0.77396653631134204598 -0.00000000000000005780 -0.00000000000000009524 
0.78080085377998886820 0.00000000000000008755 -0.00000000000000008163 
0.78779233681700577829 -0.00000000000000013621 -0.00000000000000024489 
0.79491374139112802588 0.00000000000000010563 0.00000000000000001361 
0.80213900297744411549 0.00000000000000005481 0.00000000000000004082 
0.80944329762842026632 0.00000000000000005749 0.00000000000000002721 
0.81680298181917221356 -0.00000000000000003903 -0.00000000000000017687 
0.82419504463116177728 -0.00000000000000009173 -0.00000000000000005442 
0.83159602361191931053 0.00000000000000003155 0.00000000000000001361 
0.83898071772644078337 0.00000000000000005969 -0.00000000000000002721 
0.84632096944475765365 -0.00000000000000011977 -0.00000000000000002721 
0.85358467968915319180 0.00000000000000002194 -0.00000000000000010884 
0.86073514024732356020 -0.00000000000000007220 -0.00000000000000002721 
0.86773071250279665279 0.00000000000000005981 -0.00000000000000008163 
0.87452484350284032111 -0.00000000000000000040 0.00000000000000002721 
0.88106638613029664153 -0.00000000000000007229 0.00000000000000002721 
0.88730017601650901238 -0.00000000000000002072 -0.00000000000000010884 
0.89316781110464416038 -0.00000000000000002984 -0.00000000000000004082 
0.89860857831594898038 -0.00000000000000007604 0.00000000000000005442 
0.90356047393536609302 0.00000000000000002897 -0.00000000000000004082 
0.90796126885330508127 -0.00000000000000001254 0.00000000000000001361 
0.91174957572248027660 0.00000000000000007310 0.00000000000000002721 
0.91486588170391192065 -0.00000000000000002183 -0.00000000000000001361 
0.91725351727038750838 0.00000000000000006774 -0.00000000000000006803 
0.91885953814707488352 0.00000000000000000486 -0.00000000000000001361 
0.91963550365404567177 0.00000000000000003709 0.00000000000000005442 
0.91953814032120628763 0.00000000000000004462 -0.00000000000000002721 
0.91852988458806972272 -0.00000000000000000371 -0.00000000000000002721 
0.91657930264514386742 -0.00000000000000005709 0.00000000000000006803 
0.91366138902353444262 0.00000000000000003311 0.00000000000000005442 
0.90975774842334444781 0.00000000000000008992 -0.00000000000000004082 
0.90485666753562488118 -0.00000000000000007349 0.00000000000000014966 
0.89895308531344275682 -0.00000000000000000764 0.00000000000000004082 
0.89204847134724019053 -0.00000000000000000081 0.00000000000000002721 
0.88415062276205602654 -0.00000000000000001696 -0.00000000000000005442 
0.87527339044247842725 -0.00000000000000000474 0.00000000000000001361 
0.86543634546588532608 0.00000000000000002664 0.00000000000000008163 
0.85466439644194847070 0.00000000000000006789 0.00000000000000001361 
0.84298736806822072154 -0.00000000000000003329 -0.00000000000000001361 
0.83043955066423014166 -0.00000000000000005497 0.00000000000000012245 
0.81705922978099199128 -0.00000000000000000130 0.00000000000000009524 
0.80288820423491202849 0.00000000000000006496 0.00000000000000009524 
0.78797130011544225248 -0.00000000000000004600 -0.00000000000000001361 
0.77235588749040107182 0.00000000000000007638 0.00000000000000000000 
0.75609140570312860508 -0.00000000000000004230 0.00000000000000004082 
0.73922890233908533641 0.00000000000000008886 -0.00000000000000008163 
0.72182059015001920343 -0.00000000000000004535 0.00000000000000002721 
0.70391942547217489778 -0.00000000000000007687 0.00000000000000004082 
0.68557871096915778963 -0.00000000000000003638 0.00000000000000000000 
0.66685172487556354515 0.00000000000000004206 0.00000000000000010884 
0.64779137831792021895 -0.00000000000000004957 0.00000000000000004082 
0.62844990174667014760 -0.00000000000000000662 -0.00000000000000008163 
0.60887856102731197083 0.00000000000000000862 0.00000000000000019047 
0.58912740330969559643 0.00000000000000002799 0.00000000000000008163 
0.56924503242020096927 -0.00000000000000005895 -0.00000000000000008163 
0.54927841319981618451 0.00000000000000003836 0.00000000000000010884 
0.52927270393908931734 -0.00000000000000006912 0.00000000000000002721 
0.50927111583536166517 0.00000000000000008913 0.00000000000000013605 
0.48931479821508960804 0.00000000000000005319 -0.00000000000000002721 
0.46944274812085873272 0.00000000000000003837 -0.00000000000000004082 
0.44969174275519568917 -0.00000000000000006605 0.00000000000000004082 
0.43009629319788911239 0.00000000000000002699 0.00000000000000002721 
0.41068861776667586749 -0.00000000000000002588 -0.00000000000000008163 
0.39149863336943380165 -0.00000000000000002303 0.00000000000000001361 
0.37255537149446416034 -0.00000000000000013166 0.00000000000000004082 
0.35388269735215560630 0.00000000000000014219 0.00000000000000013605 
0.33550373121125703912 -0.00000000000000007248 0.00000000000000006803 
0.31743940438222317812 -0.00000000000000005482 0.00000000000000001361 
0.29970851636557238606 0.00000000000000005879 0.00000000000000002721 
0.28232780064688101085 0.00000000000000008577 0.00000000000000004082 
0.26531199779060732347 -0.00000000000000006409 -0.00000000000000013605 
0.24867393456446221234 -0.00000000000000002461 0.00000000000000001361 
0.23242460790896868339 0.00000000000000003698 0.00000000000000004082 
0.21657327265172554576 0.00000000000000003301 -0.00000000000000004082 
0.20112753195157162533 0.00000000000000006419 -0.00000000000000002721 
0.18609342954325036601 0.00000000000000002963 0.00000000000000002721 
0.17147554293742983678 -0.00000000000000002148 -0.00000000000000004082 
0.15727707681331412615 0.00000000000000010980 0.00000000000000002041 
0.14349995592092537611 -0.00000000000000006829 -0.00000000000000004082 
0.13014491688701199101 -0.00000000000000011496 0.00000000000000000680 
0.11721159839197220487 -0.00000000000000006007 -0.00000000000000006803 
0.10469862925494055617 -0.00000000000000008581 0.00000000002093746008 
0.09260371403001196877 0.00000000000000001852 0.00000001685631400314 
0.08092371577832579987 -0.00000000000000007543 0.00000033634416397051 
0.06965473573834177201 0.00000000000000005092 0.00000233427611426036 
0.05879218967005429147 0.00000000000000003445 0.00000969889749947682 
0.04833088069814859417 -0.00000000000000007190 0.00002972137212696340 
0.03826506852425527738 -0.00000000000000005955 0.00007443021656810547 
0.02858853491958367188 0.00000000000000004445 0.00016144193508551652 
0.01929464544646428484 -0.00000000000000002602 0.00031446908285012287 
0.01037640739080107621 0.00000000000000004062 0.00056347493480094911 
0.00182652391732212802 -0.00000000000000000751 0.00094449581718030189 
-0.00636255551403033717 -0.00000000000000001382 0.00149917193687764457 
-0.01419858840901686708 -0.00000000000000005101 0.00227403836405612198 
-0.02168949609562710254 0.00000000000000002363 0.00331963215799352179 
-0.02884332407722801569 -0.00000000000000011305 0.00468947140132215147 
-0.03566820576874674825 -0.00000000000000000364 0.00643895861026378205 
-0.04217232949017242494 -0.00000000000000005061 0.00862425575052627041 
-0.04836390858183523683 0.00000000000000001903 0.01130117176015172850 
-0.05425115449819944979 -0.00000000000000005579 0.01452409668729543087 
-0.05984225273111494492 -0.00000000000000004697 0.01834500974161500444 
-0.06514534140943643858 0.00000000000000005039 0.02281258204362924050 
-0.07016849241946240823 -0.00000000000000002202 0.02797138884160186439 
-0.07491969488962323120 0.00000000000000002067 0.03386124057353300659 
-0.07940684088309148125 -0.00000000000000004115 0.04051663744507833648 
-0.08363771314336165830 0.00000000000000005858 0.04796634819026051461 
-0.08761997474021095134 -0.00000000000000001240 0.05623311036620655401 
-0.09136116046668014967 -0.00000000000000003486 0.06533344686927865241 
-0.09486866984168666750 0.00000000000000001885 0.07527759129697209062 
-0.09814976157747798413 0.00000000000000000400 0.08606951325847182754 
-0.10121154937627212245 0.00000000000000000328 0.09770703369347655265 
-0.10406099892598340284 -0.00000000000000006935 0.11018201962978922681 
-0.10670492597084467457 -0.00000000000000005128 0.12348064753289671180 
-0.10914999533889858940 0.00000000000000007383 0.13758372441626179339 
-0.11140272081469404508 -0.00000000000000003698 0.15246705613464733853 
-0.11346946575199653995 -0.00000000000000015059 0.16810185272481817376 
-0.11535644432787287017 0.00000000000000004137 0.18445516124400923585 
-0.11706972334605263153 -0.00000000000000005564 0.20149031724759514095 
-0.11861522450398941098 -0.00000000000000003226 0.21916740680962595866 
-0.11999872704446770677 -0.00000000000000009428 0.23744373179443950539 
-0.12122587071891831323 0.00000000000000003508 0.25627427191025775599 
-0.12230215899576049599 -0.00000000000000004337 0.27561213789652067030 
-0.12323296245307101271 -0.00000000000000000213 0.29540901099962829646 
-0.12402352230065864791 -0.00000000000000007440 0.31561556466403406507 
-0.12468008702838176416 -0.00000000000000008163 0.33618186509758041236 
-0.12520672912386857090 -0.00000000000000004932 0.35705774805455503529 
-0.12560803621275001829 0.00000000000000002381 0.37819316981230027830 
-0.12588877225647224223 -0.00000000000000017857 0.39953853089448448932 
-0.12605358964465684934 -0.00000000000000010884 0.42104497161493514845 
-0.12610703264410288993 0.00000000000000001531 0.44266463898029395629 
-0.12605354073372909696 -0.00000000000000008503 0.46435092489864782106 
-0.12589745180781172773 -0.00000000000000006122 0.48605867599661983780 
-0.12564300523330904080 0.00000000000000007823 0.50774437565163266228 
-0.12529434475025144624 -0.00000000000000006462 0.52936629910217869455 
-0.12485552120708676149 -0.00000000000000010204 0.55088464271019554896 
-0.12433049512553716320 0.00000000000000000680 0.57226162861956964001 
-0.12372313909193057013 -0.00000000000000000680 0.59346158618695077358 
-0.12303723997414731106 0.00000000000000005442 0.61445101165907678453 
-0.12227650096526115897 -0.00000000000000006122 0.63519860763823354777 
-0.12144454345667465844 -0.00000000000000002721 0.65567530391777584242 
-0.12054490874506186560 0.00000000000000000000 0.67585426128614922714 
-0.11957992653252658144 0.00000000000000001361 0.69571085989304659591 
-0.11855390323951568721 -0.00000000000000002721 0.71522266654121957608 
-0.11747043574606612359 -0.00000000000000008163 0.73436922575518370770 
-0.11633275490060900059 -0.00000000000000002721 0.75313130749474721526 
-0.11514401793879136537 0.00000000000000002721 0.77148967770907539432 
-0.11390730933441337025 0.00000000000000001361 0.78942373376634222826 
-0.11262564154169116271 -0.00000000000000016326 0.80691025303809904567 
-0.11130195563896241873 0.00000000000000010884 0.82392240046244458185 
-0.10993912188405299823 -0.00000000000000005442 0.84042906692239383037 
-0.10853994019154443451 0.00000000000000000000 0.85639455846841483488 
-0.10710714054209283241 -0.00000000000000008163 0.87177862158439511919 
-0.10564338333379777457 0.00000000000000008163 0.88653676769098166410 
-0.10415125968537949919 -0.00000000000000005442 0.90062084760448735121 
-0.10263329170062736317 0.00000000000000013605 0.91397982112873721317 
-0.10109193270323700575 -0.00000000000000005442 0.92656066632520750481 
-0.09952956745074469092 0.00000000000000002721 0.93830937571708106226 
-0.09794851233584073169 -0.00000000000000002721 0.94917199153864917349 
-0.09635101558286428280 0.00000000000000005442 0.95909563903752792502 
-0.09473925744679473349 -0.00000000000000005442 0.96802958498406421750 
-0.09311535042152981057 0.00000000000000000000 0.97592662846322231207 
-0.09148133946372294378 0.00000000000000005442 0.98274496586636228557 
-0.08983920223790026194 0.00000000000000000000 0.98845021174229863448 
-0.08819084938805232810 -0.00000000000000016326 0.99301727048968402300 
-0.08653812484033700236 0.00000000000000005442 0.99643187165957336493 
-0.08488280614100762733 0.00000000000000000000 0.99869167025668825755 
-0.08322660483314317514 0.00000000000000005442 0.99980687675109258805 
-0.08157116687524186560 -0.00000000000000010884 0.99980042525648671337 
-0.07991807310423575117 0.00000000000000005442 0.99870771709462535792 
-0.07826883974499776464 0.00000000000000000000 0.99657599442387156952 
-0.07662491896794111634 0.00000000000000000000 0.99346340768442686908 
-0.07498769949586563122 -0.00000000000000005442 0.98943784360723296967 
-0.07335850726077602912 0.00000000000000000000 0.98457557924957517237 
-0.07173860611099362738 0.00000000000000000000 0.97895982335303766142 
-0.07012919856850670375 0.00000000000000005442 0.97267920033579979844 
-0.06853142663614407437 0.00000000000000005442 0.96582622523559347183 
-0.06694637265382977209 0.00000000000000010884 0.95849581050700849438 
-0.06537506020287228714 -0.00000000000000005442 0.95078383817662803779 
-0.06381845505695793452 0.00000000000000005442 0.94278582377146291638 
-0.06227746617827159548 -0.00000000000000005442 0.93459569185922797274 
-0.06075294675692977792 0.00000000000000000000 0.92630467709491071115 
-0.05924569529171462567 -0.00000000000000010884 0.91800035942019475588 
-0.05775645670991273045 -0.00000000000000005442 0.90976583753070616734 
-0.05628592352390526798 -0.00000000000000010884 0.90167904089960682068 
-0.05483473702202664585 0.00000000000000005442 0.89381217749180008614 
-0.05340348849109131935 -0.00000000000000005442 0.88623131177344116605 
-0.05199272046789947532 0.00000000000000005442 0.87899606566033194888 
-0.05060292801696312376 -0.00000000000000016326 0.87215943359533332213 
-0.04923456003163875772 0.00000000000000021768 0.86576770193710883561 
-0.04788802055582176004 0.00000000000000000000 0.85986046221929246514 
-0.04656367012333871569 -0.00000000000000010884 0.85447070754226550626 
-0.04526182711217539151 -0.00000000000000021768 0.84962500133457763418 
-0.04398276911068824124 -0.00000000000000010884 0.84534370791767587949 
-0.04272673429297996206 0.00000000000000000000 0.84164127468079041883 
-0.04149392280065432315 0.00000000000000000000 0.83852655618239602120 
-0.04028449812822325338 -0.00000000000000010884 0.83600317110529909215 
-0.03909858850949571307 0.00000000000000010884 0.83406988367355727743 
-0.03793628830235517418 0.00000000000000000000 0.83272100186499797836 
-0.03679765936940814636 0.00000000000000000000 0.83194678550108069892 
-0.03568273245207839034 -0.00000000000000010884 0.83173385804807320465 
-0.03459150853581262341 0.00000000000000000000 0.83206561670510814643 
-0.03352481482979535049 -0.00000000000000005442 0.83292263607393635105 
-0.03248224836856616893 0.00000000000000010884 0.83428306139289454268 
-0.03146314699008168764 -0.00000000000000010884 0.83612298796698980574 
-0.03046741013097092887 0.00000000000000005442 0.83841682403220785247 
-0.02949491388026628108 0.00000000000000010884 0.84113763485205139681 
-0.02854551225840629494 0.00000000000000000000 0.84425746635619458580 
-0.02761903847356944955 -0.00000000000000005442 0.84774764709442873567 
-0.02671530615391555508 0.00000000000000000000 0.85157906769422975213 
-0.02583411055442493345 0.00000000000000005442 0.85572243737840913980 
-0.02497522973714630390 0.00000000000000005442 0.86014851742226738907 
-0.02413842572377300488 -0.00000000000000016326 0.86482833170958639535 
-0.02332344561958639081 0.00000000000000005442 0.86973335478628788220 
-0.02253002270791141723 0.00000000000000010884 0.87483567801237405170 
-0.02175787751434002382 0.00000000000000000000 0.88010815457974367337 
-0.02100671884008329868 -0.00000000000000005442 0.88552452429860295524 
-0.02027624476391725467 0.00000000000000016326 0.89105951916140491154 
-0.01956614361228424526 0.00000000000000005442 0.89668895077341881361 
-0.01887468659893216591 0.00000000000000010884 0.90238978062401553615 
-0.01820303198783790322 -0.00000000000000010884 0.90814014030050915771 
-0.01755084013827333533 0.00000000000000000000 0.91391902094347809982 
-0.01691776542997984467 0.00000000000000005442 0.91970537085797532395 
-0.01630345706021604432 -0.00000000000000005442 0.92547685021909720238 
-0.01570755980869676174 -0.00000000000000005442 0.93120856081071512467 
-0.01512971477055895589 0.00000000000000010884 0.93687195417806634623 
-0.01456956005755694408 0.00000000000000000000 0.94243403130169678406 
-0.01402673146775416414 0.00000000000000005442 0.94785688252106514717 
-0.01350086312403778535 -0.00000000000000010884 0.95309757201286415818 
-0.01299158808184001576 0.00000000000000000000 0.95810834190427973667 
-0.01249853890650003303 0.00000000000000000000 0.96283709328613309442 
-0.01202134822074884743 0.00000000000000000000 0.96722809198802772723 
-0.01155964922284224289 -0.00000000000000005442 0.97122284363460087420 
-0.01111307617590909583 0.00000000000000010884 0.97476108338862332836 
-0.01068126486911336395 0.00000000000000000000 0.97778182949441361238 
-0.01026385305126636949 0.00000000000000021768 0.98022445519361289801 
-0.00986048083754942351 0.00000000000000000000 0.98202974265643228069 
-0.00947079109003446003 0.00000000000000010884 0.98314098991715448417 
-0.00909442977271196148 0.00000000000000005442 0.98350551292068233433 
-0.00873104628175325539 0.00000000000000000000 0.98307657338932363800 
-0.00838029375174999605 0.00000000000000000000 0.98181538697678105709 
-0.00804182933868674392 0.00000000000000016326 0.97969293273568380798 
-0.00771531448041260035 0.00000000000000005442 0.97669139773627666745 
-0.00740041513538140620 0.00000000000000016326 0.97280517357475360107 
-0.00709680200044241882 -0.00000000000000010884 0.96804138036296683012 
-0.00680415070845490425 0.00000000000000016326 0.96241993407635750835 
-0.00652214200651125408 -0.00000000000000005442 0.95597319925479440350 
-0.00625046191554208715 0.00000000000000010884 0.94874528451564277276 
-0.00598880187207870979 -0.00000000000000005442 0.94079104593756768260 
-0.00573685885294026362 0.00000000000000010884 0.93217486530205573292 
-0.00549433548360290028 -0.00000000000000005442 0.92296926815029289859 
-0.00526094013100764698 0.00000000000000010884 0.91325344194870994308 
-0.00503638698154136154 -0.00000000000000005442 0.90311170836604404144 
-0.00482039610492389966 0.00000000000000016326 0.89263199650572611077 
-0.00461269350471619002 0.00000000000000000000 0.88190435646739684383 
-0.00441301115615134500 0.00000000000000000000 0.87101954523028635169 
-0.00422108703197758561 -0.00000000000000005442 0.86006770983547153886 
-0.00403666511698181664 0.00000000000000005442 0.84913718637455926075 
-0.00385949541185211719 0.00000000000000005442 0.83831342747692871864 
-0.00368933392701649735 0.00000000000000000000 0.82767806587916414873 
-0.00352594266707740179 0.00000000000000000000 0.81730811727100993735 
-0.00336908960644629728 0.00000000000000005442 0.80727532192527351462 
-0.00321854865676171912 0.00000000000000005442 0.79764562159764429428 
-0.00307409962665662921 0.00000000000000010884 0.78847876577630415795 
-0.00293552817442166523 0.00000000000000000000 0.77982803951259915820 
-0.00280262575409104958 0.00000000000000000000 0.77174010371136125830 
-0.00267518955546192918 0.00000000000000000000 0.76425493784039633116 
-0.00255302243853335487 0.00000000000000000000 0.75740587447242690988 
-0.00243593286283757485 0.00000000000000005442 0.75121971484152472165 
-0.00232373481211362812 0.00000000000000000000 0.74571691462606393141 
-0.00221624771475526427 0.00000000000000000000 0.74091182941220801172 
-0.00211329636044734707 0.00000000000000000000 0.73681300970170859888 
-0.00201471081338561219 0.00000000000000000000 0.73342353586602859750 
-0.00192032632245547159 -0.00000000000000005442 0.73074138408118249899 
-0.00182998322873144403 0.00000000000000000000 0.72875981497449848767 
-0.00174352687063432008 0.00000000000000005442 0.72746777745054846953 
-0.00166080748707358203 -0.00000000000000016326 0.72685032091754209205 
-0.00158168011888047016 0.00000000000000010884 0.72688900989004900932 
-0.00150600450882194207 0.00000000000000000000 0.72756233568488593022 
-0.00143477804667954461 -0.00000000000000010884 0.72884612064312770396 
-0.00136694874685881719 0.00000000000000000000 0.73071391099388782742 
-0.00130210265087380610 -0.00000000000000010884 0.73313735511839628334 
-0.00124012132418004962 -0.00000000000000010884 0.73608656457153875952 
-0.00118089031418955716 0.00000000000000010884 0.73953045576961129459 
-0.00112429905713632328 -0.00000000000000010884 0.74343707075614984259 
-0.00107024078467145073 0.00000000000000005442 0.74777387591202648665 
-0.00101861243038299173 0.00000000000000000000 0.75250803788213804779 
-0.00096931453641585107 -0.00000000000000010884 0.75760667635032008516 
-0.00092225116036462188 -0.00000000000000010884 0.76303709360846172505 
-0.00087732978258946636 0.00000000000000010884 0.76876698113752006680 
-0.00083446121410223723 0.00000000000000000000 0.77476460364982513429 
-0.00079355950515291960 0.00000000000000005442 0.78099896123657064351 
-0.00075454185463968157 0.00000000000000000000 0.78743993042458693132 
-0.00071732852045298088 0.00000000000000010884 0.79405838507540438265 
-0.00068184273085735488 -0.00000000000000016326 0.80082629816013073398 
-0.00064743759555528071 0.00000000000000000000 0.80771682551871104572 
-0.00061381159118558521 0.00000000000000000000 0.81470437196866851703 
-0.00058177642253000241 -0.00000000000000005442 0.82176457869240016052 
-0.00055126221697480147 0.00000000000000005442 0.82887389770211838957 
-0.00052220185969922611 -0.00000000000000005442 0.83600859087700696293 
-0.00049453090260641070 -0.00000000000000010884 0.84314345738796037111 
-0.00046818747523394205 0.00000000000000016326 0.85025058545484732964 
-0.00044311219766777056 0.00000000000000000000 0.85729831136466072561 
-0.00041924809547282479 0.00000000000000000000 0.86425048412370153450 
-0.00039654051665190032 -0.00000000000000010884 0.87106607416266279564 
-0.00037493705063764479 -0.00000000000000010884 0.87769912347650269613 
-0.00035438744932005800 0.00000000000000000000 0.88409900791330109371 
-0.00033484355010549152 0.00000000000000005442 0.89021096641056829402 
-0.00031625920100275117 -0.00000000000000010884 0.89597684395632126719 
-0.00029859018772312133 0.00000000000000005442 0.90133599268662800696 
-0.00028179416278486570 0.00000000000000000000 0.90622627708282310621 
-0.00026583057660253665 -0.00000000000000010884 0.91058513336546986761 
-0.00025066061054530338 -0.00000000000000010884 0.91435063888718426384 
-0.00023624711194026842 -0.00000000000000010884 0.91746255464510051425 
-0.00022255453099850954 -0.00000000000000005442 0.91986337229334080856 
-0.00020954885963914857 0.00000000000000010884 0.92149967685103306714 
-0.00019719757218150522 -0.00000000000000021768 0.92232397089032491788 
-0.00018546956787772613 0.00000000000000010884 0.92229664538460498502 
-0.00017433511525585512 -0.00000000000000010884 0.92138779532173031850 
-0.00016376579823987271 -0.00000000000000005442 0.91957869555450244548 
-0.00015373446401512937 -0.00000000000000005442 0.91686284056176647894 
-0.00014421517260332868 -0.00000000000000005442 0.91324651471461171237 
-0.00013518314811514161 0.00000000000000000000 0.90874890301130417658 
-0.00012661473164128338 0.00000000000000005442 0.90340178066584930772 
-0.00011848733574964486 -0.00000000000000010884 0.89724883708819747064 
-0.00011077940054843560 0.00000000000000005442 0.89034469860119669349 
-0.00010347035128179523 -0.00000000000000010884 0.88275371700387550433 
-0.00009654055741699079 -0.00000000000000005442 0.87454858961263259864 
-0.00008997129319031905 -0.00000000000000016326 0.86580887208410328704 
-0.00008374469957050450 0.00000000000000000000 0.85661943921014271908 
-0.00007784374760378422 -0.00000000000000010884 0.84706894177778480071 
-0.00007225220310459049 0.00000000000000005442 0.83724830009702733147 
-0.00006695459265296884 -0.00000000000000021768 0.82724926734318304788 
-0.00006193617086310009 0.00000000000000005442 0.81716308873504273080 
-0.00005718288888584868 -0.00000000000000005442 0.80707927597130979525 
-0.00005268136410919805 -0.00000000000000016326 0.79708451039484073952 
-0.00004841885102268689 -0.00000000000000021768 0.78726168310810862305 
-0.00004438321320665109 0.00000000000000000000 0.77768907574204271249 
-0.00004056289641596014 -0.00000000000000016326 0.76843968177088473048 
-0.00003694690272033434 -0.00000000000000005442 0.75958066513339306258 
-0.00003352476567067089 -0.00000000000000010884 0.75117295041667875299 
-0.00003028652645502471 0.00000000000000000000 0.74327093692573864558 
-0.00002722271101466654 -0.00000000000000005442 0.73592232753757114150 
-0.00002432430808613227 -0.00000000000000005442 0.72916806226072727881 
-0.00002158274814026449 -0.00000000000000005442 0.72304234582755033678 
-0.00001898988318494633 -0.00000000000000010884 0.71757275837838119248 
-0.00001653796740294076 -0.00000000000000016326 0.71278043829965298528 
-0.00001421963859787170 0.00000000000000005442 0.70868032650078938151 
-0.00001202790041572811 -0.00000000000000027210 0.70528146181268414061 
-0.00000995610531610408 0.00000000000000000000 0.70258731772297988716 
-0.00000799793826628916 -0.00000000000000010884 0.70059617129494700105 
-0.00000614740113289141 -0.00000000000000021768 0.69930149581692857552 
-0.00000439879774127093 -0.00000000000000010884 0.69869236947194246490 
-0.00000274671958258206 -0.00000000000000005442 0.69875389308019253409 
-0.00000118603214051381 -0.00000000000000016326 0.69946761073279772880 
-0.00000000000000002897 -0.00000000000000010884 0.70081192788827151308 
0.00000000000000000348 -0.00000000000000010884 0.70276252223247537287 
-0.00000000000000002983 -0.00000000000000010884 0.70529274329894153794 
-0.00000000000000004961 -0.00000000000000016326 0.70837399750286689226 
-0.00000000000000009830 -0.00000000000000005442 0.71197611585404241286 
0.00000000000000004489 -0.00000000000000010884 0.71606770217846882343 
-0.00000000000000011106 -0.00000000000000010884 0.72061646019383363004 
-0.00000000000000009183 -0.00000000000000010884 0.72558949824991425537 
0.00000000000000002642 0.00000000000000000000 0.73095361096192734696 
-0.00000000000000008441 -0.00000000000000010884 0.73667553733403512428 
-0.00000000000000002396 0.00000000000000005442 0.74272219529362371038 
0.00000000000000008601 -0.00000000000000005442 0.74906089283680798996 
-0.00000000000000001192 -0.00000000000000016326 0.75565951622456928316 
0.00000000000000008645 -0.00000000000000021768 0.76248669586980810653 
0.00000000000000000887 -0.00000000000000005442 0.76951195072136469033 
0.00000000000000001843 -0.00000000000000005442 0.77670581208472899704 
0.00000000000000013349 0.00000000000000000000 0.78403992792371557385 
0.00000000000000003979 -0.00000000000000010884 0.79148714876577175303 
-0.00000000000000003108 0.00000000000000005442 0.79902159621667445677 
0.00000000000000000410 -0.00000000000000005442 0.80661868121617918970 
0.00000000000000000506 -0.00000000000000005442 0.81425479136128642299 
0.00000000000000006381 -0.00000000000000010884 0.82190638623728962120 
0.00000000000000004982 0.00000000000000010884 0.82954874971887837543 
-0.00000000000000001677 -0.00000000000000005442 0.83715471720195866467 
0.00000000000000008136 0.00000000000000000000 0.84469358116689896576 
0.00000000000000001604 -0.00000000000000010884 0.85213028819888891885 
-0.00000000000000005196 0.00000000000000000000 0.85942497621018543175 
0.00000000000000002912 -0.00000000000000010884 0.86653285618413988800 
0.00000000000000013881 0.00000000000000000000 0.87340441353449349560 
0.00000000000000008303 0.00000000000000000000 0.87998588635670627056 
0.00000000000000005910 -0.00000000000000016326 0.88621996844388339909 
-0.00000000000000003711 -0.00000000000000010884 0.89204668159557165552 
0.00000000000000002738 -0.00000000000000005442 0.89740436263316969434 
0.00000000000000005122 -0.00000000000000021768 0.90223071424232215154 
0.00000000000000012708 0.00000000000000016326 0.90646387422025331837 
-0.00000000000000001776 0.00000000000000000000 0.91004346411424352770 
0.00000000000000001476 -0.00000000000000005442 0.91291158500997782177 
0.00000000000000009493 0.00000000000000000000 0.91501373494713089674 
0.00000000000000006433 0.00000000000000000000 0.91629962881708215683 
-0.00000000000000006147 0.00000000000000000000 0.91672390744778531335 
0.00000000000000001723 0.00000000000000005442 0.91624672779408078416 
-0.00000000000000002930 -0.00000000000000005442 0.91483423067583757859 
-0.00000000000000005137 -0.00000000000000005442 0.91245888633113536592 
-0.00000000000000001768 -0.00000000000000010884 0.90909972119677850966 
0.00000000000000007386 0.00000000000000005442 0.90474243183376867883 
0.00000000000000001617 -0.00000000000000010884 0.89937939383389253756 
0.00000000000000003965 -0.00000000000000005442 0.89300957493573596135 
-0.00000000000000001645 -0.00000000000000005442 0.88563836250774696790 
0.00000000000000006260 0.00000000000000000000 0.87727731608629533344 
-0.00000000000000001818 0.00000000000000000000 0.86794385584961630808 
0.00000000000000001512 0.00000000000000005442 0.85766089782226617722 
0.00000000000000004092 0.00000000000000005442 0.84645644629285865523 
0.00000000000000004017 -0.00000000000000005442 0.83436315343887768048 
0.00000000000000011139 0.00000000000000005442 0.82141785552951185334 
-0.00000000000000005602 0.00000000000000000000 0.80766109435855315546 
0.00000000000000001387 -0.00000000000000005442 0.79313663177713789043 
0.00000000000000002114 0.00000000000000000000 0.77789096437825044905 
0.00000000000000000232 -0.00000000000000005442 0.76197284455466107733 
0.00000000000000002386 0.00000000000000000000 0.74543281332838717823 
0.00000000000000002131 0.00000000000000005442 0.72832274954811160317 
0.00000000000000010070 -0.00000000000000005442 0.71069543928324352411 
0.00000000000000005474 -0.00000000000000005442 0.69260416851847983466 
0.00000000000000001420 0.00000000000000000000 0.67410234157729498339 
-0.00000000000000002479 -0.00000000000000005442 0.65524312708109466730 
0.00000000000000005848 0.00000000000000000000 0.63607913268529547857 
0.00000000000000011006 -0.00000000000000010884 0.61666210932527631972 
0.00000000000000008465 0.00000000000000000000 0.59704268525375681076 
0.00000000000000010404 -0.00000000000000005442 0.57727012975534885975 
-0.00000000000000000332 0.00000000000000005442 0.55739214608176912424 
0.00000000000000007778 0.00000000000000005442 0.53745469285983571428 
0.00000000000000011428 0.00000000000000016326 0.51750183298076157801 
0.00000000000000005998 0.00000000000000005442 0.49757560878006223959 
0.00000000000000006913 0.00000000000000005442 0.47771594215901602709 
0.00000000000000006635 0.00000000000000005442 0.45796055817742270522 
0.00000000000000000981 0.00000000000000000000 0.43834493055973317022 
-0.00000000000000001325 0.00000000000000000000 0.41890224749890803135 
0.00000000000000012682 -0.00000000000000016326 0.39966339611111778574 
0.00000000000000006321 -0.00000000000000010884 0.38065781851193802865 
0.00000000000000007644 0.00000000000000005442 0.36191147088050745761 
-0.00000000000000002287 0.00000000000000000000 0.34344782365415654768 
0.00000000000000014951 0.00000000000000000000 0.32528872372546246972 
0.00000000000000006735 -0.00000000000000010884 0.30745386156927984045 
0.00000000000000001722 0.00000000000000016326 0.28996083381743942287 
-0.00000000000000003671 -0.00000000000000010884 0.27282521365616457798 
0.00000000000000001723 0.00000000000000000000 0.25606062774548865590 
0.00000000000000004424 -0.00000000000000005442 0.23967883844176088304 
0.00000000000000000255 0.00000000000000005442 0.22368983018864788126 
0.00000000000000001930 0.00000000000000000000 0.20810189902756867641 
0.00000000000000001526 0.00000000000000000000 0.19292174426419544941 
0.00000000000000000206 -0.00000000000000005442 0.17815456141249400024 
0.00000000000000004683 0.00000000000000016326 0.16380413562103726677 
0.00000000000000015191 0.00000000000000005442 0.14987293486727490399 
0.00000000000000015388 0.00000000000000000000 0.13636220228359338669 
0.00000000000000008379 0.00000000000000010884 0.12327204705386982098 
0.00000000000000002328 0.00000000000064689152 0.11060153339050875221 
-0.00000000000000000322 0.00000000721345365689 0.09834876716938173447 
0.00000000000000006304 0.00000020716500372540 0.08651097986349631785 
-0.00000000000000006981 0.00000166731366158673 0.07508460947550142650 
0.00000000000000010221 0.00000750841022441817 0.06406537822423533091 
0.00000000000000001182 0.00002420292732190729 0.05344836679143482455 
0.00000000000000010306 0.00006275356487288770 0.04322808498151633344 
0.00000000000000000971 0.00013960721612952647 0.03339853869005225684 
0.00000000000000002781 0.00027723368575062240 0.02395329311535611405 
-0.00000000000000002926 0.00050435017637908840 0.01488553218253156271 
0.00000000000000008963 0.00085580730699420359 0.00618811418064832506 
-0.00000000000000003486 0.00137217434921588634 -0.00214637635850453180 
0.00000000000000008098 0.00209907376235549028 -0.01012558048716149899 
0.00000000000000006694 0.00308632056969118098 -0.01775732029955396502 
0.00000000000000007976 0.00438692267390585790 -0.02504955792845631191 
-0.00000000000000001684 0.00605599542578127894 -0.03201035797200525723 
-0.00000000000000000721 0.00814963883427550877 -0.03864785322941322737 
0.00000000000000003232 0.01072381963933504052 -0.04497021361349074625 
0.00000000000000005304 0.01383329372752737166 -0.05098561809936000278 
-0.00000000000000002299 0.01753059753566740819 -0.05670222956222122773 
0.00000000000000004655 0.02186513049493812172 -0.06212817235232482443 
-0.00000000000000001405 0.02688234444114192406 -0.06727151245225292120 
0.00000000000000002597 0.03262305039350799768 -0.07214024006005022305 
0.00000000000000001733 0.03912284825803145905 -0.07674225444151420994 
0.00000000000000003466 0.04641168086709492741 -0.08108535089590390710 
0.00000000000000002474 0.05451351031617621135 -0.08517720968133367376 
-0.00000000000000004785 0.06344611176792350205 -0.08902538674901756821 
0.00000000000000004047 0.07322097771527641408 -0.09263730613924350821 
-0.00000000000000000603 0.08384332407050275326 -0.09602025389631739516 
-0.00000000000000002410 0.09531218831325208307 -0.09918137336467360010 
-0.00000000000000001025 0.10762060922384031336 -0.10212766173374893119 
-0.00000000000000000129 0.12075587738519084902 -0.10486596770500951348 
0.00000000000000000586 0.13469984559832570703 -0.10740299016060318726 
-0.00000000000000000880 0.14942928856642023749 -0.10974527771940671694 
-0.00000000000000000723 0.16491630161049572467 -0.11189922907268722019 
-0.00000000000000006097 0.18112872874035526594 -0.11387109399812646304 
0.00000000000000001941 0.19803061107729219570 -0.11566697495752421843 
-0.00000000000000001866 0.21558264737554025392 -0.11729282919002829988 
0.00000000000000003566 0.23374265918761372163 -0.11875447121922265425 
-0.00000000000000000836 0.25246605403946587032 -0.12005757569876558677 
0.00000000000000006547 0.27170628080402559057 -0.12120768052750202637 
0.00000000000000001896 0.29141527226928720662 -0.12221019017103561255 
0.00000000000000002403 0.31154387067640010311 -0.12307037913260693296 
-0.00000000000000002967 0.33204223274385674669 -0.12379396852321959688 
-0.00000000000000001002 0.35286021138839396283 -0.12438621411026720698 
-0.00000000000000003467 0.37394771199630699732 -0.12485114200253744077 
0.00000000000000010945 0.39525502168732512542 -0.12519354697811393984 
-0.00000000000000001095 0.41673311054532324871 -0.12541811161640364913 
0.00000000000000005514 0.43833390426573987098 -0.12552940977434015601 
0.00000000000000005714 0.46001052808943243555 -0.12553190995569249444 
0.00000000000000007457 0.48171752225856051544 -0.12542997855444101840 
0.00000000000000007709 0.50341102954431626859 -0.12522788295674050496 
-0.00000000000000003475 0.52504895566181009059 -0.12492979448927746255 
0.00000000000000002247 0.54659110360737139800 -0.12453979120484413856 
0.00000000000000003756 0.56799928313144854020 -0.12406186049871972821 
0.00000000000000004925 0.58923739669969765753 -0.12349990155195346431 
0.00000000000000003666 0.61027150339942215496 -0.12285772759991143988 
-0.00000000000000000774 0.63106986232177630924 -0.12213906802648606675 
0.00000000000000011289 0.65160295699561177063 -0.12134757028616059704 
0.00000000000000004545 0.67184350246984969601 -0.12048680165772807094 
-0.00000000000000002819 0.69176643664100256892 -0.11955884253655707505 
0.00000000000000004213 0.71134889474201545845 -0.11856859112577511350 
0.00000000000000004434 0.73057006530229406938 -0.11751937889276684035 
0.00000000000000000892 0.74941056144322959476 -0.11641446279725137236 
0.00000000000000011214 0.76785125909186990878 -0.11525702629159896573 
-0.00000000000000001461 0.78587193572252100893 -0.11405018019875823310 
0.00000000000000008008 0.80344998181811067006 -0.11279696347760283237 
-0.00000000000000006924 0.82055934887941761602 -0.11150034388577512168 
0.00000000000000007538 0.83716981865430517562 -0.11016321855025743015 
-0.00000000000000007311 0.85324662246914340091 -0.10878841445594598925 
0.00000000000000004930 0.86875040168224204606 -0.10737868886246423883 
-0.00000000000000006231 0.88363747599749475903 -0.10593672965930822638 
0.00000000000000006033 0.89786037222270620450 -0.10446515566921862894 
0.00000000000000007192 0.91136855930785121149 -0.10296651690939431778 
0.00000000000000006394 0.92410933402334383135 -0.10144329481983116459 
0.00000000000000006026 0.93602880378664388150 -0.09989790246768531778 
0.00000000000000002374 0.94707291765280221529 -0.09833268473613814009 
-0.00000000000000001858 0.95718850241687392089 -0.09674991850577613350 
0.00000000000000008584 0.96632428407160464445 -0.09515181283601471807 
0.00000000000000003539 0.97443208373134571065 -0.09354050915358101681 
0.00000000000000005005 0.98146849806693603480 -0.09191808145454630208 
-0.00000000000000002460 0.98739688031551053893 -0.09028653652586142442 
0.00000000000000003468 0.99218927695298675395 -0.08864781419180740862 
-0.00000000000000001421 0.99582808968995117915 -0.08700378759022463215 
0.00000000000000000327 0.99830733292320794625 -0.08535626348285214882 
-0.00000000000000000887 0.99963342932357535098 -0.08370698260356404519 
0.00000000000000004934 0.99982553707713150981 -0.08205762004777446272 
0.00000000000000005941 0.99891543644463198781 -0.08040978570576966244 
0.00000000000000003588 0.99694702478710417459 -0.07876502474222403516 
0.00000000000000002995 0.99397548123052703595 -0.07712481812369077760 
0.00000000000000009236 0.99006616724471663282 -0.07549058319538752559 
0.00000000000000004826 0.98529332958092497030 -0.07386367430817337987 
0.00000000000000005611 0.97973866879578408451 -0.07224538349618395139 
-0.00000000000000001326 0.97348983117504739315 -0.07063694120521980813 
0.00000000000000010562 0.96663887516045665649 -0.06903951707159937390 
0.00000000000000004697 0.95928075604891371864 -0.06745422075085896751 
0.00000000000000002474 0.95151186526484954342 -0.06588210279536303726 
-0.00000000000000001763 0.94342865325098823615 -0.06432415557959353380 
0.00000000000000007831 0.93512635821473333309 -0.06278131427163022305 
-0.00000000000000004299 0.92669785675636018318 -0.06125445784908760405 
0.00000000000000009383 0.91823264687491856773 -0.05974441015756564582 
0.00000000000000004091 0.90981596903327821568 -0.05825194100947327785 
0.00000000000000016521 0.90152806686450437379 -0.05677776732092519596 
0.00000000000000009284 0.89344358569188819796 -0.05532255428426630789 
0.00000000000000007487 0.88563110427148938886 -0.05388691657365459603 
0.00000000000000006845 0.87815279299526893819 -0.05247141958103641174 
0.00000000000000003091 0.87106419015491076685 -0.05107658067977099980 
0.00000000000000002305 0.86441408669918928798 -0.04970287051309463244 
0.00000000000000006678 0.85824450915919581195 -0.04835071430458414560 
0.00000000000000003944 0.85259079000622739475 -0.04702049318774429582 
0.00000000000000013256 0.84748171459030929853 -0.04571254555184709606 
0.00000000000000009156 0.84293973393116738979 -0.04442716840115283616 
0.00000000000000011014 0.83898123295077908779 -0.04316461872466448302 
0.00000000000000000571 0.83561684420511339599 -0.04192511487361030853 
0.00000000000000005303 0.83285179775507023336 -0.04070883794388605037 
0.00000000000000004247 0.83068629848048369801 -0.03951593316075447532 
0.00000000000000002172 0.82911592285851598572 -0.03834651126316866721 
0.00000000000000003496 0.82813202797525165000 -0.03720064988515469490 
0.00000000000000014754 0.82772216629718331493 -0.03607839493178546103 
0.00000000000000008190 0.82787050048140431446 -0.03497976194736206190 
0.00000000000000007925 0.82855821323686018598 -0.03390587051972630134 
0.00000000000000004797 0.82976390795374022069 -0.03285575870573696072 
0.00000000000000016157 0.83146399648643398717 -0.03182907186793296206 
0.00000000000000009979 0.83363307110185580484 -0.03082572158967032336 
0.00000000000000007092 0.83624425818559777746 -0.02984559553350227268 
0.00000000000000011681 0.83926955183113627346 -0.02888855872853950471 
0.00000000000000007165 0.84268012592121588344 -0.02795445483586763910 
0.00000000000000001962 0.84644662374565937668 -0.02704310739054284485 
0.00000000000000005113 0.85053942458716103037 -0.02615432101880333163 
0.00000000000000006755 0.85492888704766778485 -0.02528788262925147842 
0.00000000000000011494 0.85958556918484407827 -0.02444356257687634038 
0.00000000000000009392 0.86448042578332717767 -0.02362111579889963203 
0.00000000000000011702 0.86958498330167688373 -0.02282028292154361648 
0.00000000000000011207 0.87487149321604973373 -0.02204079133692324333 
0.00000000000000025830 0.88031306462857594752 -0.02128235624937752438 
0.00000000000000005051 0.88588377712519683627 -0.02054468169065892802 
0.00000000000000015011 0.89155877495725921467 -0.01982717336531146859 
0.00000000000000006572 0.89731434368565066162 -0.01912869987657245252 
0.00000000000000014298 0.90312796326148125914 -0.01845011915491167123 
0.00000000000000007768 0.90897818206628744342 -0.01779109589225098126 
0.00000000000000013677 0.91484394450849704228 -0.01715128841734222045 
0.00000000000000002724 0.92070343815356214812 -0.01653034950685059942 
0.00000000000000017637 0.92653280225322220964 -0.01592792716431472300 
0.00000000000000016905 0.93230494582804068759 -0.01534366536708246451 
0.00000000000000012284 0.93798862104291025332 -0.01477720478139547822 
0.00000000000000010469 0.94354782366423994855 -0.01422818344586391538 
0.00000000000000016250 0.94894154061306135173 -0.01369623742362889932 
0.00000000000000013419 0.95412382982796328790 -0.01318100142357338765 
0.00000000000000013267 0.95904419567240173361 -0.01268210939099153299 
0.00000000000000024311 0.96364821066791572779 -0.01219919506817898625 
0.00000000000000012768 0.96787832881365198912 -0.01173189252545062816 
0.00000000000000012102 0.97167483513742636259 -0.01127983666313441512 
0.00000000000000016305 0.97497687884801931268 -0.01084266368512483251 
0.00000000000000012794 0.97772354232593339241 -0.01042001154461839885 
0.00000000000000023221 0.97985490432047983589 -0.01001152036267840065 
0.00000000000000025729 0.98131307909583798121 -0.00961683282030583071 
0.00000000000000023839 0.98204342213028883446 -0.00923559452471691897 
0.00000000000000013919 0.98199621384165891591 -0.00886745435054354762 
0.00000000000000010218 0.98112863872762279271 -0.00851206475669794363 
0.00000000000000019645 0.97940671620651631457 -0.00816908207964483699 
0.00000000000000023372 0.97680695387890414949 -0.00783816680384891509 
0.00000000000000007129 0.97331759426021546844 -0.00751898381016082376 
0.00000000000000017031 0.96893939844463639055 -0.00721120260292075922 
0.00000000000000001982 0.96368596086578561799 -0.00691449751655539430 
0.00000000000000020197 0.95758358334584825489 -0.00662854790244892401 
0.00000000000000007441 0.95067075799822475801 -0.00635303829686412799 
0.00000000000000023199 0.94299732047597251139 -0.00608765857069037877 
0.00000000000000005448 0.93462334007520697643 -0.00583210406178795090 
0.00000000000000022836 0.92561781329865921997 -0.00558607569068941649 
0.00000000000000012633 0.91605722420578528098 -0.00534928006041674158 
0.00000000000000009721 0.90602402941019455351 -0.00512142954115615660 
0.00000000000000016136 0.89560511883323190574 -0.00490224234052520982 
0.00000000000000008991 0.88489029595513124526 -0.00469144256015440950 
0.00000000000000010478 0.87397081381118890686 -0.00448876023928957736 
0.00000000000000013555 0.86293799570559381884 -0.00429393138611185339 
0.00000000000000014224 0.85188196279410877132 -0.00410669799744931008 
0.00000000000000025546 0.84089048446703584805 -0.00392680806754543317 
0.00000000000000024419 0.83004796192885788031 -0.00375401558653046990 
0.00000000000000013889 0.81943455055496872141 -0.00358808052921774472 
0.00000000000000008929 0.80912542250772157004 -0.00342876883484578366 
0.00000000000000014731 0.79919016768726613975 -0.00327585237834707036 
0.00000000000000011963 0.78969232833381897141 -0.00312910893372381768 
0.00000000000000021677 0.78068906043297392472 -0.00298832213008334673 
0.00000000000000010624 0.77223091344419958482 -0.00285328140086937203 
0.00000000000000022303 0.76436171871238034470 -0.00272378192680189282 
0.00000000000000010885 0.75711857617091760098 -0.00259962457303032331 
0.00000000000000015007 0.75053192854257710920 -0.00248061582097032713 
0.00000000000000022339 0.74462571213450035046 -0.00236656769529051438 
0.00000000000000016366 0.73941757345444736327 -0.00225729768648126258 
0.00000000000000008070 0.73491914119907264524 -0.00215262866943519799 
0.00000000000000010775 0.73113634363957025197 -0.00205238881843682443 
0.00000000000000025838 0.72806976201796769210 -0.00195641151894773236 
0.00000000000000018667 0.72571501123631265706 -0.00186453527655249408 
0.00000000000000013876 0.72406313984303227738 -0.00177660362341516874 
0.00000000000000020018 0.72310104207235825768 -0.00169246502257892071 
0.00000000000000009916 0.72281187545420888529 -0.00161197277041715014 
0.00000000000000019218 0.72317547826724026816 -0.00153498489754176149 
0.00000000000000016264 0.72416878184404642749 -0.00146277236672005579 
0.00000000000000012798 0.72576621344458969176 -0.00139371571407772383 
0.00000000000000008314 0.72794008608424842777 -0.00132769077481310698 
0.00000000000000013610 0.73066097233089877250 -0.00126457749562087682 
0.00000000000000014368 0.73389805966744625643 -0.00120425984228455922 
0.00000000000000012744 0.73761948555005030226 -0.00114662570670776834 
0.00000000000000006665 0.74179265077700662356 -0.00109156681359171026 
-0.00000000000000001267 0.74638451021901008886 -0.00103897862696531807 
0.00000000000000007527 0.75136184034923758635 -0.00098876025674221450 
0.00000000000000014368 0.75669148335303737518 -0.00094081436548604995 
0.00000000000000009472 0.76234056789403614740 -0.00089504707553980244 
0.00000000000000010076 0.76827670686872029382 -0.00085136787666613553 
0.00000000000000017297 0.77446817269770251713 -0.00080968953433927415 
0.00000000000000014389 0.78088405088186829683 -0.00076992799881165882 
0.00000000000000003303 0.78749437269837496700 -0.00073200231507118511 
0.00000000000000008283 0.79427022802802427215 -0.00069583453379688711 
0.00000000000000016374 0.80118385939481295832 -0.00066134962340607154 
0.00000000000000016427 0.80820873836267936863 -0.00062706708500580874 
0.00000000000000006717 0.81531961826939813864 -0.00059440412431932088 
0.00000000000000013456 0.82249240782625465673 -0.00056328973967773911 
0.00000000000000009598 0.82970349818560051869 -0.00053365572418154282 
0.00000000000000012967 0.83692860945878566614 -0.00050543657384637130 
0.00000000000000017878 0.84414149855473707973 -0.00047856939771873439 
0.00000000000000019005 0.85131277649788261730 -0.00045299382998708932 
0.00000000000000013201 0.85840898096942197526 -0.00042865194410346771 
0.00000000000000018707 0.86539197586474314594 -0.00040548816893040045 
0.00000000000000001212 0.87221869788509076571 -0.00038344920691885418 
0.00000000000000015008 0.87884123538108382956 -0.00036248395432294850 
0.00000000000000004719 0.88520720268612629322 -0.00034254342344541296 
0.00000000000000008673 0.89126036072459857706 -0.00032358066691427328 
0.00000000000000000978 0.89694142915843677599 -0.00030555070397944828 
0.00000000000000008376 0.90218903472041100944 -0.00028841044881657658 
0.00000000000000009991 0.90694074310676786599 -0.00027211864082430596 
0.00000000000000019302 0.91113412666933724093 -0.00025663577689806510 
0.00000000000000012415 0.91470782642878667446 -0.00024192404565762557 
0.00000000000000015646 0.91760260752521727312 -0.00022794726360744717 
0.00000000000000022788 0.91976266182517674164 -0.00021467081320428405 
0.00000000000000016496 0.92113739833309371541 -0.00020206158280598421 
0.00000000000000000680 0.92168345809870899643 -0.00019008790847084393 
0.00000000000000012245 0.92136662676702862917 -0.00017871951758112329 
-0.00000000000000007398 0.92016343724709581675 -0.00016792747425551318 
0.00000000000000019472 0.91806234931352037609 -0.00015768412652056801 
0.00000000000000003231 0.91506446070156211015 -0.00014796305520671114 
0.00000000000000014370 0.91118375138489227094 -0.00013873902453278629 
0.00000000000000014880 0.90644689404231337804 -0.00012998793434677562 
0.00000000000000006207 0.90089268307351511034 -0.00012168677398540623 
0.00000000000000017772 0.89457114497532541630 -0.00011381357771400701 
-0.00000000000000000595 0.88754239685627478451 -0.00010634738171456258 
0.00000000000000003911 0.87987531924225137470 -0.00009926818258060478 
0.00000000000000008588 0.87164610557850330519 -0.00009255689728378642 
0.00000000000000013095 0.86293674508943918333 -0.00008619532457480518 
0.00000000000000007908 0.85383348876893505608 -0.00008016610778058363 
0.00000000000000006462 0.84442534087220988415 -0.00007445269896091723 
0.00000000000000009098 0.83480261082423634633 -0.00006903932438780250 
0.00000000000000014880 0.82505555327126411935 -0.00006391095130989536 
0.00000000000000001871 0.81527311729743634494 -0.00005905325596531189 
0.00000000000000004167 0.80554181974236283015 -0.00005445259280805116 
0.00000000000000005017 0.79594475216075033508 -0.00005009596491038180 
0.00000000000000006547 0.78656072628879913911 -0.00004597099550690733 
0.00000000000000008673 0.77746355891767293667 -0.00004206590064417558 
0.00000000000000009098 0.76872149379209719910 -0.00003836946290263576 
0.00000000000000017091 0.76039675550649388214 -0.00003487100615714842 
0.00000000000000002381 0.75254522830670678157 -0.00003156037133926029 
0.00000000000000012585 0.74521625116177747650 -0.00002842789317577538 
0.00000000000000013563 0.73845251938513611911 -0.00002546437786150123 
0.00000000000000014966 0.73229008239629911348 -0.00002266108164532737 
0.00000000000000002764 0.72675842686361347145 -0.00002000969028920200 
0.00000000000000008057 0.72188063440022565143 -0.00001750229937785766 
-0.00000000000000001616 0.71767360314821204703 -0.00001513139544244385 
0.00000000000000003603 0.71414832293342800362 -0.00001288983787662468 
-0.00000000000000006202 0.71131019416485241624 -0.00001077084161123822 
0.00000000000000008386 0.70915938125071553699 -0.00000876796052226638 
0.00000000000000001424 0.70769119197798546761 -0.00000687507154599380 
0.00000000000000011373 0.70689647502487262809 -0.00000508635947512515 
0.00000000000000002593 0.70676202852512848285 -0.00000339630240957614 
0.00000000000000010799 0.70727101335912567759 -0.00000179965783782995 
0.00000000000000008078 0.70840336559459105015 -0.00000029144932649252 
-0.00000000000000006973 0.71013620322706427768 0.00000000000000010884 
-0.00000000000000002721 0.71244422306707522186 0.00000000000000005442 
-0.00000000000000000765 0.71530008428043356794 0.00000000000000021768 
0.00000000000000003656 0.71867477570476223647 0.00000000000000000000 
-0.00000000000000002636 0.72253796463601094313 0.00000000000000005442 
0.00000000000000004592 0.72685832530127003626 0.00000000000000005442 
0.00000000000000003401 0.73160384570797898363 0.00000000000000021768 
0.00000000000000002211 0.73674211198488315233 0.00000000000000010884 
-0.00000000000000002041 0.74224056970791452148 0.00000000000000005442 
-0.00000000000000005612 0.74806676203620159349 0.00000000000000005442 
-0.00000000000000002211 0.75418854477186358931 0.00000000000000010884 
0.00000000000000005272 0.76057427870459692887 0.00000000000000021768 
0.00000000000000001190 0.76719299981105815167 0.00000000000000010884 
0.00000000000000007483 0.77401456805260315797 0.00000000000000010884 
0.00000000000000005442 0.78100979565597894450 0.00000000000000010884 
0.00000000000000000340 0.78815055587307170093 0.00000000000000010884 
0.00000000000000004082 0.79540987330067891570 0.00000000000000010884 
-0.00000000000000005102 0.80276199688141958166 0.00000000000000016326 
0.00000000000000004422 0.81018244005805106767 0.00000000000000005442 
0.00000000000000001701 0.81764777049503489792 0.00000000000000010884 
0.00000000000000005782 0.82513481745946504198 0.00000000000000021768 
0.00000000000000001701 0.83261946510777617991 0.00000000000000010884 
0.00000000000000002381 0.84007536648478864372 0.00000000000000016326 
0.00000000000000002041 0.84747280338027664026 0.00000000000000005442 
0.00000000000000010884 0.85477782092381782153 0.00000000000000000000 
0.00000000000000009864 0.86195169675742033810 0.00000000000000016326 
0.00000000000000010204 0.86895075662586440668 0.00000000000000010884 
0.00000000000000010204 0.87572651629133357876 0.00000000000000000000 
0.00000000000000006803 0.88222610984435012593 0.00000000000000005442 
0.00000000000000001361 0.88839295360449177519 0.00000000000000016326 
0.00000000000000008843 0.89416759041080062786 0.00000000000000016326 
0.00000000000000011564 0.89948865926725551923 0.00000000000000016326 
-0.00000000000000000340 0.90429393854745132586 0.00000000000000021768 
0.00000000000000005102 0.90852141614272974302 0.00000000000000005442 
0.00000000000000001020 0.91211034620998532318 0.00000000000000010884 
-0.00000000000000001020 0.91500225891409425749 0.00000000000000000000 
-0.00000000000000003061 0.91714189631670073322 0.00000000000000016326 
0.00000000000000009183 0.91847805402723525781 0.00000000000000010884 
0.00000000000000010884 0.91896431419915292071 0.00000000000000000000 
-0.00000000000000000680 0.91855966080125883710 0.00000000000000021768 
0.00000000000000005782 0.91722897275836845488 0.00000000000000010884 
0.00000000000000001701 0.91494339451984407763 0.00000000000000016326 
0.00000000000000007483 0.91168058689326847421 0.00000000000000016326 
0.00000000000000002721 0.90742486361017526963 0.00000000000000005442 
0.00000000000000001020 0.90216722112225755659 0.00000000000000005442 
-0.00000000000000004762 0.89590527061905433914 0.00000000000000000000 
0.00000000000000002041 0.88864308227505739435 0.00000000000000000000 
-0.00000000000000003401 0.88039095233940189988 0.00000000000000016326 
0.00000000000000006803 0.87116510393703994186 0.00000000000000010884 
-0.00000000000000001361 0.86098733241552471984 0.00000000000000016326 
0.00000000000000002041 0.84988460580077207496 -0.00000000000000005442 
-0.00000000000000004762 0.83788863046802908308 0.00000000000000005442 
-0.00000000000000002041 0.82503539153500415892 0.00000000000000000000 
-0.00000000000000007483 0.81136467678161994233 0.00000000000000005442 
0.00000000000000008163 0.79691959212886553932 0.00000000000000021768 
-0.00000000000000006122 0.78174607589642586269 0.00000000000000005442 
0.00000000000000004082 0.76589241822929388093 0.00000000000000000000 
-0.00000000000000006803 0.74940879125723702803 0.00000000000000000000 
0.00000000000000004762 0.73234679474381492170 0.00000000000000010884 
-0.00000000000000003401 0.71475902120622047953 0.00000000000000000000 
0.00000000000000007483 0.69669864375309964455 0.00000000000000010884 
0.00000000000000003401 0.67821902920170129558 0.00000000000000010884 
-0.00000000000000003401 0.65937337840289955704 0.00000000000000005442 
0.00000000000000004082 0.64021439512568700803 0.00000000000000005442 
0.00000000000000006122 0.62079398433287480419 0.00000000000000021768 
-0.00000000000000012925 0.60116298021690961484 0.00000000000000010884 
-0.00000000000000010884 0.58137090395783597163 0.00000000000000016326 
-0.00000000000000001361 0.56146575081255734041 0.00000000000000021768 
-0.00000000000000008163 0.54149380584311479492 0.00000000000000010884 
0.00000000000000004762 0.52149948733871720474 0.00000000000000005442 
0.00000000000000001361 0.50152521677835482095 0.00000000000000005442 
-0.00000000000000004082 0.48161131401446605205 0.00000000000000005442 
0.00000000000000003401 0.46179591622970678211 0.00000000000000000000 
-0.00000000000000006122 0.44211491912468370291 0.00000000000000000000 
-0.00000000000000010204 0.42260193873100437845 0.00000000000000016326 
0.00000000000000002721 0.40328829220764272900 0.00000000000000010884 
-0.00000000000000000680 0.38420356896752072551 0.00000000000000000000 
0.00000000000000008163 0.36537472891318395485 0.00000000000000016326 
-0.00000000000000003401 0.34682536235965610860 0.00000000000000010884 
0.00000000000000000000 0.32857772510689087220 0.00000000000000010884 
0.00000000000000001361 0.31065190532726383310 0.00000000000000010884 
-0.00000000000000009524 0.29306588437092589983 0.00000000000000010884 
0.00000000000000000680 0.27583560566743786646 0.00000000000000000000 
-0.00000000000000000680 0.25897505040711560342 0.00000000000000016326 
-0.00000000000000010204 0.24249631876660751595 0.00000000000000016326 
-0.00000000000000007483 0.22640971552709837633 0.00000000000000016326 
0.00000000000000004082 0.21072383901890220925 0.00000000000000021768 
-0.00000000000000002721 0.19544567241188839923 0.00000000000000010884 
0.00000000000000004082 0.18058067645626332820 0.00000000000000005442 
0.00000000000000004082 0.16613288286181979170 0.00000000000000016326 
-0.00000000000000004082 0.15210498758521667773 0.00000000000000010884 
-0.00000000000000008163 0.13849844337357072876 0.00000000000000010884 
0.00000000000000000000 0.12531355098819355054 0.00000000000000010884 
0.00000000000000005442 0.11254954860430993469 0.00000000000000016326 
-0.00000000000000001361 0.10020469895080805212 0.00000000000064705478 
0.00000000000000002721 0.08827637381828393193 0.00000000721345382015 
0.00000000000000010884 0.07676113562375107280 0.00000020716500399750 
-0.00000000000000003401 0.06565481577631369914 0.00000166731366153231 
0.00000000000000004082 0.05495258963986134754 0.00000750841022441817 
0.00000000000000000680 0.04464904793643614811 0.00002420292732204334 
0.00000000000000004762 0.03473826447746624496 0.00006275356487299654 
0.00000000000000010204 0.02521386014960849339 0.00013960721612968973 
0.00000000000000003401 0.01606906311766560791 0.00027723368575081290 
0.00000000000000006803 0.00729676523905651089 0.00050435017637919725 
0.00000000000000013605 -0.00111042528718905071 0.00085580730699412195 
0.00000000000000002721 -0.00916013498881175330 0.00137217434921599519 
-0.00000000000000011564 -0.01686017983601737630 0.00209907376235562602 
0.00000000000000009524 -0.02421852351545437931 0.00308632056969134448 
0.00000000000000001361 -0.03124323915724664183 0.00438692267390599407 
0.00000000000000003401 -0.03794247439628066487 0.00605599542578133358 
0.00000000000000004762 -0.04432441963775654581 0.00814963883427553652 
0.00000000000000006122 -0.05039727938806177338 0.01072381963933523134 
0.00000000000000006803 -0.05616924650510141809 0.01383329372752731615 
0.00000000000000002041 -0.06164847921714896456 0.01753059753566758514 
-0.00000000000000001361 -0.06684308075591041676 0.02186513049493820499 
0.00000000000000007483 -0.07176108144763147789 0.02688234444114197957 
0.00000000000000000680 -0.07641042310558106287 0.03262305039350808789 
-0.00000000000000008163 -0.08079894556796779481 0.03912284825803150068 
0.00000000000000014285 -0.08493437522713070953 0.04641168086709512863 
0.00000000000000002041 -0.08882431539858141878 0.05451351031617625298 
0.00000000000000006803 -0.09247623838201167457 0.06344611176792365470 
0.00000000000000008163 -0.09589747907062519394 0.07322097771527641408 
0.00000000000000014966 -0.09909522996997958966 0.08384332407050268388 
0.00000000000000010884 -0.10207653749284195666 0.09531218831325209695 
0.00000000000000001361 -0.10484829940227402556 0.10762060922384046602 
0.00000000000000000000 -0.10741726328118604561 0.12075587738519093228 
0.00000000000000005442 -0.10979002591285237644 0.13469984559832576254 
-0.00000000000000001361 -0.11197303346330161888 0.14942928856642029301 
0.00000000000000006803 -0.11397258236300594758 0.16491630161049578018 
-0.00000000000000001361 -0.11579482079185071663 0.18112872874035521042 
0.00000000000000005442 -0.11744575067791128420 0.19803061107729227897 
0.00000000000000009524 -0.11893123012704437391 0.21558264737554030943 
0.00000000000000005442 -0.12025697620669557886 0.23374265918761380489 
0.00000000000000013605 -0.12142856801358017926 0.25246605403946598134 
0.00000000000000004082 -0.12245144996098145107 0.27170628080402559057 
0.00000000000000013605 -0.12333093522732180292 0.29141527226928731764 
0.00000000000000013605 -0.12407249745152912346 0.31154387067639999209 
0.00000000000000010884 -0.12468201407729448404 0.33204223274385680220 
0.00000000000000012245 -0.12516324448182952755 0.35286021138839396283 
0.00000000000000006803 -0.12552101704887699829 0.37394771199630710834 
0.00000000000000009524 -0.12576004671805990354 0.39525502168732523645 
-0.00000000000000001361 -0.12588493848810972109 0.41673311054532319320 
0.00000000000000013605 -0.12590019081811659740 0.43833390426573992649 
0.00000000000000009524 -0.12581019890697925367 0.46001052808943271311 
0.00000000000000009524 -0.12561925783483141039 0.48171752225856051544 
0.00000000000000000000 -0.12533156555356847472 0.50341102954431649064 
0.00000000000000010884 -0.12495122571666419931 0.52504895566181009059 
0.00000000000000005442 -0.12448225034129073441 0.54659110360737162004 
0.00000000000000006803 -0.12392856229830323533 0.56799928313144854020 
0.00000000000000005442 -0.12329399762797865758 0.58923739669969765753 
0.00000000000000016326 -0.12258230768146442802 0.61027150339942226598 
0.00000000000000002721 -0.12179716108975398303 0.63106986232177642027 
0.00000000000000008163 -0.12094214556363658275 0.65160295699561154859 
0.00000000000000001361 -0.12001991490386336447 0.67184350246984969601 
0.00000000000000002721 -0.11903424821812148837 0.69176643664100267994 
-0.00000000000000002721 -0.11798908159540939800 0.71134889474201556947 
0.00000000000000014966 -0.11688768980318464674 0.73057006530229429142 
0.00000000000000001361 -0.11573327357295980222 0.74941056144322948374 
0.00000000000000019047 -0.11452896051517295894 0.76785125909187001980 
0.00000000000000006803 -0.11327780591944651423 0.78587193572252100893 
0.00000000000000012245 -0.11198279345023483267 0.80344998181811067006 
-0.00000000000000005442 -0.11064683574804659583 0.82055934887941750500 
-0.00000000000000005442 -0.10927277494648840461 0.83716981865430517562 
0.00000000000000016326 -0.10786338311535872969 0.85324662246914362296 
0.00000000000000004082 -0.10642136263989691869 0.86875040168224226811 
-0.00000000000000002721 -0.10494934654610962865 0.88363747599749464801 
-0.00000000000000004082 -0.10344989878182891951 0.89786037222270620450 
0.00000000000000005442 -0.10192551446284285610 0.91136855930785121149 
0.00000000000000009524 -0.10037862009305990874 0.92410933402334383135 
0.00000000000000016326 -0.09881157376726081021 0.93602880378664388150 
0.00000000000000009524 -0.09722666536453342112 0.94707291765280232632 
0.00000000000000002721 -0.09562611674000677520 0.95718850256790488640 
0.00000000000000009524 -0.09401208192199525526 0.96632430249966938529 
0.00000000000000010884 -0.09238664732114214295 0.97443227266838217115 
0.00000000000000016326 -0.09075183195761657440 0.98146936809530638257 
0.00000000000000002721 -0.08910958771187733884 0.98739956183292065806 
0.00000000000000004082 -0.08746179960397658382 0.99219576482314031374 
0.00000000000000001361 -0.08581028610583293914 0.99584143879786535258 
-0.00000000000000004082 -0.08415679949037040142 0.99833178811535172592 
-0.00000000000000001361 -0.08250302622089507321 0.99967448431124550368 
0.00000000000000012245 -0.08085058738356556973 0.99988992440277135731 
0.00000000000000008843 -0.07920103916532109101 0.99901105542312007568 
0.00000000000000015646 -0.07755587337914211787 0.99708281712683077824 
-0.00000000000000002721 -0.07591651803806730159 0.99416126535604365522 
0.00000000000000004762 -0.07428433797893960189 0.99031244260924822242 
0.00000000000000002041 -0.07266063553644627748 0.98561106180247493036 
0.00000000000000006803 -0.07104665126761440519 0.98013906552736196343 
0.00000000000000004762 -0.06944356472656071366 0.97398411741818413656 
0.00000000000000009524 -0.06785249528894132798 0.96723807539306583259 
-0.00000000000000004762 -0.06627450302523463233 0.95999548916625843109 
0.00000000000000007483 -0.06471058962168878270 0.95235215699801478717 
0.00000000000000000000 -0.06316169934750251458 0.94440376947935411600 
0.00000000000000000000 -0.06162872006655443352 0.93624466145797369254 
0.00000000000000006122 -0.06011248429178920466 0.92796668713419427910 
0.00000000000000010884 -0.05861377028016219459 0.91965822796590768196 
0.00000000000000008843 -0.05713330316588212388 0.91140333834666720225 
0.00000000000000003401 -0.05567175612953650932 0.90328103005566451333 
0.00000000000000012245 -0.05422975160056670019 0.89536469319305200809 
0.00000000000000006122 -0.05280786249044809588 0.88772164866385283588 
-0.00000000000000000680 -0.05140661345385664355 0.88041282520366781483 
0.00000000000000000680 -0.05002648217502773248 0.87349255238936718282 
0.00000000000000014285 -0.04866790067648463919 0.86700845998595621467 
0.00000000000000013605 -0.04733125664727019094 0.86100147328542853131 
0.00000000000000006122 -0.04601689478781845893 0.85550589373575003371 
0.00000000000000010884 -0.04472511816859935097 0.85054955408276355922 
-0.00000000000000002041 -0.04345618959969530654 0.84615403740385553011 
0.00000000000000009524 -0.04221033300849532516 0.84233494975346656641 
0.00000000000000003401 -0.04098773482274415542 0.83910223662581029380 
0.00000000000000004762 -0.03978854535623269073 0.83646053403316722452 
-0.00000000000000008163 -0.03861288019449159864 0.83440954566740577203 
0.00000000000000014966 -0.03746082157791389561 0.83294443833094122809 
-0.00000000000000003401 -0.03633241977982906712 0.83205624856841708947 
0.00000000000000004762 -0.03522769447712856966 0.83173229418304528426 
0.00000000000000001361 -0.03414720911259762348 0.83195658506631575690 
0.00000000000000012925 -0.03309115667208759048 0.83271022849430065271 
-0.00000000000000004762 -0.03205859307324694651 0.83397182473840936190 
-0.00000000000000002721 -0.03104943320634645162 0.83571784949595051550 
-0.00000000000000006122 -0.03006356781793036864 0.83792302026098464118 
-0.00000000000000003401 -0.02910086480257598543 0.84056064432530852581 
-0.00000000000000000680 -0.02816117047293735173 0.84360294662095736129 
0.00000000000000008163 -0.02724431080657607404 0.84702137608862759777 
-0.00000000000000008163 -0.02635009266819865470 0.85078688968111548796 
0.00000000000000016326 -0.02547830500603665699 0.85487021348830249945 
-0.00000000000000001361 -0.02462872002122219739 0.85924208080201491811 
0.00000000000000010884 -0.02380109430912294086 0.86387344722744852099 
-0.00000000000000006803 -0.02299516997171631785 0.86873568319518013059 
-0.00000000000000004082 -0.02221067570019157056 0.87380074443691169161 
0.00000000000000002721 -0.02144732782707299903 0.87904132116178057554 
0.00000000000000000000 -0.02070483134726813779 0.88443096681134525383 
0.00000000000000010884 -0.01998288090754121032 0.88994420738310209273 
0.00000000000000005442 -0.01928030713838224663 0.89555663239755667338 
0.00000000000000001361 -0.01859713531844610357 0.90124496862429481769 
0.00000000000000008163 -0.01793361661478587443 0.90698712103399348194 
0.00000000000000005442 -0.01728940945609541702 0.91276196338517623374 
0.00000000000000009524 -0.01666416659584494045 0.91854854653310291646 
0.00000000000000010884 -0.01605753589686753288 0.92432489270279016846 
0.00000000000000017687 -0.01546916108388734536 0.93006671052858569393 
-0.00000000000000002721 -0.01489868246415233799 0.93574625600161021044 
0.00000000000000010884 -0.01434573761639731763 0.94133146820221857975 
0.00000000000000009524 -0.01380996204842828076 0.94678543965359518442 
0.00000000000000006803 -0.01329098982367844795 0.95206623313326532720 
-0.00000000000000008843 -0.01278845415713766864 0.95712702484612244280 
0.00000000000000008843 -0.01230198798110809268 0.96191653402820820329 
-0.00000000000000004762 -0.01183122448128826922 0.96637968817208441674 
-0.00000000000000002041 -0.01137579760372283387 0.97045846867122220747 
-0.00000000000000010204 -0.01093534253320119914 0.97409288184641507069 
-0.00000000000000001361 -0.01050949614371760564 0.97722200355609756262 
-0.00000000000000014285 -0.01009789742163698552 0.97978505077265121148 
0.00000000000000006122 -0.00970018786223981848 0.98172244057465463118 
-0.00000000000000005442 -0.00931601184034087752 0.98297686521212623845 
0.00000000000000004082 -0.00894501695569887255 0.98349469180342186103 
0.00000000000000001361 -0.00858685435395003561 0.98322782999074487265 
0.00000000000000012925 -0.00824117902381433370 0.98213575051416057704 
0.00000000000000011564 -0.00790765007133297296 0.98018735085699260079 
0.00000000000000002041 -0.00758593097190645924 0.97736248176294504564 
-0.00000000000000002041 -0.00727568980090682275 0.97365303690384519264 
0.00000000000000000000 -0.00697659944364103276 0.96906357116302266341 
-0.00000000000000002721 -0.00668833778544797568 0.96361145661446423460 
0.00000000000000004762 -0.00641058788270371886 0.95732661392218743046 
-0.00000000000000001361 -0.00614303811551508618 0.95025087423535292697 
0.00000000000000010204 -0.00588538232286776875 0.94243703563409697566 
0.00000000000000008163 -0.00563731992099792637 0.93394768109265213774 
0.00000000000000002041 -0.00539855600574179386 0.92485382357144596543 
0.00000000000000006803 -0.00516880143961127511 0.91523343962273495666 
0.00000000000000002721 -0.00494777292432912325 0.90516994686127616454 
0.00000000000000004762 -0.00473519305955235562 0.89475067361585858272 
0.00000000000000012245 -0.00453079038848957540 0.88406536163320781352 
0.00000000000000001361 -0.00433429943111318140 0.87320473528129016749 
0.00000000000000006803 -0.00414546070564353157 0.86225916359308862891 
-0.00000000000000013605 -0.00396402073897364916 0.85131743490251876594 
0.00000000000000007483 -0.00378973206668207011 0.84046565787217508703 
0.00000000000000006122 -0.00362235322326398979 0.82978629746061183248 
0.00000000000000000000 -0.00346164872319600298 0.81935734984428487682 
-0.00000000000000002381 -0.00330738903343001612 0.80925165648430497090 
0.00000000000000000000 -0.00315935053789048086 0.79953635437730241620 
0.00000000000000002721 -0.00301731549453785036 0.79027245700495674097 
0.00000000000000003741 -0.00288107198553174673 0.78151455854152218627 
-0.00000000000000008503 -0.00275041386101939527 0.77331065243179208935 
0.00000000000000007483 -0.00262514067704591519 0.76570205445110561815 
-0.00000000000000013265 -0.00250505762807037543 0.75872341974292356603 
-0.00000000000000001020 -0.00238997547455128490 0.75240284303971216584 
-0.00000000000000002721 -0.00227971046604121810 0.74676203125469564625 
0.00000000000000006462 -0.00217408426022024830 0.74181653783533096913 
-0.00000000000000009183 -0.00207292383827140363 0.73757604864886472384 
0.00000000000000005102 -0.00197606141698596256 0.73404470968578106049 
-0.00000000000000012755 -0.00188333435797082590 0.73122148748300996868 
0.00000000000000015476 -0.00179458507430543075 0.72910055385486116641 
0.00000000000000001020 -0.00170966093498813379 0.72767168724965669568 
0.00000000000000018707 -0.00162841416748362128 0.72692068380199081901 
0.00000000000000000595 -0.00155070175867703572 0.72682977190625697173 
0.00000000000000002211 -0.00147695835595900143 0.72737802488174851945 
-0.00000000000000008758 -0.00140728059405105478 0.72854176702149797684 
0.00000000000000005612 -0.00134065904661683898 0.73029496900698076534 
0.00000000000000006888 -0.00127697284542230955 0.73260962932205231368 
0.00000000000000003359 -0.00121610515985644263 0.73545613890725425321 
0.00000000000000001658 -0.00115794310405546415 0.73880362685676992385 
0.00000000000000003061 -0.00110237764363724255 0.74262028547318570393 
0.00000000000000004762 -0.00104930350224375734 0.74687367345925659290 
0.00000000000000014434 -0.00099861906807943062 0.75153099644158471992 
-0.00000000000000001403 -0.00095022630062185790 0.75655936438963811153 
0.00000000000000017421 -0.00090403063766495491 0.76192602581671209361 
0.00000000000000000282 -0.00085994090284677749 0.76759857892947191971 
0.00000000000000014498 -0.00081786921380070569 0.77354516013220075976 
-0.00000000000000006303 -0.00077773089105700609 0.77973461049358061548 
0.00000000000000000000 -0.00073944436781319116 0.78613662095066771940 
-0.00000000000000000170 -0.00070293110068260641 0.79272185715964782471 
0.00000000000000000383 -0.00066811548151573272 0.79946206500892014191 
-0.00000000000000005612 -0.00063379170417745666 0.80633015788998041451 
0.00000000000000006037 -0.00060081059915308567 0.81330028670625231779 
0.00000000000000002253 -0.00056939204395185089 0.82034785972749491023 
0.00000000000000006250 -0.00053946728013166978 0.82744923159419658809 
-0.00000000000000003189 -0.00051097027037928138 0.83458080039155857488 
-0.00000000000000001998 -0.00048383760823028605 0.84171776173646695174 
-0.00000000000000000425 -0.00045800842977948824 0.84883283782088414515 
-0.00000000000000000850 -0.00043342432739915175 0.85589518479677428875 
-0.00000000000000001105 -0.00041002926548073040 0.86286959161419118924 
0.00000000000000017772 -0.00038776949820592920 0.86971601904477824352 
-0.00000000000000009524 -0.00036659348935290267 0.87638948319946896603 
0.00000000000000000510 -0.00034645183413761516 0.88284025862415360653 
-0.00000000000000008928 -0.00032729718308409188 0.88901435824163366206 
0.00000000000000011564 -0.00030908416791741066 0.89485423800521712856 
-0.00000000000000002891 -0.00029176932946762879 0.90029967078615125153 
0.00000000000000006547 -0.00027531104757004212 0.90528873490360839416 
-0.00000000000000009949 -0.00025966947294467070 0.90975886641357295304 
0.00000000000000002636 -0.00024480646103522099 0.91364792975238307005 
-0.00000000000000000425 -0.00023068550778439947 0.91689528442858370116 
0.00000000000000010544 -0.00021727168732236425 0.91944303430993501447 
-0.00000000000000011054 -0.00020453159154156111 0.92123776709882498892 
0.00000000000000000595 -0.00019243327152817925 0.92223259780470834279 
0.00000000000000002721 -0.00018094618082364588 0.92238916929250813759 
0.00000000000000011054 -0.00017004112048131495 0.92167937783094044946 
-0.00000000000000009864 -0.00015969018588956233 0.92008669231550688217 
0.00000000000000016411 -0.00014986671532418413 0.91760700866262967512 
-0.00000000000000007738 -0.00014054524019981935 0.91424903196651996495 
0.00000000000000004592 -0.00013170143698144828 0.91003421339565349069 
-0.00000000000000005442 -0.00012331208072264690 0.90499629050260776975 
0.00000000000000000595 -0.00011535500019294146 0.89918049183368020660 
0.00000000000000001531 -0.00010780903455910830 0.89264247198864610233 
0.00000000000000002041 -0.00010065399158163920 0.88544704358670500710 
-0.00000000000000006717 -0.00009387060728983777 0.87766676949009669872 
0.00000000000000003231 -0.00008744050709886107 0.86938047331274859175 
-0.00000000000000004167 -0.00008134616833095908 0.86067171960108701523 
0.00000000000000009013 -0.00007557088410277058 0.85162730779189521613 
-0.00000000000000006973 -0.00007009872854337705 0.84233581661991330236 
-0.00000000000000000510 -0.00006491452330433362 0.83288622841462656154 
0.00000000000000011989 -0.00006000380532605216 0.82336665592856894680 
-0.00000000000000002381 -0.00005535279582447995 0.81386318812956948143 
0.00000000000000001020 -0.00005094837046038452 0.80445886585228487675 
0.00000000000000007058 -0.00004677803065938186 0.79523279337672292399 
-0.00000000000000002891 -0.00004282987604128379 0.78625938788408966662 
0.00000000000000012330 -0.00003909257793164668 0.77760776530856723365 
-0.00000000000000011054 -0.00003555535391703265 0.76934125831568966891 
0.00000000000000009524 -0.00003220794340980415 0.76151705994096885455 
-0.00000000000000002381 -0.00002904058419264659 0.75418598475731202235 
-0.00000000000000006888 -0.00002604398990918084 0.74739233824508000126 
0.00000000000000005697 -0.00002320932846789088 0.74117388425291297338 
0.00000000000000012330 -0.00002052820133060908 0.73556190000143351071 
0.00000000000000003741 -0.00001799262365266901 0.73058130793960640581 
-0.00000000000000001105 -0.00001559500524780815 0.72625087386318198934 
-0.00000000000000000850 -0.00001332813234743379 0.72258346099919557037 
0.00000000000000011649 -0.00001118515012507610 0.71958633020783013823 
0.00000000000000016071 -0.00000915954596049850 0.71726147701585596383 
0.00000000000000001786 -0.00000724513341602412 0.71560599684192471859 
0.00000000000000007398 -0.00000543603689766414 0.71461247047538645205 
0.00000000000000010884 -0.00000372667697683791 0.71426936260337203777 
0.00000000000000001871 -0.00000211175634876043 0.71456142692598667576 
0.00000000000000012755 -0.00000058624640050478 0.71547011214038525040 
0.00000000000000000935 0.00000000000000001361 0.71697396379828493007 
0.00000000000000004507 -0.00000000000000001361 0.71904901773787677222 
0.00000000000000001233 -0.00000000000000005442 0.72166918145239111748 
-0.00000000000000009736 -0.00000000000000000680 0.72480660037810629159 
-0.00000000000000003231 -0.00000000000000002721 0.72843200666050655911 
0.00000000000000004592 -0.00000000000000005442 0.73251504848632020828 
-0.00000000000000008035 -0.00000000000000007483 0.73702459855021329460 
0.00000000000000012967 0.00000000000000004082 0.74192904065803488844 
-0.00000000000000003146 -0.00000000000000003401 0.74719653385448425720 
0.00000000000000001701 0.00000000000000008163 0.75279525380345879704 
0.00000000000000015306 -0.00000000000000003401 0.75869361144611247028 
-0.00000000000000002126 -0.00000000000000001361 0.76486044921721807466 
-0.00000000000000000468 0.00000000000000000000 0.77126521531740743765 
0.00000000000000004889 -0.00000000000000008843 0.77787811672010021002 
-0.00000000000000003741 -0.00000000000000010884 0.78467025174028848244 
0.00000000000000014753 -0.00000000000000002721 0.79161372311077382591 
-0.00000000000000003614 0.00000000000000002721 0.79868173260280661552 
0.00000000000000007398 -0.00000000000000000680 0.80584865829456120423 
-0.00000000000000005314 -0.00000000000000010204 0.81309010842816020759 
0.00000000000000004677 -0.00000000000000006122 0.82038279634709687649 
-0.00000000000000015858 0.00000000000000009524 0.82770386908185389352 
0.00000000000000000043 0.00000000000000007483 0.83502975553440095258 
0.00000000000000003954 -0.00000000000000005442 0.84233487610249413446 
0.00000000000000006165 0.00000000000000002721 0.84959046187558051599 
-0.00000000000000001190 0.00000000000000003401 0.85676362912176129427 
0.00000000000000010927 -0.00000000000000006803 0.86381678083639101828 
0.00000000000000008206 -0.00000000000000003401 0.87070735535038834563 
0.00000000000000005740 0.00000000000000007483 0.87738790719795800577 
0.00000000000000002423 0.00000000000000008503 0.88380648346587720177 
0.00000000000000017028 0.00000000000000000680 0.88990724639525076167 
-0.00000000000000001361 -0.00000000000000002381 0.89563128748715314931 
-0.00000000000000002997 -0.00000000000000003061 0.90091757774996450436 
-0.00000000000000004337 -0.00000000000000004762 0.90570400145211826803 
0.00000000000000004188 -0.00000000000000007823 0.90992842561288433956 
0.00000000000000013031 -0.00000000000000004762 0.91352976357475002001 
-0.00000000000000005463 0.00000000000000001701 0.91644899768809129359 
-0.00000000000000000829 0.00000000000000011224 0.91863013292153761213 
-0.00000000000000005931 -0.00000000000000002381 0.92002105975414294470 
-0.00000000000000001934 0.00000000000000005102 0.92057431078473872521 
0.00000000000000004932 0.00000000000000004082 0.92024770097201880059 
-0.00000000000000011160 0.00000000000000008843 0.91900484622289158043 
-0.00000000000000006207 0.00000000000000011224 0.91681555915112233901 
0.00000000000000002402 0.00000000000000001701 0.91365612424213249465 
-0.00000000000000002955 0.00000000000000000000 0.90950945741595456973 
-0.00000000000000004422 0.00000000000000003401 0.90436515712719156568 
0.00000000000000012393 0.00000000000000000340 0.89821945573646122529 
-0.00000000000000005113 -0.00000000000000004422 0.89107508099494692200 
0.00000000000000004358 0.00000000000000003401 0.88294103816633950910 
-0.00000000000000004539 0.00000000000000004082 0.87383232363138685361 
0.00000000000000006919 -0.00000000000000000680 0.86376958083917221298 
-0.00000000000000000393 -0.00000000000000005782 0.85277870924162502142 
0.00000000000000006771 -0.00000000000000000340 0.84089043642423177971 
-0.00000000000000010842 0.00000000000000005102 0.82813986307180820212 
0.00000000000000003965 -0.00000000000000006122 0.81456598972348270848 
0.00000000000000002806 0.00000000000000004422 0.80021123351048195627 
0.00000000000000004740 0.00000000000000014285 0.78512094226357131976 
-0.00000000000000002083 0.00000000000000008163 0.76934291254908804270 
-0.00000000000000001297 -0.00000000000000003401 0.75292691736410188863 
0.00000000000000018718 0.00000000000000008503 0.73592424840902348482 
0.00000000000000011660 0.00000000000000002381 0.71838727707328919880 
-0.00000000000000005782 0.00000000000000013265 0.70036903752663226541 
0.00000000000000007100 0.00000000000000011224 0.68192283461244851406 
0.00000000000000002657 0.00000000000000007823 0.66310187859597424787 
0.00000000000000004815 -0.00000000000000012585 0.64395894823162558307 
-0.00000000000000015173 0.00000000000000008163 0.62454608308242232084 
0.00000000000000005756 -0.00000000000000003061 0.60491430555015290871 
0.00000000000000006717 -0.00000000000000002381 0.58511337265686447218 
0.00000000000000001228 0.00000000000000007823 0.56519155725468606111 
-0.00000000000000003337 0.00000000000000020748 0.54519545802937408041 
0.00000000000000008918 0.00000000000000002721 0.52516983740045874995 
0.00000000000000006728 0.00000000000000005442 0.50515748620411504710 
0.00000000000000007089 -0.00000000000000005442 0.48519911387041120276 
0.00000000000000002275 0.00000000000000011564 0.46533326267075808547 
-0.00000000000000001435 0.00000000000000000000 0.44559624451055845906 
0.00000000000000001865 0.00000000000000000680 0.42602209867258955533 
-0.00000000000000007552 -0.00000000000000002041 0.40664256887506688987 
-0.00000000000000002322 0.00000000000000016666 0.38748709799119274155 
0.00000000000000009624 0.00000000000000000680 0.36858341178257825188 
0.00000000000000003616 0.00000000000000000000 0.34995662844517527734 
-0.00000000000000004786 -0.00000000000000001701 0.33162852857760349856 
-0.00000000000000006691 0.00000000000000010884 0.31361959907608527587 
0.00000000000000008973 0.00000000000000004422 0.29594820767133228623 
0.00000000000000006646 0.00000000000000005442 0.27863067026651450186 
-0.00000000000000002455 -0.00000000000000005102 0.26168132531591314915 
-0.00000000000000016310 0.00000000000000013945 0.24511261399237807557 
-0.00000000000000006702 0.00000000000000004082 0.22893516497509822094 
0.00000000000000001897 0.00000000000000001361 0.21315788277430999798 
-0.00000000000000003380 0.00000000000000007823 0.19778803859524921038 
-0.00000000000000010092 0.00000000000000006462 0.18283136282887191282 
-0.00000000000000022571 0.00000000000000002721 0.16829213834080619661 
0.00000000000000008138 0.00000000000000004082 0.15417329381188124571 
-0.00000000000000008020 0.00000000000000004422 0.14047649646288210001 
-0.00000000000000017265 -0.00000000000000000340 0.12720224357235773716 
-0.00000000000000002097 -0.00000000000000001701 0.11434995226904971777 
0.00000000002093744190 0.00000000000000008503 0.10191804714946972599 
0.00000001685631407290 0.00000000000000002041 0.08990404533617922522 
0.00000033634416403073 -0.00000000000000005102 0.07830463865324455153 
0.00000233427611429359 0.00000000000000003401 0.06711577265211172982 
0.00000969889749950287 0.00000000000000002891 0.05633272227371595442 
0.00002972137212702203 -0.00000000000000005952 0.04595016398108429934 
0.00007443021656800778 0.00000000000000004932 0.03596224424101256145 
0.00016144193508548527 0.00000000000000009013 0.02636264427375605360 
0.00031446908284992072 0.00000000000000003231 0.01714464102613865587 
0.00056347493480094781 -0.00000000000000001531 0.00830116435624571845 
0.00094449581718029831 0.00000000000000009353 -0.00017514955295841621 
0.00149917193687755892 -0.00000000000000006803 -0.00829190850794449610 
0.00227403836405616665 -0.00000000000000007653 -0.01605691828113869207 
0.00331963215799345370 0.00000000000000003911 -0.02347814016435732440 
0.00468947140132221739 0.00000000000000001361 -0.03056365199712713851 
0.00643895861026368317 -0.00000000000000004082 -0.03732161255376487130 
0.00862425575052609694 -0.00000000000000003231 -0.04376022916143246927 
0.01130117176015173891 0.00000000000000005952 -0.04988772841198901853 
0.01452409668729541352 0.00000000000000008503 -0.05571232982313614052 
0.01834500974161514669 0.00000000000000006973 -0.06124222229891661956 
0.02281258204362913641 0.00000000000000003741 -0.06648554323591814030 
0.02797138884160181235 -0.00000000000000005952 -0.07145036011937078158 
0.03386124057353274291 0.00000000000000017006 -0.07614465445256436704 
0.04051663744507815607 0.00000000000000005612 -0.08057630786348540797 
0.04796634819026052848 -0.00000000000000007483 -0.08475309023415712739 
0.05623311036620665809 0.00000000000000007313 -0.08868264970069934805 
0.06533344686927866629 0.00000000000000014625 -0.09237250437551888793 
0.07527759129697197960 0.00000000000000001531 -0.09583003564712783140 
0.08606951325847174428 0.00000000000000000170 -0.09906248291781222237 
0.09770703369347660816 0.00000000000000010374 -0.10207693964458114388 
0.11018201962978917130 0.00000000000000006462 -0.10488035055446859323 
0.12348064753289682283 0.00000000000000004592 -0.10747950991121354991 
0.13758372441626168237 0.00000000000000005952 -0.10988106071655644180 
0.15246705613464739404 -0.00000000000000005272 -0.11209149473577151301 
0.16810185272481822927 0.00000000000000002721 -0.11411715324354909651 
0.18445516124400920810 -0.00000000000000005442 -0.11596422839288905715 
0.20149031724759508544 0.00000000000000013435 -0.11763876511621117193 
0.21916740680962579213 0.00000000000000004082 -0.11914666347438009064 
0.23744373179443942212 0.00000000000000004762 -0.12049368137575977578 
0.25627427191025775599 0.00000000000000008758 -0.12168543759368179169 
0.27561213789652055928 -0.00000000000000004592 -0.12272741501684585053 
0.29540901099962840748 -0.00000000000000005017 -0.12362496407310291646 
0.31561556466403395405 0.00000000000000006973 -0.12438330627281120322 
0.33618186509758052338 0.00000000000000005527 -0.12500782596163953486 
0.35705774805455503529 -0.00000000000000006037 -0.12550431368906847518 
0.37819316981230027830 -0.00000000000000001020 -0.12587644433214775774 
0.39953853089448448932 0.00000000000000015646 -0.12612896413800084305 
0.42104497161493531499 0.00000000000000005782 -0.12626650822068632984 
0.44266463898029384527 0.00000000000000009183 -0.12629360399325564868 
0.46435092489864793208 0.00000000000000013775 -0.12621467448223747110 
0.48605867599661983780 0.00000000000000003146 -0.12603404150759067726 
0.50774437565163266228 0.00000000000000007568 -0.12575592871454954746 
0.52936629910217880557 0.00000000000000006717 -0.12538446444692347148 
0.55088464271019554896 -0.00000000000000005272 -0.12492368445426831058 
0.57226162861956952899 0.00000000000000010969 -0.12437753442796602166 
0.59346158618695055154 0.00000000000000002466 -0.12374987236360757148 
0.61445101165907678453 -0.00000000000000000680 -0.12304447074920413230 
0.63519860763823365879 0.00000000000000003911 -0.12226501858064417472 
0.65567530391777584242 0.00000000000000000595 -0.12141512320749957288 
0.67585426128614922714 0.00000000000000003741 -0.12049831201374430756 
0.69571085989304670694 0.00000000000000005017 -0.11951690089302267894 
0.71522266654121946505 0.00000000000000012159 -0.11847518253818101197 
0.73436922575518359668 0.00000000000000003189 -0.11737674016080187900 
0.75313130749474721526 0.00000000000000003444 -0.11622479098007595932 
0.77148967770907528330 -0.00000000000000000808 -0.11502247862356805574 
0.78942373376634233928 0.00000000000000003019 -0.11377287396203665526 
0.80691025303809904567 0.00000000000000008716 -0.11247897583755867013 
0.82392240046244458185 0.00000000000000006590 -0.11114371169509192072 
0.84042906692239394140 -0.00000000000000002211 -0.10976993812769322845 
0.85639455846841483488 0.00000000000000015433 -0.10836044134560855745 
0.87177862158439500817 0.00000000000000011777 -0.10691793757935247333 
0.88653676769098155308 -0.00000000000000000659 -0.10544507342671921579 
0.90062084760448712917 0.00000000000000001679 -0.10394442615342397440 
0.91397982112873754623 0.00000000000000001488 -0.10241850395676055374 
0.92656066632520739379 0.00000000000000007844 -0.10086974620130957636 
0.93830937571708106226 0.00000000000000003401 -0.09930052363531381709 
0.94917199153864917349 -0.00000000000000006749 -0.09771313859590390061 
0.95909563826265720188 0.00000000000000005761 -0.09610982521087613195 
0.96802953400559144104 0.00000000000000007618 -0.09449274960422708591 
0.97592617126698533170 0.00000000000000012183 -0.09286401011213099577 
0.98274297832391033225 0.00000000000000007998 -0.09122563751551687750 
0.98844427851523930517 0.00000000000000008195 -0.08957959529485864936 
0.99300320354648774490 0.00000000000000014285 -0.08792777991225864120 
0.99640333138109016264 0.00000000000000014009 -0.08627202112535541090 
0.99863991961559817057 0.00000000000000008376 -0.08461408233705899895 
0.99972067764869798623 0.00000000000000003826 -0.08295566098458515003 
0.99966607166265608608 0.00000000000000024043 -0.08129838897074989634 
0.99850919046602770734 0.00000000000000008588 -0.07964383313998077418 
0.99629522162456529699 0.00000000000000010416 -0.07799349580102374335 
0.99308059923967906268 0.00000000000000023915 -0.07634881529785135512 
0.98893188975631718396 0.00000000000000014030 -0.07471116662984633727 
0.98392448228410911426 0.00000000000000004932 -0.07308186212189800302 
0.97814114664300344515 0.00000000000000006632 -0.07146215214466401788 
0.97167051688537042775 0.00000000000000011989 -0.06985322588486538031 
0.96460555130107661359 0.00000000000000011649 -0.06825621216513770573 
0.95704201255114285107 0.00000000000000015348 -0.06667218031263442979 
0.94907700408814488213 0.00000000000000012840 -0.06510214107528046468 
0.94080759175316819309 0.00000000000000020620 -0.06354704758429824407 
0.93232953262405648953 0.00000000000000011437 -0.06200779636137958295 
0.92373612697617646372 0.00000000000000006845 -0.06048522836865515007 
0.91511720368796301006 0.00000000000000016241 -0.05898013009941126955 
0.90655824461342193743 0.00000000000000023171 -0.05749323470732881775 
0.89813964935127521549 0.00000000000000010289 -0.05602522317186794942 
0.88993613843912056094 0.00000000000000010714 -0.05457672549729271350 
0.88201629024738181784 0.00000000000000014540 -0.05314832194272076787 
0.87444220468772526633 0.00000000000000011649 -0.05174054428049643106 
0.86726928522386870224 0.00000000000000015221 -0.05035387708011970082 
0.86054612951683673305 0.00000000000000014625 -0.04898875901491540202 
0.85431451828951832095 0.00000000000000010544 -0.04764558418859374950 
0.84860949159694032407 0.00000000000000014710 -0.04632470347884303646 
0.84345950158250038164 0.00000000000000017091 -0.04502642589509653348 
0.83888663093436599549 0.00000000000000005357 -0.04375101994763084395 
0.83490686658307800005 0.00000000000000008928 -0.04249871502518558219 
0.83153041865869159466 -0.00000000000000002211 -0.04126970277833446471 
0.82876207531631473913 0.00000000000000008418 -0.04006413850589363168 
0.82660158471014599790 0.00000000000000012330 -0.03888214254171718648 
0.82504405612021958216 0.00000000000000014285 -0.03772380163930273700 
0.82408037298952030447 0.00000000000000003316 -0.03658917035171213583 
0.82369761139223030000 0.00000000000000026275 -0.03547827240440237784 
0.82387945821061403517 0.00000000000000006803 -0.03439110205865467118 
0.82460662403552342781 0.00000000000000010714 -0.03332848008902741799 
0.82585724651362568682 0.00000000000000008673 -0.03228999738224307831 
0.82760728053563237250 0.00000000000000007313 -0.03127498591208571072 
0.82983087228851060146 0.00000000000000010034 -0.03028333953107580426 
0.83250071477720999358 0.00000000000000002041 -0.02931492902023538974 
0.83558838295565673882 0.00000000000000025169 -0.02836960336376193048 
