2.213611 2.213611 2.213611 2.213611 2.213611 2.213611 2.213611 2.213611 2.213611 2.213611 3.180309 3.179514 3.178719 3.177924 3.178190 3.177395 3.176601 3.175807 3.175013 3.174219 3.173425 3.172632 3.171899 3.171106 3.170322 3.169530 3.168737 3.175643 3.174849 3.174067 3.173273 3.172935 3.172142 3.172066 3.171339 3.170546 3.169754 3.169716 3.168924 3.168134 3.167346 3.168734 3.169917 3.169896 3.169103 3.168315 3.167523 3.167394 3.168794 3.168081 3.185403 3.184607 3.185694 3.185174 3.184377 3.186563 3.186685 3.185888 3.194947 3.200265 3.199465 3.198667 3.197867 3.197068 3.197102 3.196303 3.195504 3.196105 3.195306 3.194728 3.194682 3.193883 3.193087 3.192773 3.191975 3.192038 3.193086 3.192302 3.191736 3.193088 3.192290 3.191608 3.194310 3.193513 3.192753 3.194275 3.194892 3.196987 3.198371 3.197571 3.199949 3.199310 3.198915 3.198117 3.213848 3.213242 3.213898 3.213097 3.212295 3.212390 3.211688 3.210886 3.210349 3.209546 3.208744 3.214751 3.213947 3.221693 3.220888 3.220083 3.219439 3.218698 3.229837 3.229106 3.228326 3.227520 3.226748 3.229257 3.228822 3.231482 3.231958 3.231334 3.230528 3.230421 3.229625 3.229011 3.228671 3.229731 3.228923 3.231163 3.230356 3.229548 3.228779 3.228998 3.233007 3.232202 3.231599 3.237260 3.236800 3.236164 3.235565 3.234776 3.234161 3.233355 3.234067 3.233459 3.237679 3.236881 3.236151 3.235343 3.236253 3.235869 3.237279 3.237429 3.236739 3.235930 3.235148 3.234352 3.233617 3.233883 3.233765 3.232958 3.232355 3.232011 3.231404 3.230596 3.232118 3.231497 3.231586 3.232250 3.233398 3.232604 3.233868 3.234600 3.234345 3.234681 3.234333 3.233527 3.234082 3.233281 3.232474 3.232200 3.232054 3.232172 3.231419 3.230614 3.237455 3.236645 3.236373 3.236586 3.235777 3.235324 3.234830 3.237646 3.238349 3.237549 3.240233 3.239520 3.238778 3.237970 3.237248 3.236516 3.236593 3.236213 3.237644 3.236980 3.236621 3.236299 3.235490 3.234684 3.233899 3.235966 3.235157 3.234402 3.237180 3.236826 3.238431 3.238373 3.237575 3.237545 3.236837 3.236029 3.235428 3.235359 3.234764 3.234026 3.233296 3.232496 3.234226 3.233778 3.235765 3.235597 3.235224 3.234533 3.233732 3.233434 3.233151 3.232356 3.236933 3.239473 3.239568 3.239803 3.239003 3.238347 3.238329 3.237712 3.237010 3.236236 3.235493 3.239782 3.239079 3.238515 3.239524 3.244548 3.243785 3.243075 3.242976 3.245402 3.244793 3.245795 3.245418 3.245407 3.244833 3.247504 3.247410 3.253847 3.253825 3.253235 3.252479 3.253500 3.253307 3.253043 3.252253 3.251472 3.251171 3.250543 3.250572 3.249807 3.249000 3.248751 3.248039 3.247667 3.247051 3.249081 3.248294 3.247617 3.247325 3.247067 3.246269 3.248095 3.247359 3.248942 3.248184 3.248640 3.248093 3.248368 3.249638 3.254272 3.257104 3.256464 3.255894 3.255812 3.256788 3.256784 3.256765 3.256140 3.255725 3.255292 3.254578 3.254280 3.253895 3.253092 3.254361 3.254504 3.254408 3.253694 3.254839 3.255544 3.256599 3.255859 3.257426 3.259537 3.259965 3.259536 3.261778 3.263866 3.265665 3.267819 3.268012 3.267615 3.267033 3.268226 3.269000 3.268743 3.269207 3.274834 3.275689 3.276360 3.276064 3.275360 3.274787 3.273994 3.273204 3.274625 3.274618 3.273929 3.273149 3.272345 3.272622 3.272594 3.272233 3.272232 3.271615 3.273030 3.272541 3.272097 3.271296 3.270996 3.271195 3.273669 3.274151 3.274117 3.274476 3.273807 3.273479 3.273907 3.273352 3.273839 3.274171 3.275526 3.275364 3.281344 3.281528 3.281012 3.282549 3.282271 3.282357 3.281898 3.281423 3.280733 3.280699 3.280500 3.279710 3.279349 3.278540 3.281203 3.280428 3.279673 3.278936 3.278768 3.278116 3.277403 3.278090 3.278516 3.278846 3.278316 3.277556 3.277091 3.277064 3.279036 3.278299 3.277585 3.277022 3.278029 3.279185 3.279827 3.279043 3.278303 3.277664 3.277508 3.276845 3.276597 3.276784 3.276280 3.275983 3.277582 3.277066 3.276657 3.277274 3.276661 3.275974 3.275271 3.276924 3.276497 3.276187 3.278565 3.278171 3.278458 3.277827 3.278244 3.277768 3.278372 3.279085 3.279570 3.279843 3.279306 3.279264 3.278679 3.278255 3.278344 3.277923 3.277666 3.277095 3.276715 3.276212 3.275462 3.275802 3.276169 3.276415 3.277335 3.277171 3.276823 3.276070 3.276453 3.276902 3.276457 3.276253 3.278182 3.279038 3.278305 3.277777 3.277456 3.277714 3.278837 3.280151 3.280189 3.280007 3.279395 3.279440 3.278900 3.279237 3.279332 3.279757 3.279141 3.280358 3.280960 3.280152 3.280249 3.280138 3.280488 3.281174 3.281390 3.281585 3.282517 3.283126 3.282740 3.282540 3.284525 3.285264 3.285022 3.284613 3.284386 3.284169 3.284292 3.283904 3.283216 3.284634 3.284210 3.283951 3.283803 3.283689 3.283347 3.282643 3.283377 3.284134 3.283369 3.282926 3.282274 3.281513 3.281033 3.281282 3.284636 3.284161 3.286152 3.288051 3.287568 3.287310 3.288742 3.288399 3.290085 3.290162 3.289462 3.290655 3.289900 3.289435 3.289284 3.289058 3.289204 3.289911 3.289205 3.291492 3.291313 3.290885 3.290790 3.291217 3.290621 3.290909 3.290458 3.291712 3.291100 3.290678 3.291671 3.291514 3.291596 3.291238 3.290555 3.290811 3.290009 3.290737 3.290481 3.289769 3.289744 3.289767 3.290824 3.290679 3.290868 3.290264 3.289505 3.288903 3.288657 3.288381 3.288111 3.288182 3.288801 3.288025 3.287675 3.287095 3.286592 3.285779 3.286577 3.286318 3.285859 3.285191 3.285654 3.286044 3.285256 3.285009 3.284555 3.284754 3.284673 3.284704 3.283988 3.283456 3.282761 3.282100 3.281968 3.282608 3.283995 3.284264 3.284007 3.284416 3.283856 3.283722 3.283677 3.286130 3.286092 3.285718 3.285974 3.285635 3.285026 3.284593 3.284347 3.284760 3.284222 3.284651 3.284263 3.284028 3.283283 3.283525 3.282956 3.282944 3.284715 3.285473 3.285752 3.285075 3.284610 3.283860 3.283329 3.282572 3.283621 3.284293 3.285423 3.285235 3.290849 3.292054 3.293561 3.293015 3.293187 3.292751 3.294562 3.295320 3.295580 3.294985 3.294172 3.293820 3.294466 3.294596 3.293953 3.293958 3.294435 3.294555 3.294403 3.294000 3.293486 3.293492 3.293197 3.292607 3.293704 3.296352 3.297122 3.296772 3.295985 3.295359 3.294987 3.294881 3.295989 3.297065 3.297000 3.296731 3.296697 3.297524 3.297481 3.296999 3.297557 3.297694 3.297390 3.296794 3.297766 3.299686 3.299153 3.299255 3.299249 3.299013 3.298423 3.298351 3.299929 3.300682 3.300877 3.300150 3.299406 3.299704 3.299974 3.299692 3.299601 3.299547 3.300132 3.299354 3.298832 3.298179 3.297433 3.297194 3.298242 3.298815 3.298159 3.297838 3.298169 3.298104 3.297619 3.297657 3.297875 3.299250 3.301007 3.302058 3.302898 3.302590 3.302694 3.302216 3.302074 3.303226 3.303616 3.304745 3.305771 3.305624 3.305091 3.305066 3.304439 3.303998 3.303645 3.303505 3.303312 3.303286 3.302816 3.302571 3.302845 3.302694 3.302208 3.301751 3.302915 3.302138 3.303079 3.302473 3.301941 3.301265 3.300531 3.299929 3.302856 3.302065 3.301902 3.301286 3.302062 3.302074 3.301463 3.302432 3.301623 3.302343 3.302953 3.302145 3.302508 3.302820 3.302749 3.303423 3.304892 3.304431 3.304084 3.306118 3.305444 3.305086 3.305889 3.305220 3.305374 3.304917 3.304773 3.304897 3.305248 3.305127 3.304534 3.304766 3.304032 3.303690 3.303794 3.304029 3.303767 3.303242 3.302504 3.303047 3.304286 3.304036 3.303938 3.303816 3.303813 3.303056 3.303242 3.302689 3.302695 3.302804 3.302400 3.301900 3.301617 3.302669 3.302840 3.302485 3.302513 3.303248 3.303894 3.303073 3.302576 3.301774 3.301379 3.300709 3.300042 3.300341 3.300112 3.300812 3.302101 3.302482 3.302380 3.302226 3.302101 3.301424 3.300696 3.301498 3.302040 3.301542 3.302182 3.301829 3.301059 3.301007 3.300756 3.300903 3.301658 3.302696 3.302559 3.302140 3.303787 3.303129 3.303259 3.302607 3.303289 3.302745 3.302166 3.302503 3.302216 3.303897 3.305688 3.305237 3.306695 3.308503 3.309305 3.309105 3.309364 3.309858 3.310732 3.310946 3.311772 3.312275 3.312664 3.312309 3.311925 3.312058 3.311691 3.311127 3.311030 3.311821 3.311517 3.310958 3.310484 3.309711 3.310772 3.310580 3.310089 3.309827 3.309816 3.309456 3.308717 3.308363 3.307859 3.309367 3.308886 3.311165 3.310611 3.310470 3.310590 3.310276 3.311276 3.311498 3.310956 3.310687 3.310697 3.310393 3.309993 3.310452 3.310591 3.313523 3.313191 3.313516 3.313683 3.313041 3.313468 3.313925 3.314049 3.314080 3.314007 3.313944 3.313432 3.312664 3.312010 3.313284 3.313682 3.313424 3.313609 3.313452 3.312909 3.312287 3.312743 3.312451 3.312036 3.312259 3.311829 3.312107 3.311782 3.311126 3.313070 3.313107 3.312863 3.312890 3.312465 3.312121 3.312113 3.311826 3.312165 3.312305 3.312103 3.311362 3.311530 3.310994 3.310464 3.310498 3.309870 3.309161 3.308858 3.308243 3.308735 3.308412 3.308225 3.307754 3.307573 3.307459 3.306866 3.306747 3.307286 3.307128 3.307142 3.306692 3.307112 3.309372 3.308831 3.308497 3.309955 3.310647 3.310364 3.310853 3.310252 3.310239 3.309423 3.309542 3.309058 3.308925 3.308362 3.308427 3.308977 3.308752 3.310089 3.309547 3.310265 3.311176 3.311718 3.312571 3.313160 3.313080 3.312532 3.312577 3.312600 3.314363 3.315101 3.315098 3.314426 3.314354 3.313875 3.313498 3.313515 3.313118 3.312892 3.312761 3.312332 3.311897 3.313340 3.313946 3.314300 3.313956 3.314406 3.314118 3.313898 3.313373 3.313362 3.313627 3.314868 3.314667 3.314155 3.313608 3.313270 3.313321 3.313064 3.312884 3.312586 3.312530 3.312147 3.311969 3.311370 3.311134 3.311083 3.311800 3.311434 3.313618 3.313867 3.313091 3.313977 3.314981 3.314715 3.314176 3.313724 3.313537 3.313209 3.313977 3.315075 3.315633 3.315107 3.314544 3.314102 3.314281 3.314378 3.314871 3.314776 3.314405 3.315915 3.315615 3.315881 3.315512 3.315325 3.314740 3.315293 3.314941 3.315020 3.315304 3.315182 3.314811 3.314686 3.314266 3.315227 3.315498 3.315403 3.315786 3.316009 3.316171 3.316117 3.316252 3.316230 3.316391 3.316343 3.316918 3.316536 3.316772 3.317511 3.316950 3.316604 3.316546 3.315917 3.316867 3.317221 3.317002 3.316385 3.316704 3.316450 3.316114 3.316226 3.317040 3.317021 3.317098 3.316719 3.316634 3.316119 3.316208 3.317534 3.317132 3.316818 3.316968 3.316958 3.317041 3.317647 3.318693 3.318367 3.317990 3.317802 3.317564 3.317484 3.317196 3.318511 3.317978 3.317869 3.317361 3.316908 3.316830 3.316631 3.316400 3.315958 3.316558 3.315922 3.316083 3.316058 3.315655 3.315409 3.316515 3.316293 3.315731 3.315583 3.315160 3.315001 3.315274 3.315115 3.315234 3.315560 3.315098 3.314558 3.315758 3.315564 3.315841 3.316030 3.315668 3.316628 3.316879 3.319073 3.318792 3.318001 3.317711 3.317464 3.317173 3.317800 3.317110 3.316626 3.317249 3.317010 3.317050 3.316556 3.316837 3.316420 3.315922 3.316321 3.316382 3.316708 3.317197 3.317511 3.316860 3.316547 3.316422 3.315981 3.316905 3.316248 3.315910 3.315778 3.315791 3.315635 3.315771 3.315377 3.315611 3.315824 3.316020 3.315843 3.315497 3.315797 3.316125 3.315808 3.315533 3.315208 3.315499 3.315771 3.315982 3.317538 3.317076 3.317642 3.317722 3.317318 3.317583 3.317322 3.318119 3.318616 3.318670 3.318341 3.318526 3.317810 3.317618 3.317919 3.317695 3.317336 3.316780 3.316251 3.316156 3.315589 3.316014 3.316893 3.316954 3.316970 3.317659 3.318249 3.318209 3.317910 3.317432 3.317419 3.318165 3.318396 3.318271 3.318167 3.317408 3.317468 3.317279 3.317712 3.317185 3.316782 3.316784 3.316097 3.316234 3.316626 3.317023 3.316728 3.317092 3.316775 3.316706 3.316056 3.317415 3.318065 3.317975 3.318558 3.318134 3.318189 3.317429 3.317125 3.317074 3.318161 3.319200 3.318538 3.317853 3.317861 3.317555 3.317930 3.317687 3.317384 3.318029 3.317562 3.318880 3.319071 3.318650 3.319374 3.319416 3.320752 3.320583 3.320318 3.322004 3.321436 3.320970 3.320908 3.320963 3.321023 3.321382 3.321068 3.322822 3.322751 3.323730 3.324605 3.324430 3.324290 3.323997 3.324748 3.324099 3.324980 3.326245 3.325824 3.325546 3.325922 3.325965 3.326470 3.326784 3.326308 3.325712 3.326088 3.325521 3.325126 3.324805 3.324992 3.325132 3.325270 3.325086 3.326828 3.326384 3.326608 3.325892 3.326419 3.327499 3.327339 3.326774 3.326476 3.326963 3.326920 3.327350 3.327067 3.326548 3.326900 3.326336 3.326215 3.325626 3.325054 3.324973 3.324430 3.324060 3.323560 3.323672 3.324312 3.324547 3.323956 3.324666 3.324090 3.323423 3.323012 3.322689 3.322875 3.325198 3.325606 3.325896 3.325846 3.326607 3.326785 3.326376 3.326102 3.326387 3.327003 3.327639 3.328375 3.329165 3.329903 3.330607 3.330386 3.330305 3.330065 3.330418 3.329725 3.329869 3.329166 3.331910 3.332020 3.331990 3.332758 3.332453 3.332643 3.333203 3.332924 3.332552 3.332405 3.332792 3.333334 3.334085 3.334812 3.334680 3.334024 3.334335 3.333542 3.333024 3.332673 3.332899 3.332479 3.332491 3.332418 3.331677 3.333317 3.332764 3.332839 3.333600 3.334388 3.334174 3.333557 3.334686 3.334075 3.333952 3.334695 3.334168 3.333472 3.334971 3.335620 3.335351 3.334923 3.335300 3.334875 3.334582 3.333938 3.333523 3.332840 3.332313 3.332667 3.332598 3.332208 3.332864 3.333264 3.332875 3.332450 3.331679 3.331263 3.332281 3.331702 3.331681 3.332470 3.331917 3.331763 3.331327 3.331282 3.330943 3.331299 3.331348 3.331436 3.332068 3.331938 3.332413 3.332574 3.332945 3.332420 3.332569 3.331865 3.332290 3.332139 3.332331 3.332386 3.331751 3.331828 3.331571 3.331648 3.331481 3.331227 3.330635 3.330197 3.329851 3.329656 3.328953 3.329306 3.329046 3.328818 3.328945 3.329199 3.328698 3.328541 3.328286 3.327779 3.327437 3.327734 3.327403 3.327317 3.327224 3.326952 3.326758 3.326197 3.325489 3.325219 3.324823 3.324481 3.324380 3.324628 3.325685 3.326593 3.326352 3.326556 3.326590 3.326407 3.326630 3.326692 3.326595 3.326003 3.326218 3.326358 3.325985 3.326285 3.325871 3.325420 3.325418 3.325160 3.325384 3.326246 3.325613 3.325536 3.325302 3.324858 3.324713 3.324857 3.324688 3.324643 3.324324 3.325444 3.325601 3.325325 3.325089 3.325186 3.325943 3.325447 3.325284 3.325054 3.326005 3.325878 3.325740 3.326193 3.326244 3.325821 3.325531 3.326253 3.326446 3.326050 3.326001 3.326282 3.326440 3.325808 3.326647 3.326273 3.326918 3.327313 3.326818 3.326677 3.326929 3.326398 3.326524 3.326055 3.326535 3.325935 3.326182 3.325724 3.325180 3.324640 3.326342 3.325908 3.325730 3.325685 3.325409 3.325722 3.325560 3.326328 3.325718 3.326086 3.326087 3.325489 3.325586 3.326014 3.325487 3.325508 3.325502 3.325077 3.325081 3.325325 3.324919 3.324986 3.324716 3.324294 3.323938 3.323522 3.322940 3.323388 3.323465 3.323650 3.323624 3.323507 3.324045 3.323780 3.324388 3.323847 3.324162 3.323914 3.323942 3.324184 3.324114 3.324043 3.323442 3.322876 3.323197 3.322676 3.322112 3.322466 3.322613 3.322177 3.321722 3.321051 3.320617 3.320269 3.320923 3.320910 3.321042 3.320957 3.320945 3.320363 3.320200 3.319834 3.319661 3.319425 3.319349 3.319498 3.319546 3.319050 3.320334 3.320214 3.319496 3.319454 3.321190 3.321440 3.321403 3.321625 3.321333 3.321508 3.320978 3.320833 3.321781 3.321438 3.321001 3.321000 3.320607 3.320515 3.320230 3.320356 3.321200 3.321405 3.321147 3.321710 3.322235 3.323557 3.323218 3.322864 3.323620 3.323657 3.323205 3.323738 3.323862 3.324176 3.324003 3.324691 3.324567 3.324217 3.323696 3.323684 3.324395 3.324931 3.324577 3.323949 3.324030 3.323741 3.323573 3.323413 3.323324 3.324000 3.323549 3.323059 3.322724 3.322250 3.323404 3.323596 3.325600 3.325224 3.325944 3.325377 3.325255 3.325600 3.325388 3.325588 3.325112 3.324423 3.324347 3.324460 3.324265 3.323953 3.323275 3.323077 3.322872 3.322905 3.322473 3.322206 3.322016 3.322329 3.321926 3.321882 3.321479 3.321903 3.322424 3.323501 3.324122 3.323777 3.325171 3.325422 3.324879 3.324840 3.324940 3.324564 3.324087 3.324691 3.325214 3.324781 3.324477 3.324143 3.324699 3.324089 3.323530 3.323434 3.323826 3.323191 3.323522 3.323273 3.322765 3.322364 3.322387 3.322210 3.321999 3.321768 3.322200 3.321831 3.321953 3.321447 3.320937 3.320651 3.320440 3.319959 3.320478 3.320384 3.320695 3.320400 3.320436 3.320500 3.320400 3.320428 3.320073 3.320147 3.320147 3.320001 3.319646 3.320110 3.321116 3.322532 3.322227 3.321871 3.322711 3.322428 3.321966 3.323489 3.323366 3.323147 3.323456 3.322985 3.322747 3.322082 3.322046 3.322485 3.321976 3.322551 3.322602 3.322671 3.322294 3.321996 3.321621 3.321700 3.321067 3.320496 3.320280 3.320698 3.320598 3.320355 3.320324 3.321051 3.321214 3.321125 3.321143 3.320441 3.320280 3.319849 3.320386 3.319980 3.319924 3.319702 3.319132 3.319145 3.318931 3.318816 3.318144 3.318607 3.319050 3.320153 3.319791 3.320069 3.319574 3.320414 3.321322 3.321527 3.322752 3.323078 3.323894 3.323818 3.323660 3.323171 3.323470 3.323307 3.324144 3.324147 3.323763 3.323334 3.323103 3.322984 3.322663 3.322582 3.322003 3.321670 3.321711 3.321437 3.322179 3.322106 3.321956 3.323086 3.322578 3.322693 3.322637 3.323245 3.322831 3.322519 3.323112 3.323045 3.323285 3.324290 3.324271 3.324130 3.324657 3.324769 3.325090 3.325449 3.325111 3.324723 3.324875 3.324228 3.324149 3.324498 3.324562 3.323994 3.324384 3.324123 3.323684 3.323628 3.323401 3.323624 3.323235 3.323138 3.322611 3.323835 3.324489 3.324502 3.324172 3.323913 3.323495 3.323695 3.323588 3.323808 3.323592 3.323823 3.323959 3.326146 3.325508 3.325774 3.325440 3.325789 3.326047 3.325474 3.325055 3.324634 3.324198 3.324515 3.323851 3.323711 3.323612 3.323272 3.323836 3.323729 3.323307 3.324624 3.324772 3.324227 3.324908 3.325728 3.325859 3.325486 3.325779 3.325487 3.325841 3.325339 3.325968 3.325361 3.325829 3.325896 3.325454 3.324874 3.324560 3.324123 3.325276 3.325849 3.327333 3.327097 3.327460 3.327555 3.327686 3.327771 3.328770 3.329385 3.328992 3.328724 3.328549 3.327835 3.327289 3.327659 3.328509 3.329099 3.329055 3.328720 3.329725 3.329314 3.329878 3.329286 3.329883 3.331426 3.330989 3.331702 3.331480 3.331862 3.331280 3.331377 3.331213 3.331143 3.330590 3.330736 3.332583 3.332518 3.332270 3.331919 3.331787 3.331809 3.331901 3.331453 3.331143 3.330563 3.330125 3.329389 3.329677 3.329548 3.329799 3.329722 3.329372 3.328974 3.329603 3.329248 3.329261 3.329456 3.328784 3.328266 3.328190 3.328292 3.328384 3.328269 3.329212 3.330026 3.329396 3.330133 3.329751 3.330053 3.329387 3.329795 3.329424 3.328844 3.328314 3.329741 3.329116 3.328742 3.328266 3.328713 3.328803 3.328437 3.328352 3.328574 3.330124 3.330385 3.330276 3.330331 3.330170 3.329741 3.329317 3.329768 3.330070 3.330299 3.330666 3.330598 3.330461 3.330145 3.330393 3.330405 3.331170 3.330693 3.331217 3.330686 3.330922 3.330758 3.330704 3.330946 3.331420 3.331557 3.333572 3.333164 3.333435 3.333379 3.333065 3.332988 3.332801 3.332432 3.332099 3.331408 3.331114 3.331191 3.332338 3.331847 3.333264 3.333038 3.333752 3.333524 3.333274 3.333741 3.333869 3.333342 3.333501 3.334239 3.334186 3.334184 3.334426 3.333898 3.333889 3.333381 3.333025 3.332933 3.333163 3.333112 3.334156 3.334520 3.335746 3.335288 3.335143 3.337310 3.337076 3.336579 3.335951 3.336101 3.335887 3.335389 3.335337 3.335277 3.335137 3.335915 3.336247 3.336051 3.335567 3.335702 3.335573 3.336154 3.336347 3.335983 3.335467 3.335017 3.334621 3.334835 3.334926 3.335448 3.335738 3.335245 3.335459 3.335488 3.335357 3.334850 3.334748 3.335737 3.335811 3.335165 3.335135 3.334915 3.334586 3.335449 3.336556 3.336071 3.336745 3.336709 3.337038 3.336904 3.339474 3.339438 3.339012 3.338899 3.338764 3.339006 3.339281 3.339807 3.339711 3.340073 3.340145 3.340086 3.341047 3.341483 3.341046 3.341189 3.340927 3.341957 3.343187 3.342986 3.343070 3.342803 3.343799 3.343474 3.343552 3.343803 3.343438 3.342992 3.343833 3.343911 3.344091 3.343978 3.343584 3.343238 3.343163 3.343084 3.344622 3.344578 3.344830 3.344762 3.344172 3.343598 3.343736 3.343711 3.344556 3.344543 3.344835 3.344918 3.344628 3.344971 3.344838 3.344095 3.343774 3.344470 3.344602 3.344641 3.345052 3.344945 3.345241 3.345324 3.345595 3.346091 3.345543 3.345443 3.345220 3.345299 3.345603 3.346243 3.346461 3.345967 3.346900 3.346672 3.346425 3.346346 3.346051 3.346439 3.347023 3.347659 3.348359 3.350268 3.350278 3.350041 3.350586 3.350497 3.350207 3.350631 3.350283 3.349945 3.350177 3.349419 3.349294 3.348718 3.348784 3.348527 3.348820 3.351142 3.351941 3.351847 3.351583 3.352095 3.352226 3.351868 3.351550 3.351429 3.352434 3.352680 3.352673 3.352296 3.352090 3.351941 3.351850 3.351838 3.351084 3.350792 3.350241 3.349944 3.349345 3.348645 3.348529 3.348504 3.348744 3.348853 3.348228 3.347916 3.347538 3.347814 3.347692 3.347113 3.346751 3.346544 3.346006 3.346565 3.346341 3.346205 3.346836 3.347700 3.347262 3.347303 3.347009 3.347919 3.348105 3.348844 3.348397 3.348147 3.347631 3.347098 3.347167 3.347282 3.347317 3.347227 3.347219 3.346632 3.346356 3.346176 3.346179 3.346109 3.345829 3.345377 3.345770 3.345169 3.345065 3.344820 3.344644 3.344941 3.345516 3.345154 3.345280 3.344958 3.345904 3.345746 3.346589 3.347025 3.346984 3.347496 3.347894 3.348764 3.348700 3.348209 3.348190 3.347927 3.347461 3.347357 3.347089 3.347315 3.346811 3.346843 3.347308 3.346938 3.347023 3.346934 3.346887 3.346470 3.346651 3.346627 3.348063 3.347515 3.347199 3.347556 3.347378 3.348390 3.348336 3.348346 3.348028 3.348182 3.348190 3.347924 3.348103 3.348690 3.348287 3.348290 3.347998 3.347984 3.348452 3.348014 3.347980 3.347968 3.348906 3.348814 3.349359 3.349887 3.349350 3.348938 3.349211 3.349016 3.350446 3.350162 3.350079 3.349753 3.349379 3.349210 3.349852 3.349436 3.349316 3.349223 3.348636 3.348244 3.347906 3.348100 3.348166 3.348310 3.348089 3.348182 3.348779 3.350088 3.350486 3.351081 3.350798 3.350271 3.350745 3.350981 3.350705 3.351004 3.351503 3.351108 3.350657 3.350930 3.351893 3.351573 3.351918 3.352398 3.352384 3.352599 3.352263 3.351881 3.351900 3.351319 3.351270 3.350747 3.350470 3.351382 3.351399 3.351680 3.351332 3.351730 3.351135 3.351604 3.351309 3.351198 3.351293 3.350941 3.350801 3.351037 3.350639 3.350742 3.351008 3.351147 3.351032 3.352042 3.351692 3.351609 3.351991 3.352247 3.351875 3.351720 3.351430 3.351828 3.351779 3.351884 3.352155 3.352686 3.352566 3.352877 3.352931 3.352401 3.352277 3.352225 3.351827 3.352206 3.352750 3.352686 3.352610 3.352381 3.352189 3.352092 3.352720 3.352177 3.352194 3.352957 3.352862 3.352612 3.352633 3.352618 3.352141 3.351560 3.351542 3.351308 3.351438 3.351020 3.351190 3.351004 3.351923 3.351566 3.351472 3.351381 3.351435 3.351627 3.351275 3.351108 3.351907 3.351779 3.351993 3.351715 3.352512 3.353364 3.353922 3.353461 3.353661 3.353614 3.354131 3.353964 3.353791 3.353389 3.353289 3.353871 3.353998 3.353945 3.354062 3.355022 3.355815 3.356106 3.355597 3.355964 3.356569 3.356300 3.356612 3.356417 3.356639 3.356684 3.356366 3.356755 3.356385 3.355834 3.356013 3.355282 3.355653 3.355840 3.355627 3.355590 3.355034 3.355367 3.355779 3.356100 3.356904 3.356688 3.356406 3.356192 3.356800 3.356901 3.356572 3.356289 3.356261 3.356146 3.356273 3.356534 3.356867 3.356714 3.356450 3.356465 3.356349 3.355986 3.356824 3.356792 3.356346 3.355793 3.355814 3.355133 3.355466 3.355312 3.355354 3.355236 3.355103 3.354716 3.354729 3.354672 3.354393 3.354582 3.354685 3.355275 3.355017 3.354781 3.355635 3.355158 3.354714 3.356083 3.356938 3.356761 3.356539 3.356340 3.356113 3.356345 3.356272 3.356503 3.356434 3.356466 3.356983 3.356691 3.356404 3.356094 3.356007 3.355551 3.355342 3.355305 3.355277 3.355947 3.355634 3.355546 3.355891 3.355392 3.355796 3.355452 3.355239 3.355520 3.355151 3.355130 3.355155 3.354702 3.354183 3.354488 3.353940 3.353871 3.353870 3.353649 3.353819 3.353976 3.354748 3.355179 3.355495 3.355447 3.355136 3.356231 3.355874 3.355725 3.355426 3.355556 3.355430 3.355092 3.354573 3.354165 3.355197 3.355449 3.355750 3.355635 3.355844 3.355836 3.355753 3.355570 3.355311 3.354824 3.355601 3.355016 3.355528 3.355169 3.355549 3.355191 3.354624 3.354478 3.354736 3.354465 3.354035 3.354041 3.353412 3.355134 3.354717 3.355386 3.355353 3.354770 3.354524 3.354877 3.355004 3.354906 3.354354 3.354026 3.353912 3.353261 3.353432 3.353109 3.352564 3.352042 3.352415 3.352011 3.351798 3.351480 3.352166 3.353479 3.353052 3.352715 3.352695 3.352916 3.353953 3.353857 3.354685 3.354673 3.354100 3.354286 3.354169 3.355170 3.355199 3.355451 3.355625 3.355281 3.355207 3.356296 3.356496 3.356501 3.356468 3.357007 3.356449 3.356775 3.356785 3.356494 3.356270 3.355781 3.355304 3.354724 3.354674 3.354994 3.355092 3.355061 3.354637 3.354529 3.354689 3.355408 3.355328 3.355419 3.355088 3.355486 3.356075 3.355500 3.355259 3.355258 3.354734 3.354372 3.355122 3.355002 3.354834 3.354880 3.354786 3.354587 3.354043 3.355011 3.354986 3.354778 3.354705 3.355323 3.355317 3.355541 3.355265 3.355326 3.355174 3.355300 3.355205 3.354827 3.354651 3.353999 3.354333 3.353766 3.354305 3.355471 3.355769 3.355383 3.355377 3.355245 3.355039 3.354998 3.354861 3.355000 3.355276 3.356000 3.355753 3.355668 3.355840 3.355296 3.354719 3.354699 3.354581 3.354433 3.354212 3.353605 3.353340 3.353187 3.353383 3.353068 3.352506 3.352095 3.351983 3.352325 3.352356 3.352252 3.351853 3.351881 3.351966 3.351656 3.351082 3.350863 3.350426 3.350567 3.351272 3.351115 3.350630 3.350686 3.351356 3.350750 3.351907 3.352451 3.352824 3.352274 3.352129 3.352166 3.352058 3.352382 3.352958 3.352688 3.352084 3.351758 3.351414 3.350638 3.350217 3.349811 3.349629 3.350017 3.349277 3.348761 3.350102 3.349678 3.349207 3.349386 3.349527 3.350654 3.351263 3.350940 3.350357 3.349999 3.349921 3.349671 3.348976 3.348725 3.349220 3.349013 3.350279 3.349946 3.350057 3.349991 3.350662 3.351273 3.351060 3.350918 3.350285 3.350507 3.350111 3.349954 3.350985 3.350762 3.350741 3.350604 3.350327 3.350703 3.350796 3.350408 3.350490 3.350367 3.350882 3.350824 3.351279 3.350966 3.350796 3.350847 3.350359 3.350082 3.349868 3.350145 3.349950 3.349641 3.350947 3.350871 3.350716 3.350423 3.351258 3.351004 3.350506 3.349963 3.350015 3.350263 3.350585 3.350494 3.350643 3.350413 3.350264 3.351622 3.352219 3.352138 3.352011 3.351814 3.351584 3.351410 3.351238 3.352229 3.353005 3.353027 3.352632 3.353302 3.353010 3.354162 3.354130 3.353887 3.354054 3.353723 3.353427 3.354262 3.354105 3.353936 3.354157 3.353935 3.354488 3.354211 3.353907 3.353677 3.353429 3.353548 3.353440 3.354134 3.353715 3.353134 3.354036 3.353516 3.353988 3.354220 3.354239 3.355381 3.355580 3.356844 3.358083 3.357552 3.357006 3.357066 3.357038 3.356488 3.356585 3.356939 3.356427 3.356320 3.356475 3.356266 3.356306 3.356606 3.356919 3.356766 3.356595 3.356045 3.355747 3.356493 3.356611 3.356064 3.355742 3.355953 3.356697 3.356375 3.356630 3.356278 3.356063 3.356127 3.356026 3.355582 3.355311 3.355216 3.355379 3.355054 3.354677 3.354755 3.356130 3.356206 3.355825 3.355557 3.355998 3.355785 3.355934 3.355973 3.356088 3.356755 3.357036 3.356970 3.357510 3.357620 3.357705 3.357766 3.357275 3.357284 3.356793 3.357789 3.358110 3.359110 3.359411 3.359211 3.359085 3.358833 3.358926 3.358367 3.358047 3.357822 3.357337 3.357705 3.357350 3.357421 3.357186 3.356946 3.356693 3.356731 3.356193 3.355815 3.355700 3.355199 3.354819 3.354859 3.354670 3.354624 3.354678 3.354904 3.355036 3.354611 3.354789 3.354771 3.354120 3.354728 3.355541 3.354938 3.354672 3.354474 3.354720 3.354100 3.353840 3.354226 3.353553 3.353348 3.354698 3.354764 3.356718 3.357048 3.358240 3.358612 3.358428 3.358167 3.358234 3.358568 3.358045 3.357668 3.357239 3.356945 3.357162 3.357161 3.357443 3.358550 3.359371 3.359300 3.358729 3.359118 3.359479 3.359746 3.359648 3.359523 3.359771 3.359259 3.358858 3.358916 3.358708 3.358248 3.357900 3.358058 3.357571 3.357291 3.358314 3.358140 3.357802 3.357778 3.357604 3.357718 3.357885 3.357817 3.357876 3.357484 3.357664 3.357721 3.357452 3.357667 3.357057 3.357597 3.357665 3.357633 3.357376 3.357108 3.356864 3.356714 3.356812 3.357451 3.357445 3.357726 3.357655 3.357503 3.357540 3.357684 3.357564 3.357351 3.357807 3.357949 3.357736 3.357292 3.357371 3.357333 3.356797 3.356887 3.357075 3.357865 3.357686 3.357362 3.356897 3.357417 3.357346 3.358036 3.358647 3.358513 3.358312 3.357852 3.357945 3.357620 3.357624 3.357567 3.357393 3.356925 3.356640 3.356439 3.356213 3.356163 3.355977 3.355649 3.355532 3.355463 3.355795 3.356423 3.356174 3.355864 3.355727 3.355589 3.355973 3.356312 3.356310 3.356076 3.355763 3.355510 3.356711 3.356178 3.355835 3.356175 3.356050 3.356457 3.356629 3.356994 3.356515 3.356929 3.357438 3.356946 3.356985 3.356915 3.356913 3.358277 3.358695 3.358380 3.357957 3.358396 3.359261 3.359814 3.360119 3.360177 3.359734 3.360099 3.360136 3.359836 3.359442 3.359210 3.359007 3.358906 3.359330 3.359403 3.359069 3.359379 3.360389 3.360357 3.360119 3.359859 3.359442 3.359609 3.359094 3.358751 3.358425 3.358479 3.357994 3.358268 3.358241 3.358179 3.358289 3.357851 3.358051 3.357634 3.357342 3.357441 3.357650 3.357637 3.357561 3.358264 3.358807 3.358523 3.357822 3.357940 3.357588 3.357292 3.357261 3.356918 3.356661 3.357269 3.357177 3.357652 3.357680 3.357404 3.357833 3.357914 3.357430 3.357690 3.357467 3.357340 3.356964 3.356446 3.356156 3.355795 3.356073 3.355890 3.355411 3.355411 3.355210 3.355297 3.355199 3.354914 3.354650 3.354739 3.355144 3.354689 3.354197 3.354704 3.354522 3.354606 3.355168 3.355177 3.355300 3.354840 3.355034 3.354842 3.354435 3.354603 3.355066 3.355224 3.354865 3.354859 3.355647 3.355358 3.355349 3.355271 3.355603 3.355821 3.355560 3.355493 3.355074 3.354525 3.354012 3.353490 3.353121 3.352560 3.352948 3.352771 3.353017 3.352490 3.352510 3.352211 3.352154 3.352565 3.352333 3.352823 3.352593 3.351954 3.352345 3.351783 3.352203 3.352607 3.352939 3.353046 3.353040 3.352790 3.352053 3.352073 3.351841 3.351473 3.350929 3.350629 3.350929 3.351338 3.350888 3.352075 3.352094 3.352529 3.352762 3.352809 3.352738 3.352099 3.351538 3.351736 3.352909 3.353158 3.352707 3.353436 3.353982 3.354344 3.353756 3.353648 3.353523 3.353397 3.353853 3.353645 3.353031 3.353229 3.353734 3.353423 3.352713 3.352696 3.352550 3.353005 3.353327 3.353168 3.353907 3.353506 3.353161 3.353704 3.353826 3.353434 3.353437 3.353303 3.353570 3.353344 3.352651 3.352716 3.352288 3.352138 3.352024 3.351569 3.351151 3.350825 3.351287 3.350984 3.350500 3.350306 3.350056 3.350001 3.350408 3.350170 3.349871 3.349931 3.349822 3.349314 3.350017 3.349559 3.349014 3.349472 3.349966 3.350316 3.350845 3.350738 3.350712 3.350942 3.350868 3.351946 3.352282 3.352431 3.352388 3.353090 3.352955 3.354090 3.353753 3.354075 3.353812 3.353105 3.353654 3.353714 3.353953 3.353931 3.353712 3.354209 3.353660 3.353445 3.353585 3.353034 3.352435 3.352451 3.352971 3.353233 3.353687 3.353588 3.353002 3.353511 3.353464 3.352874 3.353069 3.352618 3.352796 3.352852 3.353746 3.353773 3.353827 3.354314 3.354223 3.354080 3.353866 3.353904 3.354958 3.355004 3.354845 3.355647 3.355229 3.354864 3.355622 3.356085 3.355533 3.355169 3.355057 3.354759 3.354831 3.355148 3.355876 3.355615 3.356082 3.355857 3.356051 3.356156 3.356454 3.356076 3.355899 3.355750 3.355473 3.355128 3.355046 3.355560 3.354914 3.354367 3.354349 3.354224 3.354299 3.354192 3.353770 3.353462 3.353699 3.353451 3.353163 3.354223 3.353750 3.353268 3.352816 3.353159 3.353111 3.352741 3.352490 3.352643 3.353336 3.353736 3.353909 3.353916 3.354254 3.354519 3.354355 3.354521 3.354118 3.354009 3.353832 3.354159 3.354030 3.353849 3.353262 3.352982 3.352923 3.352928 3.352802 3.352626 3.352602 3.352379 3.351806 3.351972 3.351706 3.351297 3.351745 3.351526 3.351211 3.351070 3.351158 3.351721 3.351501 3.351237 3.351477 3.351479 3.350950 3.351392 3.350997 3.351677 3.351846 3.352264 3.352308 3.351859 3.351321 3.350788 3.351362 3.351499 3.351331 3.350883 3.350587 3.350077 3.350152 3.349757 3.349256 3.348877 3.348575 3.349342 3.349150 3.349235 3.349155 3.349137 3.348646 3.350252 3.349764 3.350445 3.351639 3.352038 3.352636 3.352463 3.352454 3.353128 3.353088 3.352678 3.352871 3.352922 3.352583 3.352549 3.352554 3.352811 3.353455 3.353037 3.354196 3.354182 3.353596 3.354066 3.354301 3.354129 3.353405 3.353280 3.352597 3.352319 3.351788 3.351848 3.352278 3.352432 3.352919 3.352906 3.355105 3.355099 3.354994 3.354741 3.354594 3.354583 3.354440 3.354352 3.354323 3.353957 3.354213 3.354441 3.354287 3.354350 3.354452 3.353944 3.353543 3.353173 3.353423 3.353666 3.353791 3.354121 3.353613 3.353373 3.353500 3.353607 3.353991 3.353781 3.353459 3.353138 3.354109 3.354054 3.353885 3.353468 3.353037 3.352792 3.352616 3.352408 3.352105 3.351827 3.351300 3.350814 3.350823 3.350521 3.349879 3.349554 3.350093 3.350399 3.350335 3.351329 3.351527 3.351183 3.351229 3.351352 3.351019 3.350776 3.350564 3.350576 3.350624 3.350890 3.350535 3.350150 3.350531 3.350168 3.350153 3.349519 3.349168 3.349120 3.349121 3.348641 3.348404 3.348397 3.348511 3.348758 3.348642 3.348385 3.348617 3.348524 3.348587 3.349562 3.350213 3.350393 3.349937 3.349320 3.349177 3.349983 3.349462 3.349046 3.349056 3.348867 3.348347 3.348485 3.348218 3.348214 3.348170 3.348272 3.347757 3.347720 3.347972 3.347831 3.347952 3.347350 3.347257 3.347045 3.346347 3.347103 3.346846 3.346908 3.346774 3.346481 3.347397 3.347370 3.346777 3.346226 3.345928 3.346218 3.346054 3.345912 3.345790 3.345311 3.344899 3.344841 3.344741 3.344697 3.344603 3.344053 3.343705 3.343920 3.343804 3.343274 3.343602 3.344265 3.344759 3.345405 3.345228 3.344963 3.344816 3.344539 3.343817 3.344338 3.344059 3.344376 3.343933 3.343683 3.343729 3.343860 3.343347 3.342928 3.342880 3.342308 3.342094 3.342490 3.342765 3.342907 3.342904 3.342435 3.342009 3.342064 3.342684 3.342303 3.342128 3.342234 3.342280 3.342228 3.342905 3.343003 3.343135 3.343030 3.343416 3.342822 3.342946 3.343007 3.343364 3.343364 3.343750 3.343616 3.343735 3.344884 3.344848 3.344462 3.344388 3.344177 3.344566 3.344415 3.344329 3.344652 3.344255 3.343664 3.343789 3.343813 3.343819 3.343768 3.343523 3.343533 3.343334 3.344146 3.343794 3.343347 3.343010 3.343330 3.343329 3.343632 3.343501 3.343591 3.342982 3.342657 3.342685 3.342810 3.342732 3.342910 3.343086 3.344107 3.344947 3.345260 3.345077 3.345081 3.345481 3.345583 3.346023 3.345510 3.345261 3.345576 3.345354 3.345514 3.345412 3.345398 3.345109 3.344621 3.344962 3.344355 3.343888 3.343671 3.343578 3.343471 3.343283 3.343053 3.342978 3.342820 3.342635 3.342689 3.342691 3.342726 3.342468 3.342317 3.342788 3.343045 3.343053 3.342692 3.342343 3.342519 3.342505 3.342809 3.343482 3.343238 3.343001 3.342278 3.342721 3.343327 3.343683 3.343849 3.343255 3.343940 3.343860 3.344175 3.344024 3.343631 3.344105 3.344066 3.343825 3.343745 3.344083 3.344105 3.344208 3.343780 3.343476 3.343772 3.343350 3.343746 3.344010 3.344273 3.345184 3.345853 3.346284 3.346835 3.347327 3.346696 3.346789 3.346986 3.347095 3.346847 3.346668 3.346485 3.346689 3.346170 3.346197 3.345576 3.345582 3.345095 3.345038 3.345120 3.344613 3.344571 3.344039 3.344965 3.345773 3.346588 3.346432 3.346140 3.346052 3.345776 3.346221 3.346417 3.346419 3.345968 3.346250 3.347418 3.347198 3.347093 3.346926 3.346810 3.347053 3.347257 3.347335 3.347505 3.347554 3.347330 3.347614 3.347564 3.348061 3.348360 3.347956 3.347950 3.347688 3.347306 3.347368 3.347244 3.347535 3.347321 3.348081 3.348104 3.348214 3.348154 3.348508 3.348008 3.347867 3.347298 3.347264 3.347031 3.347553 3.347751 3.347740 3.347450 3.347396 3.346869 3.346446 3.346193 3.346185 3.345843 3.346017 3.345514 3.344964 3.345458 3.345461 3.345311 3.345319 3.345293 3.345552 3.345923 3.345742 3.345587 3.345044 3.345204 3.344995 3.345355 3.346046 3.345706 3.345739 3.345747 3.345609 3.345590 3.345162 3.344679 3.344920 3.344825 3.344817 3.344303 3.344011 3.344359 3.344658 3.345281 3.345820 3.345368 3.344930 3.345018 3.344678 3.344629 3.344499 3.343897 3.343511 3.343035 3.342971 3.342917 3.344064 3.343881 3.344332 3.343902 3.343763 3.343772 3.343784 3.343593 3.343079 3.343156 3.343093 3.343215 3.344321 3.344108 3.344237 3.343748 3.344151 3.343837 3.343648 3.343948 3.344056 3.344392 3.344211 3.343875 3.344566 3.344269 3.344213 3.344336 3.343906 3.344753 3.345013 3.345197 3.346239 3.346386 3.346481 3.346185 3.346081 3.346085 3.345704 3.345146 3.344793 3.344792 3.344474 3.344161 3.343908 3.343565 3.343542 3.343375 3.343243 3.344167 3.343962 3.343709 3.343627 3.343386 3.343184 3.342613 3.342962 3.342898 3.342736 3.342517 3.342524 3.342875 3.342571 3.342766 3.342501 3.342039 3.343314 3.343421 3.343810 3.343759 3.343235 3.343215 3.343452 3.342969 3.343307 3.344187 3.343716 3.343384 3.343574 3.344062 3.344127 3.344325 3.343822 3.344373 3.343986 3.344105 3.343961 3.343661 3.343526 3.343549 3.343544 3.343091 3.342547 3.341988 3.341956 3.341425 3.341656 3.341053 3.341015 3.340917 3.340327 3.340382 3.340536 3.340226 3.340053 3.340181 3.339511 3.339631 3.339473 3.339981 3.339687 3.340234 3.340668 3.340572 3.340606 3.340312 3.340348 3.339992 3.339317 3.339517 3.339140 3.339246 3.339010 3.338489 3.338129 3.338089 3.338699 3.338246 3.337653 3.337219 3.337328 3.337003 3.336551 3.336108 3.336395 3.336052 3.336277 3.336407 3.336444 3.336019 3.335519 3.335892 3.335328 3.335732 3.335360 3.335340 3.335736 3.335428 3.335587 3.335666 3.335544 3.336267 3.336471 3.336498 3.336834 3.336907 3.336580 3.336036 3.336249 3.335889 3.335540 3.335323 3.335059 3.334715 3.334632 3.334449 3.334040 3.333526 3.334255 3.333910 3.333487 3.333325 3.332878 3.332690 3.333097 3.332978 3.333598 3.334392 3.334460 3.334252 3.334084 3.333780 3.333810 3.333970 3.333556 3.334263 3.334936 3.334935 3.335638 3.335373 3.335109 3.334776 3.334683 3.334283 3.333906 3.333406 3.333747 3.334390 3.334333 3.335657 3.335084 3.334686 3.334775 3.334609 3.334129 3.334199 3.333759 3.334321 3.334762 3.335425 3.335099 3.334563 3.334587 3.334355 3.334439 3.334569 3.335557 3.335010 3.335344 3.335344 3.334874 3.334615 3.334963 3.334757 3.334907 3.334834 3.334970 3.334549 3.334169 3.334062 3.334083 3.334005 3.333455 3.333622 3.333581 3.333801 3.333653 3.333491 3.333105 3.333698 3.333757 3.333968 3.334301 3.334139 3.334421 3.334585 3.334195 3.333794 3.333403 3.333587 3.333476 3.333222 3.333101 3.332962 3.332714 3.332712 3.332612 3.332396 3.332339 3.332857 3.334190 3.333729 3.333897 3.334334 3.333774 3.333421 3.333313 3.332752 3.332434 3.332061 3.331658 3.331319 3.331258 3.331120 3.331090 3.330849 3.332021 3.331718 3.331629 3.331725 3.332076 3.331495 3.331075 3.330557 3.331621 3.331202 3.330993 3.331594 3.331751 3.331837 3.332342 3.332598 3.332379 3.332084 3.332104 3.332053 3.331778 3.331634 3.331271 3.331095 3.331620 3.331600 3.331377 3.331073 3.330570 3.331337 3.330918 3.330690 3.330859 3.331191 3.330956 3.331176 3.331559 3.331590 3.331144 3.331073 3.331731 3.331669 3.331036 3.330739 3.331120 3.331892 3.331842 3.332390 3.332421 3.332113 3.331640 3.331483 3.331936 3.331901 3.331463 3.331252 3.331340 3.331630 3.331461 3.332479 3.332083 3.331719 3.332123 3.332319 3.332141 3.332279 3.332692 3.332840 3.332827 3.332751 3.332533 3.333299 3.333085 3.333738 3.333623 3.333431 3.333352 3.333373 3.333440 3.333941 3.333799 3.333920 3.333767 3.333495 3.333057 3.332475 3.332245 3.332961 3.332776 3.332576 3.332050 3.331989 3.332245 3.331983 3.331463 3.331090 3.331526 3.331704 3.331104 3.330997 3.331131 3.331633 3.331456 3.330860 3.331114 3.332109 3.331802 3.331267 3.330990 3.331089 3.330816 3.330657 3.330834 3.330736 3.331255 3.330858 3.330761 3.330504 3.330357 3.330292 3.329981 3.329716 3.329612 3.329560 3.329265 3.330238 3.331419 3.331804 3.332379 3.332371 3.331736 3.331509 3.331269 3.331331 3.331110 3.330686 3.330322 3.330270 3.330463 3.330187 3.329960 3.329927 3.330283 3.329883 3.329600 3.329873 3.329872 3.330579 3.331329 3.330910 3.331974 3.332101 3.331656 3.332416 3.332076 3.331550 3.332030 3.332380 3.331934 3.331960 3.331551 3.332902 3.333166 3.332846 3.332623 3.332141 3.331870 3.331286 3.332159 3.331916 3.332145 3.331832 3.332297 3.332204 3.332934 3.332689 3.332560 3.332410 3.333008 3.333036 3.332907 3.334094 3.333597 3.333325 3.333540 3.333313 3.333452 3.332907 3.332486 3.332369 3.332837 3.332434 3.331929 3.331776 3.332641 3.332874 3.332621 3.332660 3.332242 3.332683 3.332595 3.332679 3.332731 3.332367 3.332284 3.332288 3.332031 3.332698 3.332850 3.332334 3.332756 3.332406 3.332430 3.331916 3.331322 3.331391 3.331151 3.330816 3.330384 3.330955 3.330696 3.330947 3.331430 3.331684 3.331903 3.332866 3.332623 3.332218 3.332035 3.331893 3.332287 3.332427 3.332797 3.332533 3.332735 3.332454 3.332072 3.331753 3.331579 3.331276 3.331368 3.331498 3.331461 3.330909 3.330961 3.331212 3.331286 3.331358 3.331244 3.330982 3.330698 3.330762 3.330315 3.330473 3.330069 3.329886 3.329436 3.330601 3.330515 3.329860 3.329915 3.329835 3.329919 3.329792 3.329384 3.329643 3.329183 3.328791 3.328379 3.328102 3.327820 3.327640 3.327801 3.327857 3.327352 3.327222 3.327094 3.326693 3.327309 3.326888 3.326635 3.326315 3.325818 3.325168 3.324672 3.324182 3.323991 3.323546 3.323302 3.323415 3.322885 3.322754 3.322343 3.321745 3.321314 3.321156 3.321452 3.321400 3.320839 3.320711 3.321361 3.321097 3.320858 3.320385 
