8.421264 8.670316 8.904983 9.125498 9.332097 9.525014 9.704483 9.870738 10.024013 10.164543 10.292561 10.408303 10.512002 10.603893 10.684210 10.753187 10.811058 10.858058 10.894421 10.920381 10.936173 10.942030 10.938187 10.924878 10.902337 10.870800 10.830499 10.781669 10.724545 10.659360 10.586350 10.505747 10.417787 10.322704 10.220731 10.112104 9.997056 9.875822 9.748636 9.615732 9.477344 9.333708 9.185056 9.031623 8.873643 8.711352 8.544982 8.374769 8.200946 8.023747 7.843408 7.660162 7.474243 7.285886 7.095325 6.902794 6.708528 6.512760 6.315726 6.117658 5.918792 5.719362 5.519602 5.319746 5.120028 4.920683 4.721945 4.524049 4.327227 4.131716 3.937748 3.745532 3.555209 3.366910 3.180764 2.996905 2.815461 2.636564 2.460345 2.286935 2.116465 1.949065 1.784867 1.624000 1.466597 1.312788 1.162704 1.016475 0.874233 0.736108 0.602232 0.472734 0.347747 0.227401 0.111802 0.000897 -0.105434 -0.207312 -0.304857 -0.398190 -0.487429 -0.572695 -0.654107 -0.731786 -0.805850 -0.876420 -0.943615 -1.007554 -1.068359 -1.126148 -1.181041 -1.233157 -1.282606 -1.329456 -1.373773 -1.415619 -1.455059 -1.492156 -1.526973 -1.559574 -1.590023 -1.618384 -1.644720 -1.669094 -1.691571 -1.712214 -1.731086 -1.748251 -1.763774 -1.777717 -1.790144 -1.801119 -1.810705 -1.818967 -1.825966 -1.831769 -1.836437 -1.840035 -1.842622 -1.844240 -1.844925 -1.844714 -1.843642 -1.841739 -1.839021 -1.835505 -1.831208 -1.826147 -1.820338 -1.813798 -1.806544 -1.798592 -1.789959 -1.780663 -1.770720 -1.760145 -1.748957 -1.737172 -1.724807 -1.711878 -1.698403 -1.684397 -1.669878 -1.654862 -1.639366 -1.623407 -1.607002 -1.590167 -1.572919 -1.555275 -1.537251 -1.518864 -1.500132 -1.481070 -1.461696 -1.442026 -1.422077 -1.401865 -1.381408 -1.360722 -1.339824 -1.318730 -1.297458 -1.276024 -1.254445 -1.232737 -1.210917 -1.189003 -1.167010 -1.144956 -1.122857 -1.100729 -1.078591 -1.056458 -1.034347 -1.012275 -0.990259 -0.968315 -0.946460 -0.924711 -0.903085 -0.881597 -0.860266 -0.839108 -0.818139 -0.797377 -0.776837 -0.756537 -0.736494 -0.716724 -0.697243 -0.678070 -0.659219 -0.640709 -0.622556 -0.604776 -0.587387 -0.570405 -0.553846 -0.537726 -0.522043 -0.506793 -0.491970 -0.477571 -0.463591 -0.450023 -0.436865 -0.424110 -0.411754 -0.399793 -0.388220 -0.377032 -0.366224 -0.355790 -0.345725 -0.336020 -0.326665 -0.317653 -0.308975 -0.300621 -0.292584 -0.284855 -0.277424 -0.270284 -0.263425 -0.256839 -0.250518 -0.244451 -0.238632 -0.233051 -0.227699 -0.222568 -0.217650 -0.212934 -0.208414 -0.204079 -0.199922 -0.195933 -0.192104 -0.188427 -0.184892 -0.181491 -0.178216 -0.175057 -0.172006 -0.169054 -0.166192 -0.163413 -0.160706 -0.158064 -0.155478 -0.152938 -0.150438 -0.147967 -0.145516 -0.143079 -0.140644 -0.138205 -0.135752 -0.133277 -0.130771 -0.128225 -0.125630 -0.122978 -0.120261 -0.117468 -0.114593 -0.111626 -0.108558 -0.105381 -0.102086 -0.098665 -0.095108 -0.091407 -0.087553 -0.083538 -0.079353 -0.074990 -0.070438 -0.065691 -0.060739 -0.055574 -0.050186 -0.044567 -0.038709 -0.032603 -0.026240 -0.019611 -0.012708 -0.005522 0.001956 0.009734 0.017821 0.026225 0.034956 0.044022 0.053432 0.063196 0.073324 0.083827 0.094714 0.105995 0.117681 0.129780 0.142303 0.155259 0.168659 0.182511 0.196827 0.211614 0.226884 0.242646 0.258910 0.275686 0.292983 0.310811 0.329180 0.348100 0.367581 0.387632 0.408263 0.429481 0.451284 0.473668 0.496628 0.520160 0.544259 0.568921 0.594143 0.619918 0.646244 0.673116 0.700528 0.728478 0.756961 0.785972 0.815506 0.845561 0.876130 0.907210 0.938797 0.970886 1.003473 1.036553 1.070122 1.104176 1.138711 1.173721 1.209203 1.245152 1.281564 1.318435 1.355760 1.393535 1.431755 1.470417 1.509515 1.549054 1.589040 1.629479 1.670378 1.711744 1.753583 1.795904 1.838711 1.882012 1.925813 1.970122 2.014945 2.060289 2.106161 2.152567 2.199513 2.247008 2.295057 2.343667 2.392846 2.442599 2.492933 2.543856 2.595374 2.647493 2.700221 2.753564 2.807529 2.862123 2.917352 2.973223 3.029739 3.086852 3.144476 3.202523 3.260905 3.319536 3.378326 3.437190 3.496039 3.554785 3.613343 3.671623 3.729538 3.787022 3.844065 3.900669 3.956836 4.012568 4.067867 4.122734 4.177171 4.231180 4.284763 4.337921 4.390656 4.442971 4.494866 4.546343 4.597405 4.648053 4.698289 4.748115 4.797532 4.846542 4.895147 4.943349 4.991149 5.038550 5.085552 5.132159 5.178371 5.224191 5.269619 5.314659 5.359311 5.403578 5.447461 5.490963 5.534083 5.576826 5.619192 5.661183 5.702801 5.744048 5.784925 5.825434 5.865578 5.905357 5.944774 5.983830 6.022526 6.060865 6.098848 6.136476 6.173752 6.210677 6.247253 6.283480 6.319362 6.354899 6.390093 6.424946 6.459459 6.493635 6.527474 6.560979 6.594150 6.626990 6.659501 6.691683 6.723539 6.755070 6.786278 6.817165 6.847731 6.877980 6.907911 6.937528 6.966832 6.995824 7.024506 7.052879 7.080946 7.108707 7.136165 7.163322 7.190178 7.216735 7.242996 7.268962 7.294633 7.320013 7.345103 7.369903 7.394417 7.418646 7.442590 7.466253 7.489634 7.512738 7.535563 7.558114 7.580390 7.602394 7.624128 7.645592 7.666789 7.687721 7.708388 7.728793 7.748937 7.768822 7.788449 7.807821 7.826938 7.845803 7.864417 7.882781 7.900898 7.918769 7.936395 7.953779 7.970921 7.987824 8.004490 8.020919 8.037113 8.053075 8.068805 8.084306 8.099579 8.114625 8.129447 8.144045 8.158423 8.172580 8.186520 8.200243 8.213751 8.227045 8.240129 8.253002 8.265667 8.278125 8.290379 8.302429 8.314277 8.325926 8.337375 8.348628 8.359686 8.370551 8.381223 8.391705 8.401999 8.412106 8.422027 8.431765 8.441321 8.450696 8.459893 8.468912 8.477756 8.486426 8.494924 8.503252 8.511410 8.519402 8.527227 8.534889 8.542388 8.549727 8.556907 8.563929 8.570795 8.577508 8.584068 8.590477 8.596737 8.602849 8.608816 8.614640 8.620322 8.625864 8.631268 8.636536 8.641670 8.646673 8.651546 8.656291 8.660911 8.665407 8.669782 8.674036 8.678173 8.682194 8.686099 8.689892 8.693572 8.697142 8.700604 8.703959 8.707209 8.710354 8.713397 8.716340 8.719183 8.721929 8.724579 8.727135 8.729597 8.731969 8.734250 8.736444 8.738551 8.740573 8.742512 8.744368 8.746145 8.747843 8.749464 8.751009 8.752480 8.753879 8.755207 8.756466 8.757658 8.758783 8.759843 8.760841 8.761777 8.762654 8.763472 8.764234 8.764940 8.765594 8.766195 8.766745 8.767247 8.767702 8.768111 8.768477 8.768799 8.769081 8.769322 8.769525 8.769690 8.769818 8.769911 8.769970 8.769996 8.769990 8.769954 8.769888 8.769793 8.769672 8.769525 8.769352 8.769157 8.768938 8.768699 8.768439 8.768161 8.767864 8.767551 8.767223 8.766880 8.766525 8.766157 8.765779 8.765391 8.764994 8.764590 8.764179 8.763763 8.763342 8.762917 8.762490 8.762062 8.761632 8.761203 8.760775 8.760350 8.759928 8.759510 8.759098 8.758691 8.758293 8.757902 8.757520 8.757149 8.756789 8.756442 8.756107 8.755787 8.755482 8.755193 8.754921 8.754668 8.754433 8.754219 8.754026 8.753855 8.753707 8.753583 8.753485 8.753412 8.753367 8.753349 8.753361 8.753402 8.753475 8.753580 8.753717 8.753889 8.754096 8.754338 8.754618 8.754936 8.755292 8.755689 8.756126 8.756606 8.757128 8.757694 8.758305 8.758962 8.759666 8.760417 8.761218 8.762068 8.762969 8.763922 8.764928 8.765988 8.767102 8.768272 8.769499 8.770784 8.772127 8.773530 8.774994 8.776520 8.778108 8.779760 8.781477 8.783259 8.785108 8.787025 8.789010 8.791065 8.793191 8.795387 8.797656 8.799996 8.802409 8.804895 8.807453 8.810085 8.812790 8.815569 8.818423 8.821351 8.824354 8.827432 8.830586 8.833816 8.837122 8.840505 8.843964 8.847501 8.851116 8.854808 8.858578 8.862427 8.866355 8.870363 8.874449 8.878616 8.882863 8.887190 8.891598 8.896088 8.900659 8.905311 8.910046 8.914864 8.919764 8.924747 8.929814 8.934965 8.940200 8.945519 8.950923 8.956413 8.961988 8.967648 8.973395 8.979228 8.985148 8.991155 8.997250 9.003432 9.009702 9.016061 9.022509 9.029045 9.035671 9.042387 9.049193 9.056089 9.063076 9.070154 9.077324 9.084583 9.091928 9.099352 9.106851 9.114418 9.122049 9.129738 9.137480 9.145269 9.153100 9.160968 9.168867 9.176791 9.184737 9.192697 9.200667 9.208641 9.216614 9.224581 9.232535 9.240473 9.248388 9.256274 9.264128 9.271942 9.279713 9.287434 9.295099 9.302705 9.310245 9.317713 9.325106 9.332416 9.339639 9.346770 9.353802 9.360731 9.367551 9.374257 9.380843 9.387305 9.393636 9.399831 9.405886 9.411793 9.417549 9.423148 9.428584 9.433852 9.438946 9.443862 9.448594 9.453135 9.457482 9.461629 9.465570 9.469300 9.472813 9.476104 9.479168 9.482000 9.484593 9.486943 9.489044 9.490891 9.492479 9.493801 9.494853 9.495629 9.496125 9.496333 9.496250 9.495870 9.495186 9.494195 9.492891 9.491267 9.489320 9.487042 9.484430 9.481478 9.478179 9.474530 9.470524 9.466156 9.461421 9.456313 9.450827 9.444958 9.438700 9.432047 9.424995 9.417539 9.409671 9.401388 9.392684 9.383554 9.373991 9.363991 9.353549 9.342658 9.331314 9.319511 9.307244 9.294507 9.281296 9.267604 9.253426 9.238757 9.223592 9.207924 9.191750 9.175062 9.157857 9.140128 9.121870 9.103079 9.083747 9.063871 9.043444 9.022461 9.000917 8.978807 8.956125 8.932866 8.909023 8.884593 8.859569 8.833945 8.807716 8.780876 8.753419 8.725340 8.696633 8.667293 8.637313 8.606689 8.575414 8.543482 8.510889 8.477628 8.443694 8.409081 8.373783 8.337795 8.301111 8.263726 8.225633 8.186827 8.147303 8.107054 8.066076 8.024361 7.981906 7.938704 7.894748 7.850035 7.804558 7.758311 7.711288 7.663485 7.614895 7.565513 7.515333 7.464349 7.412556 7.359948 7.306519 7.252264 7.197177 7.141252 7.084484 7.026867 6.968396 6.909064 6.848866 6.787796 6.725849 6.663019 6.599300 6.534687 6.469174 6.402755 6.335425 6.267178 6.198008 6.127910 6.056878 5.984906 5.911989 5.838120 5.763295 5.687508 5.610753 5.533024 5.454315 5.374622 5.293937 5.212257 5.129574 5.045884 4.961178 4.875122 4.786704 4.694829 4.598403 4.496330 4.387516 4.270864 4.145281 4.009670 3.862938 3.703988 3.531726 3.345057 3.142886 2.924117 2.687656 2.432407 2.157276 1.861167 1.542986 1.201637 0.836025 0.445056 0.027633 -0.417275 -0.890099 -1.390931 -1.919860 -2.476975 -3.062364 -3.675446 -4.310549 -4.959662 -5.614761 -6.267821 -6.910820 -7.535731 -8.134533 -8.699200 -9.223370 -9.706621 -10.149859 -10.553990 -10.919920 -11.248557 -11.540805 -11.797572 -12.019764 -12.208287 -12.364047 -12.487952 -12.580906 -12.643816 -12.677589 -12.683131 -12.661348 -12.613147 -12.539433 -12.441114 -12.319095 -12.174283 -12.007584 -11.819904 -11.612150 -11.385227 -11.140043 -10.877504 -10.598515 -10.303984 -9.994816 -9.671917 -9.336195 -8.988555 -8.629904 -8.261148 -7.883193 -7.496946 -7.103312 -6.703199 -6.297512 -5.887158 -5.473043 -5.056073 -4.637155 -4.217196 -3.797100 -3.377775 -2.960127 -2.545062 -2.133486 -1.726307 -1.324429 -0.928760 -0.540206 -0.159672 0.211934 0.573706 0.924739 1.264125 1.590959 1.904333 2.203343 2.487082 2.754642 3.005119 3.237605 3.451178 3.644755 3.817165 3.967236 4.093795 4.195669 4.271687 4.320676 4.341464 4.332878 4.293745 4.222895 4.119153 3.981348 3.808308 3.598859 3.351834 3.066331 2.741894 2.378866 1.979443 1.546096 1.081322 0.588195 0.070425 -0.468246 -1.024079 -1.593331 -2.172262 -2.757130 -3.344195 -3.929715 -4.509948 -5.081155 -5.639593 -6.181523 -6.703201 -7.200888 -7.670842 -8.109323 -8.512588 -8.876897 -9.198509 -9.473683 -9.698677 -9.869750 -9.983161 -10.035170 -10.022035 -9.940014 -9.786142 -9.564258 -9.281734 -8.945967 -8.564360 -8.144312 -7.693223 -7.218493 -6.727523 -6.227712 -5.726268 -5.227042 -4.731045 -4.239193 -3.752405 -3.271599 -2.797694 -2.331608 -1.874260 -1.426567 -0.989448 -0.563821 -0.150605 0.249283 0.634923 1.005400 1.360071 1.698768 2.021376 2.327775 2.617850 2.891482 3.148554 3.388949 3.612549 3.819238 4.008897 4.181410 4.336659 4.474526 4.594895 4.697647 4.782666 4.849835 4.899035 4.930150 4.943062 4.937653 4.913807 4.871406 4.810333 4.730471 4.631701 4.519356 4.410105 4.305099 4.204280 4.107588 4.014966 3.926355 3.841696 3.760932 3.684004 3.610853 3.541422 3.475651 3.413482 3.354857 3.299718 3.248006 3.199662 3.154629 3.112848 3.074260 3.038807 3.006431 2.977074 2.950676 2.927180 2.906526 2.888658 2.873516 2.861041 2.851177 2.843863 2.839042 2.836655 2.836644 2.838951 2.843517 2.850283 2.859192 2.870185 2.883203 2.898188 2.915082 2.933827 2.954363 2.976633 3.000578 3.026139 3.053259 3.081879 3.111940 3.143385 3.176154 3.210189 3.245433 3.281826 3.319310 3.357826 3.397318 3.437725 3.478989 3.521053 3.563857 3.607344 3.651454 3.696130 3.741313 3.786945 3.832968 3.879322 3.925949 3.972792 4.019792 4.066890 4.114027 4.161147 4.208189 4.255096 4.301810 4.348271 4.394422 4.440204 4.485559 4.530428 4.574753 4.618476 4.661538 4.703880 4.745445 4.786174 4.826008 4.864890 4.902760 4.939560 4.975233 5.009719 5.042960 5.074898 5.105474 5.134630 5.162307 5.188448 5.212994 5.235886 5.257071 5.276528 5.294241 5.310197 5.324381 5.336779 5.347377 5.356162 5.363118 5.368232 5.371490 5.372878 5.372381 5.369985 5.365677 5.359442 5.351266 5.341135 5.329034 5.314951 5.298870 5.280777 5.260659 5.238501 5.214290 5.188010 5.159648 5.129191 5.096622 5.061930 5.025099 4.986115 4.944965 4.901633 4.856107 4.808372 4.758416 4.706329 4.652317 4.596596 4.539381 4.480888 4.421332 4.360927 4.299890 4.238435 4.176778 4.115133 4.053717 3.992743 3.932428 3.872979 3.814480 3.756929 3.700320 3.644647 3.589903 3.536084 3.483182 3.431192 3.380108 3.329924 3.280634 3.232232 3.184712 3.138069 3.092296 3.047388 3.003338 2.960140 2.917789 2.876278 2.835602 2.795755 2.756731 2.718524 2.681128 2.644537 2.608746 2.573749 2.539539 2.506110 2.473458 2.441576 2.410458 2.380099 2.350492 2.321631 2.293511 2.266127 2.239471 2.213538 2.188323 2.163818 2.140020 2.116921 2.094516 2.072799 2.051764 2.031405 2.011716 1.992692 1.974326 1.956614 1.939548 1.923122 1.907333 1.892172 1.877634 1.863715 1.850406 1.837704 1.825601 1.814093 1.803172 1.792834 1.783072 1.773881 1.765254 1.757187 1.749672 1.742704 1.736277 1.730386 1.725025 1.720186 1.715866 1.712057 1.708755 1.705952 1.703644 1.701824 1.700487 1.699626 1.699236 1.699311 1.699845 1.700831 1.702263 1.704132 1.706431 1.709154 1.712292 1.715839 1.719786 1.724127 1.728854 1.733961 1.739438 1.745280 1.751479 1.758027 1.764917 1.772142 1.779694 1.787566 1.795751 1.804242 1.813030 1.822108 1.831470 1.841108 1.851015 1.861182 1.871604 1.882271 1.893178 1.904317 1.915680 1.927260 1.939049 1.951041 1.963228 1.975603 1.988157 2.000885 2.013778 2.026829 2.040031 2.053377 2.066858 2.080469 2.094200 2.108046 2.121998 2.136050 2.150193 2.164422 2.178727 2.193102 2.207540 2.222033 2.236574 2.251155 2.265769 2.280409 2.295067 2.309737 2.324410 2.339079 2.353737 2.368377 2.382991 2.397572 2.412113 2.426605 2.441043 2.455418 2.469723 2.483950 2.498093 2.512144 2.526096 2.539941 2.553679 2.567316 2.580860 2.594318 2.607696 2.621002 2.634244 2.647430 2.660566 2.673662 2.686725 2.699762 2.712782 2.725793 2.738802 2.751818 2.764848 2.777899 2.790981 2.804100 2.817262 2.830466 2.843710 2.856993 2.870314 2.883670 2.897062 2.910486 2.923943 2.937430 2.950945 2.964489 2.978059 2.991653 3.005271 3.018911 3.032571 3.046250 3.059947 3.073661 3.087389 3.101131 3.114884 3.128648 3.142422 3.156203 3.169991 3.183783 3.197579 3.211378 3.225177 3.238975 3.252771 3.266563 3.280351 3.294132 3.307905 3.321669 3.335423 3.349164 3.362892 3.376606 3.390302 3.403982 3.417642 3.431281 3.444899 3.458493 3.472062 3.485605 3.499121 3.512608 3.526065 3.539492 3.552886 3.566248 3.579576 3.592870 3.606127 3.619347 3.632530 3.645673 3.658777 3.671839 3.684859 3.697836 3.710769 3.723656 3.736498 3.749292 3.762037 3.774734 3.787379 3.799974 3.812516 3.825004 3.837438 3.849816 3.862138 3.874402 3.886607 3.898752 3.910837 3.922860 3.934820 3.946716 3.958547 3.970312 3.982010 3.993640 4.005201 4.016692 4.028112 4.039460 4.050734 4.061934 4.073059 4.084108 4.095083 4.105990 4.116833 4.127617 4.138348 4.149031 4.159670 4.170271 4.180838 4.191377 4.201892 4.212389 4.222873 4.233348 4.243820 4.254294 4.264775 4.275267 4.285776 4.296307 4.306865 4.317455 4.328082 4.338750 4.349466 4.360233 4.371058 4.381944 4.392898 4.403923 4.415026 4.426211 4.437483 4.448847 4.460308 4.471872 4.483543 4.495325 4.507226 4.519248 4.531398 4.543680 4.556100 4.568662 4.581371 4.594233 4.607252 4.620434 4.633783 4.647305 4.661004 4.674886 4.688955 4.703217 4.717677 4.732339 4.747209 4.762292 4.777593 4.793116 4.808867 4.824849 4.841054 4.857464 4.874063 4.890834 4.907762 4.924829 4.942018 4.959314 4.976700 4.994159 5.011675 5.029231 5.046811 5.064398 5.081975 5.099526 5.117035 5.134485 5.151862 5.169161 5.186384 5.203531 5.220601 5.237596 5.254514 5.271358 5.288125 5.304818 5.321436 5.337979 5.354447 5.370841 5.387161 5.403407 5.419579 5.435678 5.451704 5.467656 5.483536 5.499343 5.515078 5.530740 5.546330 5.561849 5.577295 5.592670 5.607974 5.623206 5.638368 5.653459 5.668479 5.683428 5.698308 5.713117 5.727856 5.742526 5.757126 5.771656 5.786118 5.800510 5.814834 5.829089 5.843275 5.857393 5.871444 5.885426 5.899340 5.913187 5.926967 5.940679 5.954324 5.967902 5.981414 5.994860 6.008238 6.021551 6.034798 6.047979 6.061095 6.074144 6.087128 6.100047 6.112900 6.125687 6.138410 6.151067 6.163659 6.176185 6.188647 6.201044 6.213376 6.225643 6.237845 6.249982 6.262055 6.274064 6.286008 6.297888 6.309703 6.321454 6.333141 6.344764 6.356323 6.367818 6.379249 6.390616 6.401919 6.413159 6.424336 6.435448 6.446498 6.457484 6.468407 6.479266 6.490062 6.500796 6.511466 6.522073 6.532618 6.543100 6.553519 6.563875 6.574169 6.584401 6.594570 6.604676 6.614721 6.624703 6.634623 6.644481 6.654277 6.664011 6.673683 6.683294 6.692843 6.702330 6.711756 6.721120 6.730423 6.739665 6.748845 6.757963 6.767015 6.776000 6.784914 6.793754 6.802518 6.811204 6.819808 6.828328 6.836761 6.845105 6.853356 6.861512 6.869570 6.877528 6.885382 6.893130 6.900770 6.908298 6.915711 6.923008 6.930185 6.937239 6.944168 6.950969 6.957639 6.964175 6.970576 6.976837 6.982957 6.988932 6.994759 7.000437 7.005962 7.011332 7.016543 7.021593 7.026480 7.031200 7.035751 7.040130 7.044334 7.048361 7.052207 7.055871 7.059349 7.062638 7.065736 7.068641 7.071348 7.073857 7.076163 7.078264 7.080157 7.081840 7.083310 7.084564 7.085599 7.086413 7.087003 7.087366 7.087499 7.087400 7.087065 7.086493 7.085681 7.084631 7.083342 7.081816 7.080053 7.078056 7.075824 7.073358 7.070660 7.067729 7.064568 7.061177 7.057558 7.053709 7.049634 7.045332 7.040805 7.036054 7.031079 7.025881 7.020461 7.014821 7.008960 7.002881 6.996583 6.990068 6.983336 6.976390 6.969228 6.961853 6.954265 6.946466 6.938455 6.930235 6.921805 6.913167 6.904322 6.895271 6.886014 6.876552 6.866887 6.857019 6.846949 6.836678 6.826207 6.815537 6.804669 6.793603 6.782341 6.770883 6.759231 6.747385 6.735346 6.723115 6.710694 6.698082 6.685281 6.672292 6.659115 6.645752 6.632203 6.618470 6.604553 6.590453 6.576171 6.561708 6.547065 6.532243 6.517242 6.502064 6.486710 6.471182 6.455480 6.439606 6.423562 6.407350 6.390970 6.374424 6.357714 6.340841 6.323807 6.306613 6.289260 6.271751 6.254085 6.236266 6.218294 6.200170 6.181894 6.163467 6.144890 6.126164 6.107289 6.088267 6.069097 6.049781 6.030320 6.010713 5.990963 5.971070 5.951034 5.930857 5.910539 5.890082 5.869486 5.848751 5.827880 5.806872 5.785729 5.764451 5.743039 5.721495 5.699818 5.678011 5.656072 5.634005 5.611809 5.589484 5.567033 5.544456 5.521754 5.498927 5.475977 5.452904 5.429709 5.406393 5.382957 5.359401 5.335726 5.311932 5.288017 5.263983 5.239828 5.215554 5.191159 5.166644 5.142009 5.117253 5.092376 5.067379 5.042260 5.017021 4.991661 4.966179 4.940576 4.914851 4.889005 4.863037 4.836947 4.810736 4.784402 4.757946 4.731368 4.704667 4.677844 4.650899 4.623830 4.596639 4.569325 4.541887 4.514327 4.486643 4.458836 4.430905 4.402850 4.374672 4.346370 4.317944 4.289393 4.260719 4.231920 4.202997 4.173949 4.144776 4.115479 4.086056 4.056509 4.026837 3.997039 3.967116 3.937069 3.906900 3.876608 3.846196 3.815664 3.785014 3.754246 3.723363 3.692364 3.661251 3.630026 3.598691 3.567246 3.535694 3.504035 3.472272 3.440406 3.408439 3.376371 3.344205 3.311942 3.279584 3.247132 3.214588 3.181953 3.149229 3.116417 3.083518 3.050536 3.017470 2.984322 2.951095 2.917789 2.884406 2.850948 2.817415 2.783811 2.750135 2.716390 2.682578 2.648699 2.614756 2.580749 2.546681 2.512553 2.478366 2.444122 2.409822 2.375469 2.341063 2.306606 2.272100 2.237546 2.202946 2.168301 2.133613 2.098883 2.064113 2.029304 1.994459 1.959577 1.924662 1.889714 1.854735 1.819727 1.784691 1.749628 1.714541 1.679430 1.644297 1.609145 1.573973 1.538785 1.503581 1.468362 1.433132 1.397890 1.362638 1.327379 1.292113 1.256842 1.221568 1.186292 1.151016 1.115741 1.080469 1.045201 1.009939 0.974685 0.939439 0.904203 0.868980 0.833770 0.798575 0.763397 0.728237 0.693096 0.657977 0.622880 0.587808 0.552761 0.517742 0.482751 0.447791 0.412863 0.377968 0.343108 0.308284 0.273499 0.238753 0.204048 0.169386 0.134768 0.100196 0.065671 0.031195 -0.003231 -0.037605 -0.071926 -0.106192 -0.140401 -0.174552 -0.208644 -0.242675 -0.276642 -0.310544 -0.344379 -0.378145 -0.411840 -0.445462 -0.479009 -0.512480 -0.545872 -0.579184 -0.612413 -0.645556 -0.678608 -0.711562 -0.744413 -0.777154 -0.809781 -0.842286 -0.874664 -0.906909 -0.939016 -0.970977 -1.002788 -1.034442 -1.065934 -1.097257 -1.128405 -1.159374 -1.190156 -1.220746 -1.251137 -1.281325 -1.311303 -1.341065 -1.370605 -1.399918 -1.428997 -1.457836 -1.486431 -1.514773 -1.542859 -1.570681 -1.598234 -1.625512 -1.652509 -1.679219 -1.705637 -1.731755 -1.757569 -1.783073 -1.808260 -1.833125 -1.857662 -1.881872 -1.905753 -1.929306 -1.952532 -1.975429 -1.997999 -2.020241 -2.042156 -2.063744 -2.085005 -2.105939 -2.126546 -2.146828 -2.166783 -2.186412 -2.205715 -2.224692 -2.243344 -2.261671 -2.279672 -2.297348 -2.314700 -2.331727 -2.348429 -2.364808 -2.380862 -2.396591 -2.411997 -2.427079 -2.441837 -2.456272 -2.470382 -2.484170 -2.497633 -2.510773 -2.523590 -2.536084 -2.548255 -2.560102 -2.571627 -2.582829 -2.593708 -2.604264 -2.614498 -2.624409 -2.633998 -2.643264 -2.652209 -2.660831 -2.669131 -2.677109 -2.684765 -2.692100 -2.699112 -2.705803 -2.712173 -2.718221 -2.723948 -2.729354 -2.734438 -2.739202 -2.743644 -2.747765 -2.751566 -2.755046 -2.758206 -2.761044 -2.763563 -2.765761 -2.767639 -2.769196 -2.770434 -2.771351 -2.771949 -2.772226 -2.772185 -2.771823 -2.771142 -2.770141 -2.768821 -2.767182 -2.765223 -2.762946 -2.760349 -2.757434 -2.754199 -2.750646 -2.746774 -2.742584 -2.738075 -2.733248 -2.728103 -2.722639 -2.716857 -2.710757 -2.704339 -2.697604 -2.690550 -2.683179 -2.675490 -2.667484 -2.659160 -2.650520 -2.641561 -2.632286 -2.622694 -2.612784 -2.602558 -2.592015 -2.581156 -2.569979 -2.558486 -2.546677 -2.534551 -2.522101 -2.509321 -2.496204 -2.482743 -2.468931 -2.454762 -2.440227 -2.425320 -2.410035 -2.394364 -2.378300 -2.361836 -2.344966 -2.327682 -2.309978 -2.291846 -2.273279 -2.254271 -2.234814 -2.214902 -2.194528 -2.173684 -2.152364 -2.130561 -2.108267 -2.085477 -2.062182 -2.038376 -2.014051 -1.989202 -1.963821 -1.937901 -1.911435 -1.884415 -1.856836 -1.828691 -1.799971 -1.770671 -1.740783 -1.710300 -1.679215 -1.647522 -1.615214 -1.582282 -1.548722 -1.514524 -1.479684 -1.444193 -1.408044 -1.371231 -1.333747 -1.295585 -1.256738 -1.217198 -1.176959 -1.136014 -1.094356 -1.051978 -1.008873 -0.965034 -0.920454 -0.875126 -0.829043 -0.782198 -0.734585 -0.686196 -0.637024 -0.587062 -0.536304 -0.484742 -0.432370 -0.379182 -0.325205 -0.270489 -0.215087 -0.159048 -0.102426 -0.045272 0.012364 0.070429 0.128871 0.187641 0.246685 0.305952 0.365392 0.424951 0.484580 0.544226 0.603837 0.663363 0.722752 0.781952 0.840912 0.899580 0.957905 1.015835 1.073319 1.130305 1.186741 1.242577 1.297771 1.352314 1.406204 1.459437 1.512012 1.563924 1.615171 1.665751 1.715661 1.764897 1.813457 1.861339 1.908538 1.955053 2.000879 2.046012 2.090447 2.134181 2.177208 2.219525 2.261127 2.302010 2.342169 2.381601 2.420301 2.458265 2.495488 2.531966 2.567695 2.602670 2.636888 2.670343 2.703032 2.734950 2.766093 2.796457 2.826037 2.854829 2.882829 2.910032 2.936434 2.962032 2.986823 3.010802 3.033965 3.056311 3.077834 3.098533 3.118402 3.137438 3.155639 3.173000 3.189518 3.205189 3.220010 3.233978 3.247089 3.259338 3.270724 3.281242 3.290889 3.299661 3.307556 3.314584 3.320768 3.326132 3.330700 3.334496 3.337544 3.339866 3.341487 3.342432 3.342722 3.342383 3.341437 3.339909 3.337823 3.335201 3.332069 3.328449 3.324366 3.319842 3.314903 3.309571 3.303870 3.297825 3.291458 3.284794 3.277857 3.270669 3.263256 3.255639 3.247833 3.239841 3.231662 3.223299 3.214754 3.206027 3.197120 3.188034 3.178772 3.169333 3.159721 3.149935 3.139979 3.129852 3.119557 3.109094 3.098466 3.087674 3.076719 3.065603 3.054326 3.042892 3.031300 3.019552 3.007651 2.995596 2.983391 2.971035 2.958531 2.945880 2.933083 2.920142 2.907058 2.893833 2.880469 2.866965 2.853325 2.839549 2.825639 2.811597 2.797423 2.783119 2.768687 2.754127 2.739443 2.724634 2.709702 2.694649 2.679477 2.664186 2.648778 2.633254 2.617617 2.601866 2.586005 2.570034 2.553954 2.537768 2.521476 2.505080 2.488581 2.471981 2.455281 2.438483 2.421588 2.404598 2.387514 2.370337 2.353069 2.335711 2.318264 2.300731 2.283113 2.265410 2.247625 2.229759 2.211813 2.193789 2.175688 2.157511 2.139261 2.120938 2.102544 2.084080 2.065548 2.046949 2.028284 2.009556 1.990765 1.971914 1.953002 1.934032 1.915006 1.895924 1.876788 1.857600 1.838360 1.819071 1.799734 1.780350 1.760921 1.741448 1.721932 1.702375 1.682779 1.663145 1.643473 1.623767 1.604026 1.584254 1.564450 1.544616 1.524755 1.504866 1.484953 1.465018 1.445065 1.425096 1.405116 1.385128 1.365135 1.345141 1.325148 1.305162 1.285184 1.265218 1.245268 1.225337 1.205429 1.185547 1.165694 1.145874 1.126090 1.106346 1.086644 1.066990 1.047385 1.027833 1.008338 0.988903 0.969532 0.950227 0.930991 0.911829 0.892741 0.873732 0.854805 0.835962 0.817206 0.798540 0.779968 0.761491 0.743114 0.724840 0.706670 0.688608 0.670657 0.652820 0.635100 0.617500 0.600023 0.582672 0.565449 0.548358 0.531402 0.514582 0.497902 0.481361 0.464964 0.448712 0.432606 0.416649 0.400843 0.385190 0.369692 0.354350 0.339168 0.324146 0.309287 0.294594 0.280067 0.265709 0.251522 0.237508 0.223669 0.210007 0.196524 0.183222 0.170103 0.157169 0.144422 0.131865 0.119498 0.107325 0.095346 0.083565 0.071983 0.060602 0.049424 0.038451 0.027686 0.017130 0.006785 -0.003347 -0.013264 -0.022963 -0.032443 -0.041702 -0.050737 -0.059547 -0.068130 -0.076484 -0.084606 -0.092495 -0.100148 -0.107564 -0.114741 -0.121676 -0.128368 -0.134814 -0.141013 -0.146962 -0.152660 -0.158105 -0.163294 -0.168225 -0.172897 -0.177307 -0.181454 -0.185335 -0.188949 -0.192293 -0.195366 -0.198165 -0.200688 -0.202935 -0.204903 -0.206590 -0.207995 -0.209116 -0.209951 -0.210500 -0.210758 -0.210727 -0.210402 -0.209783 -0.208868 -0.207656 -0.206144 -0.204331 -0.202215 -0.199794 -0.197067 -0.194031 -0.190686 -0.187030 -0.183060 -0.178775 -0.174173 -0.169253 -0.164013 -0.158451 -0.152565 -0.146354 -0.139816 -0.132949 -0.125751 -0.118222 -0.110358 -0.102158 -0.093622 -0.084746 -0.075529 -0.065969 -0.056066 -0.045816 -0.035218 -0.024271 -0.012973 -0.001321 0.010684 0.023047 0.035767 0.048848 0.062289 0.076095 0.090265 0.104801 0.119698 0.134948 0.150541 0.166471 0.182728 0.199303 0.216190 0.233379 0.250862 0.268630 0.286676 0.304990 0.323565 0.342392 0.361463 0.380770 0.400303 0.420055 0.440017 0.460182 0.480540 0.501083 0.521803 0.542691 0.563740 0.584940 0.606284 0.627763 0.649369 0.671096 0.692935 0.714881 0.736926 0.759064 0.781286 0.803588 0.825960 0.848397 0.870892 0.893437 0.916026 0.938651 0.961306 0.983983 1.006676 1.029378 1.052081 1.074780 1.097466 1.120133 1.142773 1.165381 1.187949 1.210469 1.232935 1.255341 1.277678 1.299941 1.322121 1.344213 1.366209 1.388102 1.409886 1.431552 1.453095 1.474507 1.495782 1.516912 1.537890 1.558710 1.579364 1.599846 1.620148 1.640264 1.660186 1.679908 1.699423 1.718723 1.737802 1.756653 1.775268 1.793642 1.811766 1.829634 1.847239 1.864574 1.881631 1.898405 1.914888 1.931073 1.946953 1.962521 1.977770 1.992694 2.007284 2.021535 2.035439 2.048990 2.062179 2.075002 2.087449 2.099515 2.111192 2.122474 2.133354 2.143823 2.153877 2.163507 2.172707 2.181469 2.189787 2.197654 2.205063 2.212006 2.218477 2.224469 2.229975 2.234988 2.239501 2.243506 2.246998 2.249969 2.252412 2.254320 2.255686 2.256503 2.256765 2.256463 2.255592 2.254144 2.252113 2.249491 2.246271 2.242447 2.238011 2.232956 2.227276 2.220964 2.214012 2.206414 2.198162 2.189250 2.179671 2.169417 2.158482 2.146859 2.134541 2.121521 2.107791 2.093345 2.078177 2.062278 2.045642 2.028262 2.010132 1.991243 1.971589 1.951164 1.929960 1.907970 1.885187 1.861605 1.837216 1.812015 1.786003 1.759176 1.731534 1.703076 1.673799 1.643703 1.612787 1.581048 1.548486 1.515099 1.480885 1.445845 1.409975 1.373275 1.335743 1.297378 1.258179 1.218144 1.177272 1.135562 1.093011 1.049620 1.005385 0.960307 0.914384 0.867614 0.819995 0.771528 0.722210 0.672039 0.621015 0.569136 0.516401 0.462808 0.408357 0.353045 0.296871 0.239834 0.181933 0.123166 0.063532 0.003029 -0.058344 -0.120588 -0.183704 -0.247694 -0.312560 -0.378303 -0.444923 -0.512423 -0.580804 -0.650067 -0.720214 -0.791245 -0.863163 -0.935968 -1.009663 -1.084247 -1.159724 -1.236094 -1.313358 -1.391517 -1.470574 -1.550530 -1.631386 -1.713142 -1.795802 -1.879365 -1.963834 -2.049210 -2.135494 -2.222687 -2.310791 -2.399807 -2.489737 -2.580582 -2.672343 -2.765022 -2.858620 -2.953138 -3.048578 -3.144941 -3.242228 -3.340442 -3.439583 -3.539652 -3.640651 -3.742582 -3.845445 -3.949242 -4.053975 -4.159644 -4.266252 -4.373799 -4.482287 -4.591717 -4.702091 -4.813410 -4.925675 -5.038888 -5.153050 -5.268163 -5.384227 -5.501244 -5.619216 -5.738144 -5.858029 -5.978873 -6.100676 -6.223441 -6.347169 -6.471861 -6.597518 -6.724142 -6.851735 -6.980297 -7.109829 -7.240334 -7.371813 -7.504267 -7.637697 -7.772105 -7.907491 -8.043859 -8.182356 -8.329684 -8.494216 -8.684154 -8.902924 -9.148676 -9.419285 -9.712628 -10.026580 -10.359017 -10.707816 -11.070852 -11.446002 -11.831142 -12.224147 -12.622894 -13.025258 -13.429116 -13.832344 -14.232818 -14.628414 -15.017007 -15.396475 -15.764692 -16.119536 -16.458881 -16.780605 -17.082582 -17.362690 -17.618804 -17.848800 -18.050554 -18.221945 -18.361306 -18.468011 -18.541579 -18.581528 -18.587375 -18.558638 -18.494848 -18.396412 -18.265241 -18.103396 -17.912935 -17.695916 -17.454398 -17.190441 -16.906103 -16.603444 -16.284521 -15.951393 -15.606121 -15.250761 -14.887374 -14.518018 -14.144752 -13.769635 -13.394726 -13.022083 -12.653766 -12.291832 -11.938215 -11.593767 -11.258800 -10.933622 -10.618539 -10.313858 -10.019888 -9.736934 -9.465305 -9.205308 -8.957248 -8.721435 -8.498175 -8.287775 -8.090543 -7.906786 -7.736786 -7.580447 -7.437369 -7.307141 -7.189357 -7.083605 -6.989478 -6.906566 -6.834460 -6.772752 -6.721032 -6.678892 -6.645922 -6.621713 -6.605857 -6.597943 -6.597526 -6.604105 -6.617174 -6.636229 -6.660765 -6.690277 -6.724260 -6.762209 -6.803618 -6.847984 -6.894800 -6.943563 -6.993766 -7.044906 -7.096476 -7.147972 -7.198890 -7.248723 -7.296968 -7.343119 -7.386671 -7.427119 -7.463958 -7.496683 -7.524790 -7.547773 -7.565127 -7.576347 -7.580929 -7.578367 -7.568156 -7.549794 -7.522807 -7.486739 -7.441130 -7.385524 -7.319464 -7.242491 -7.154149 -7.053981 -6.941528 -6.816333 -6.677940 -6.525890 -6.359726 -6.178992 -5.983228 -5.772007 -5.545792 -5.306111 -5.054556 -4.792716 -4.522567 -4.247668 -3.971986 -3.699327 -3.431315 -3.167954 -2.909213 -2.655060 -2.405463 -2.160392 -1.919813 -1.683696 -1.452009 -1.224719 -1.001795 -0.783206 -0.568920 -0.358905 -0.153129 0.048439 0.245832 0.439080 0.628216 0.813271 0.994278 1.171267 1.344270 1.513320 1.678447 1.839684 1.997063 2.150614 2.300371 2.446363 2.588624 2.727185 2.862078 2.993334 3.120985 3.245063 3.365599 3.482626 3.596175 3.706277 3.812965 3.916270 4.016224 4.112858 4.206205 4.296295 4.383162 4.466835 4.547348 4.624732 4.699019 4.770240 4.838427 4.903611 4.965826 5.025101 5.081469 5.134961 5.185595 5.233380 5.278322 5.320432 5.359717 5.396185 5.429844 5.460703 5.488770 5.514054 5.536561 5.556302 5.573283 5.587514 5.599002 5.607756 5.613795 5.617170 5.617931 5.616134 5.611829 5.605071 5.595912 5.584406 5.570604 5.554561 5.536329 5.515961 5.493510 5.469028 5.442570 5.414187 5.383933 5.351860 5.318023 5.282472 5.245263 5.206446 5.166076 5.124205 5.080887 5.036174 4.990119 4.942774 4.894194 4.844431 4.793538 4.741568 4.688573 4.634607 4.579723 4.523974 4.467411 4.410090 4.352062 4.293380 4.234098 4.174267 4.113943 4.053176 3.992020 3.930528 3.868754 3.806749 3.744567 3.682261 3.619883 3.557487 3.495126 3.432853 3.370720 3.308780 3.247087 3.185693 3.124651 3.064015 3.003837 2.944169 2.885066 2.826580 2.768764 2.711671 2.655353 2.599864 2.545249 2.491513 2.438649 2.386651 2.335514 2.285230 2.235793 2.187196 2.139435 2.092501 2.046389 2.001092 1.956604 1.912919 1.870030 1.827923 1.786586 1.746003 1.706159 1.667040 1.628631 1.590913 1.553872 1.517492 1.481755 1.446645 1.412148 1.378245 1.344922 1.312161 1.279947 1.248263 1.217093 1.186421 1.156231 1.126506 1.097230 1.068387 1.039961 1.011935 0.984294 0.957020 0.930099 0.903513 0.877246 0.851282 0.825605 0.800199 0.775047 0.750134 0.725442 0.700956 0.676660 0.652537 0.628570 0.604745 0.581044 0.557452 0.533953 0.510543 0.487221 0.463985 0.440835 0.417769 0.394787 0.371887 0.349068 0.326329 0.303670 0.281088 0.258583 0.236154 0.213800 0.191520 0.169312 0.147175 0.125109 0.103112 0.081184 0.059322 0.037527 0.015797 -0.005870 -0.027473 -0.049015 -0.070496 -0.091917 -0.113280 -0.134586 -0.155835 -0.177028 -0.198168 -0.219255 -0.240289 -0.261273 -0.282206 -0.303091 -0.323928 -0.344718 -0.365463 -0.386164 -0.406821 -0.427435 -0.448009 -0.468542 -0.489036 -0.509493 -0.529912 -0.550295 -0.570644 -0.590959 -0.611242 -0.631493 -0.651713 -0.671904 -0.692067 -0.712203 -0.732312 -0.752397 -0.772458 -0.792495 -0.812511 -0.832506 -0.852482 -0.872439 -0.892379 -0.912302 -0.932210 -0.952103 -0.971984 -0.991852 -1.011710 -1.031557 -1.051396 -1.071227 -1.091052 -1.110870 -1.130685 -1.150495 -1.170304 -1.190111 -1.209918 -1.229726 -1.249536 -1.269349 -1.289166 -1.308988 -1.328817 -1.348653 -1.368498 -1.388352 -1.408216 -1.428093 -1.447982 -1.467885 -1.487803 -1.507737 -1.527688 -1.547657 -1.567646 -1.587655 -1.607685 -1.627738 -1.647814 -1.667915 -1.688041 -1.708191 -1.728366 -1.748564 -1.768787 -1.789033 -1.809303 -1.829596 -1.849912 -1.870251 -1.890612 -1.910996 -1.931401 -1.951829 -1.972279 -1.992750 -2.013242 -2.033755 -2.054289 -2.074844 -2.095419 -2.116014 -2.136630 -2.157265 -2.177919 -2.198593 -2.219286 -2.239998 -2.260728 -2.281477 -2.302244 -2.323030 -2.343833 -2.364653 -2.385491 -2.406346 -2.427218 -2.448107 -2.469012 -2.489933 -2.510871 -2.531824 -2.552793 -2.573777 -2.594776 -2.615791 -2.636820 -2.657864 -2.678922 -2.699994 -2.721080 -2.742179 -2.763292 -2.784419 -2.805558 -2.826710 -2.847874 -2.869051 -2.890240 -2.911441 -2.932654 -2.953878 -2.975114 -2.996360 -3.017617 -3.038885 -3.060163 -3.081452 -3.102750 -3.124058 -3.145376 -3.166703 -3.188039 -3.209384 -3.230737 -3.252099 -3.273470 -3.294848 -3.316234 -3.337627 -3.359028 -3.380436 -3.401851 -3.423275 -3.444707 -3.466150 -3.487603 -3.509068 -3.530546 -3.552037 -3.573542 -3.595063 -3.616600 -3.638154 -3.659725 -3.681316 -3.702926 -3.724556 -3.746208 -3.767882 -3.789578 -3.811297 -3.833040 -3.854807 -3.876598 -3.898415 -3.920258 -3.942128 -3.964025 -3.985949 -4.007901 -4.029883 -4.051894 -4.073935 -4.096006 -4.118109 -4.140243 -4.162410 -4.184610 -4.206843 -4.229110 -4.251412 -4.273749 -4.296122 -4.318532 -4.340978 -4.363462 -4.385985 -4.408546 -4.431146 -4.453786 -4.476467 -4.499188 -4.521952 -4.544757 -4.567605 -4.590496 -4.613430 -4.636406 -4.659425 -4.682487 -4.705592 -4.728741 -4.751932 -4.775167 -4.798445 -4.821767 -4.845132 -4.868540 -4.891993 -4.915489 -4.939029 -4.962613 -4.986240 -5.009912 -5.033628 -5.057389 -5.081193 -5.105042 -5.128935 -5.152873 -5.176856 -5.200883 -5.224955 -5.249072 -5.273234 -5.297441 -5.321693 -5.345990 -5.370332 -5.394720 -5.419153 -5.443631 -5.468154 -5.492721 -5.517331 -5.541984 -5.566679 -5.591417 -5.616195 -5.641014 -5.665874 -5.690773 -5.715711 -5.740688 -5.765703 -5.790755 -5.815844 -5.840970 -5.866131 -5.891328 -5.916559 -5.941825 -5.967124 -5.992456 -6.017821 -6.043218 -6.068646 -6.094105 -6.119595 -6.145114 -6.170663 -6.196240 -6.221846 -6.247479 -6.273140 -6.298826 -6.324539 -6.350278 -6.376041 -6.401828 -6.427638 -6.453456 -6.479260 -6.505032 -6.530750 -6.556395 -6.581945 -6.607385 -6.632710 -6.657920 -6.683018 -6.708003 -6.732877 -6.757641 -6.782295 -6.806841 -6.831279 -6.855610 -6.879835 -6.903955 -6.927971 -6.951884 -6.975694 -6.999403 -7.023011 -7.046520 -7.069930 -7.093242 -7.116457 -7.139575 -7.162599 -7.185529 -7.208364 -7.231108 -7.253760 -7.276321 -7.298792 -7.321174 -7.343468 -7.365675 -7.387796 -7.409832 -7.431782 -7.453647 -7.475425 -7.497116 -7.518718 -7.540231 -7.561653 -7.582983 -7.604222 -7.625366 -7.646416 -7.667371 -7.688229 -7.708990 -7.729652 -7.750216 -7.770678 -7.791039 -7.811298 -7.831454 -7.851505 -7.871451 -7.891291 -7.911024 -7.930648 -7.950163 -7.969568 -7.988861 -8.008043 -8.027111 -8.046065 -8.064904 -8.083627 -8.102232 -8.120720 -8.139088 -8.157337 -8.175464 -8.193470 -8.211352 -8.229110 -8.246744 -8.264251 -8.281631 -8.298884 -8.316008 -8.333001 -8.349864 -8.366595 -8.383193 -8.399657 -8.415987 -8.432180 -8.448237 -8.464156 -8.479936 -8.495577 -8.511076 -8.526434 -8.541650 -8.556721 -8.571648 -8.586430 -8.601064 -8.615551 -8.629890 -8.644078 -8.658117 -8.672003 -8.685738 -8.699318 -8.712744 -8.726015 -8.739129 -8.752086 -8.764884 -8.777522 -8.790001 -8.802318 -8.814472 -8.826463 -8.838290 -8.849951 -8.861447 -8.872774 -8.883934 -8.894924 -8.905744 -8.916393 -8.926869 -8.937172 -8.947301 -8.957255 -8.967033 -8.976633 -8.986056 -8.995299 -9.004362 -9.013244 -9.021944 -9.030461 -9.038794 -9.046941 -9.054903 -9.062678 -9.070265 -9.077663 -9.084870 -9.091887 -9.098712 -9.105344 -9.111783 -9.118026 -9.124073 -9.129924 -9.135577 -9.141031 -9.146285 -9.151338 -9.156190 -9.160838 -9.165284 -9.169524 -9.173559 -9.177387 -9.181007 -9.184419 -9.187621 -9.190612 -9.193395 -9.195995 -9.198446 -9.200781 -9.203035 -9.205242 -9.207436 -9.209651 -9.211921 -9.214280 -9.216762 -9.219401 -9.222231 -9.225286 -9.228600 -9.232208 -9.236143 -9.240439 -9.245131 -9.250252 -9.255836 -9.261918 -9.268531 -9.275710 -9.283488 -9.291900 -9.300980 -9.310761 -9.321278 -9.332564 -9.344655 -9.357583 -9.371383 -9.386089 -9.401735 -9.418355 -9.435983 -9.454653 -9.474399 -9.495256 -9.517256 -9.540435 -9.564825 -9.590462 -9.617380 -9.645612 -9.675192 -9.706154 -9.738533 -9.772363 -9.807677 -9.844509 -9.882894 -9.922845 -9.964133 -10.006386 -10.049226 -10.092277 -10.135162 -10.177506 -10.218931 -10.259061 -10.297520 -10.333930 -10.367916 -10.399101 -10.427109 -10.451562 -10.472085 -10.488301 -10.499833 -10.506305 -10.507340 -10.502562 -10.491595 -10.474061 -10.449585 -10.417789 -10.378298 -10.330735 -10.274723 -10.209886 -10.135847 -10.052230 -9.958658 -9.854754 -9.740144 -9.614448 -9.477292 -9.328299 -9.167092 -8.993294 -8.806530 -8.606423 -8.392595 -8.164671 -7.922275 -7.665029 -7.392557 -7.104482 -6.800429 -6.480021 -6.142880 -5.788631 -5.416897 -5.027302 -4.619468 -4.193020 -3.747581 -3.282775 -2.798225 -2.293554 -1.768386 -1.222344 -0.655053 -0.066135 