12.726170 12.600005 12.474808 12.350576 12.227304 12.104989 11.983626 11.863211 11.743741 11.625211 11.507617 11.390955 11.275222 11.160413 11.046525 10.933552 10.821492 10.710341 10.600093 10.490746 10.382294 10.274735 10.168064 10.062278 9.957371 9.853341 9.750182 9.647892 9.546466 9.445900 9.346190 9.247333 9.149323 9.052157 8.955831 8.860342 8.765684 8.671854 8.578849 8.486663 8.395293 8.304736 8.214986 8.126040 8.037894 7.950544 7.863986 7.778215 7.693229 7.609022 7.525592 7.442933 7.361042 7.279914 7.199547 7.119935 7.041075 6.962963 6.885595 6.808966 6.733073 6.657912 6.583479 6.509769 6.436779 6.364504 6.292942 6.222087 6.151935 6.082483 6.013727 5.945662 5.878285 5.811592 5.745578 5.680240 5.615573 5.551574 5.488238 5.425562 5.363541 5.302172 5.241450 5.181371 5.121933 5.063129 5.004957 4.947412 4.890491 4.834189 4.778503 4.723428 4.668960 4.615096 4.561831 4.509161 4.457083 4.405592 4.354684 4.304355 4.254602 4.205420 4.156805 4.108754 4.061261 4.014324 3.967938 3.922100 3.876804 3.832048 3.787826 3.744136 3.700973 3.658333 3.616212 3.574607 3.533512 3.492924 3.452840 3.413254 3.374164 3.335564 3.297452 3.259822 3.222672 3.185996 3.149792 3.114054 3.078780 3.043964 3.009603 2.975693 2.942230 2.909210 2.876629 2.844482 2.812767 2.781478 2.750612 2.720165 2.690132 2.660511 2.631296 2.602484 2.574071 2.546052 2.518424 2.491183 2.464325 2.437845 2.411740 2.386006 2.360638 2.335633 2.310986 2.286695 2.262753 2.239159 2.215907 2.192993 2.170414 2.148166 2.126244 2.104645 2.083364 2.062398 2.041742 2.021393 2.001346 1.981598 1.962144 1.942980 1.924103 1.905508 1.887192 1.869150 1.851379 1.833874 1.816631 1.799646 1.782916 1.766436 1.750203 1.734212 1.718459 1.702940 1.687652 1.672590 1.657750 1.643128 1.628720 1.614523 1.600532 1.586743 1.573152 1.559756 1.546549 1.533529 1.520691 1.508038 1.495584 1.483332 1.471280 1.459428 1.447774 1.436317 1.425057 1.413990 1.403117 1.392437 1.381947 1.371647 1.361536 1.351612 1.341874 1.332321 1.322951 1.313764 1.304758 1.295932 1.287285 1.278816 1.270523 1.262404 1.254460 1.246688 1.239088 1.231658 1.224397 1.217304 1.210377 1.203616 1.197019 1.190584 1.184312 1.178200 1.172246 1.166451 1.160813 1.155331 1.150002 1.144827 1.139804 1.134931 1.130208 1.125633 1.121205 1.116923 1.112785 1.108791 1.104938 1.101227 1.097656 1.094222 1.090926 1.087766 1.084738 1.081842 1.079076 1.076439 1.073927 1.071540 1.069275 1.067131 1.065107 1.063199 1.061407 1.059728 1.058162 1.056705 1.055356 1.054114 1.052977 1.051942 1.051008 1.050173 1.049436 1.048794 1.048246 1.047790 1.047424 1.047146 1.046955 1.046849 1.046826 1.046883 1.047020 1.047235 1.047525 1.047889 1.048326 1.048832 1.049407 1.050049 1.050756 1.051525 1.052356 1.053247 1.054195 1.055199 1.056257 1.057367 1.058528 1.059737 1.060993 1.062295 1.063639 1.065025 1.066450 1.067914 1.069413 1.070947 1.072513 1.074109 1.075734 1.077387 1.079064 1.080765 1.082488 1.084230 1.085990 1.087767 1.089557 1.091361 1.093175 1.094998 1.096828 1.098663 1.100502 1.102343 1.104184 1.106022 1.107857 1.109687 1.111509 1.113323 1.115125 1.116914 1.118690 1.120448 1.122189 1.123910 1.125609 1.127284 1.128934 1.130557 1.132151 1.133715 1.135245 1.136742 1.138202 1.139624 1.141008 1.142354 1.143659 1.144925 1.146151 1.147337 1.148481 1.149584 1.150645 1.151664 1.152642 1.153577 1.154470 1.155322 1.156132 1.156900 1.157626 1.158311 1.158954 1.159556 1.160116 1.160634 1.161111 1.161547 1.161941 1.162294 1.162606 1.162877 1.163106 1.163294 1.163441 1.163546 1.163611 1.163635 1.163618 1.163560 1.163460 1.163321 1.163140 1.162918 1.162656 1.162353 1.162010 1.161625 1.161201 1.160735 1.160230 1.159683 1.159097 1.158470 1.157802 1.157095 1.156347 1.155559 1.154731 1.153862 1.152954 1.152005 1.151017 1.149988 1.148920 1.147811 1.146663 1.145475 1.144248 1.142980 1.141673 1.140326 1.138940 1.137514 1.136048 1.134543 1.132999 1.131415 1.129792 1.128129 1.126428 1.124686 1.122906 1.121087 1.119228 1.117331 1.115394 1.113418 1.111404 1.109350 1.107258 1.105126 1.102956 1.100747 1.098500 1.096213 1.093888 1.091525 1.089123 1.086682 1.084203 1.081686 1.079130 1.076535 1.073903 1.071232 1.068523 1.065775 1.062990 1.060166 1.057305 1.054405 1.051467 1.048491 1.045478 1.042426 1.039337 1.036210 1.033045 1.029842 1.026602 1.023324 1.020008 1.016655 1.013265 1.009837 1.006371 1.002868 0.999328 0.995750 0.992135 0.988483 0.984794 0.981068 0.977304 0.973503 0.969666 0.965792 0.961881 0.957935 0.953953 0.949936 0.945884 0.941798 0.937677 0.933523 0.929335 0.925114 0.920860 0.916574 0.912256 0.907907 0.903526 0.899114 0.894671 0.890198 0.885695 0.881163 0.876601 0.872011 0.867392 0.862745 0.858070 0.853367 0.848638 0.843881 0.839098 0.834290 0.829455 0.824595 0.819710 0.814801 0.809867 0.804909 0.799927 0.794923 0.789895 0.784845 0.779773 0.774679 0.769563 0.764428 0.759278 0.754114 0.748941 0.743761 0.738577 0.733393 0.728211 0.723035 0.717868 0.712712 0.707572 0.702449 0.697348 0.692271 0.687221 0.682202 0.677217 0.672268 0.667358 0.662492 0.657672 0.652900 0.648181 0.643517 0.638911 0.634367 0.629887 0.625475 0.621132 0.616864 0.612671 0.608558 0.604527 0.600581 0.596724 0.592957 0.589279 0.585689 0.582188 0.578775 0.575448 0.572207 0.569052 0.565982 0.562996 0.560094 0.557275 0.554538 0.551883 0.549309 0.546815 0.544402 0.542068 0.539813 0.537636 0.535536 0.533513 0.531567 0.529697 0.527902 0.526181 0.524534 0.522960 0.521460 0.520031 0.518674 0.517388 0.516172 0.515026 0.513949 0.512940 0.512000 0.511126 0.510320 0.509579 0.508904 0.508294 0.507748 0.507266 0.506847 0.506491 0.506196 0.505962 0.505790 0.505677 0.505624 0.505629 0.505693 0.505815 0.505993 0.506228 0.506519 0.506865 0.507266 0.507721 0.508229 0.508790 0.509403 0.510068 0.510784 0.511550 0.512366 0.513231 0.514145 0.515107 0.516116 0.517173 0.518275 0.519423 0.520615 0.521853 0.523134 0.524458 0.525824 0.527233 0.528684 0.530177 0.531711 0.533286 0.534902 0.536559 0.538256 0.539994 0.541772 0.543590 0.545447 0.547343 0.549279 0.551254 0.553267 0.555319 0.557409 0.559537 0.561702 0.563906 0.566146 0.568423 0.570738 0.573089 0.575476 0.577899 0.580358 0.582853 0.585384 0.587949 0.590549 0.593185 0.595854 0.598558 0.601295 0.604066 0.606870 0.609707 0.612576 0.615477 0.618409 0.621373 0.624367 0.627392 0.630447 0.633532 0.636646 0.639789 0.642961 0.646161 0.649390 0.652645 0.655928 0.659238 0.662574 0.665936 0.669324 0.672738 0.676176 0.679639 0.683127 0.686638 0.690173 0.693731 0.697312 0.700915 0.704540 0.708187 0.711856 0.715545 0.719256 0.722986 0.726736 0.730506 0.734295 0.738103 0.741929 0.745774 0.749636 0.753515 0.757412 0.761325 0.765254 0.769200 0.773160 0.777136 0.781127 0.785132 0.789152 0.793185 0.797231 0.801290 0.805362 0.809446 0.813542 0.817650 0.821769 0.825898 0.830038 0.834188 0.838348 0.842517 0.846695 0.850882 0.855077 0.859280 0.863490 0.867707 0.871932 0.876162 0.880399 0.884641 0.888889 0.893142 0.897399 0.901661 0.905926 0.910195 0.914467 0.918742 0.923019 0.927298 0.931579 0.935861 0.940144 0.944428 0.948712 0.952996 0.957279 0.961562 0.965843 0.970123 0.974400 0.978676 0.982948 0.987218 0.991484 0.995747 1.000005 1.004259 1.008507 1.012751 1.016989 1.021221 1.025448 1.029672 1.033894 1.038115 1.042337 1.046562 1.050791 1.055026 1.059267 1.063518 1.067778 1.072050 1.076333 1.080629 1.084937 1.089258 1.093592 1.097939 1.102299 1.106674 1.111062 1.115465 1.119883 1.124316 1.128764 1.133227 1.137707 1.142202 1.146714 1.151243 1.155789 1.160352 1.164932 1.169530 1.174147 1.178782 1.183435 1.188108 1.192800 1.197511 1.202243 1.206994 1.211766 1.216558 1.221372 1.226207 1.231062 1.235935 1.240826 1.245731 1.250648 1.255576 1.260513 1.265457 1.270406 1.275357 1.280309 1.285260 1.290209 1.295152 1.300088 1.305015 1.309931 1.314835 1.319724 1.324596 1.329449 1.334281 1.339091 1.343876 1.348635 1.353365 1.358065 1.362732 1.367365 1.371961 1.376519 1.381037 1.385513 1.389944 1.394329 1.398666 1.402953 1.407187 1.411368 1.415493 1.419560 1.423567 1.427512 1.431393 1.435208 1.438956 1.442634 1.446240 1.449773 1.453230 1.456610 1.459915 1.463144 1.466298 1.469376 1.472381 1.475311 1.478167 1.480949 1.483659 1.486296 1.488860 1.491352 1.493773 1.496122 1.498400 1.500608 1.502746 1.504813 1.506811 1.508740 1.510601 1.512392 1.514116 1.515772 1.517361 1.518883 1.520338 1.521727 1.523050 1.524307 1.525500 1.526627 1.527690 1.528689 1.529625 1.530497 1.531306 1.532052 1.532736 1.533358 1.533919 1.534419 1.534857 1.535236 1.535554 1.535812 1.536011 1.536151 1.536233 1.536256 1.536221 1.536129 1.535980 1.535773 1.535511 1.535192 1.534817 1.534387 1.533902 1.533363 1.532769 1.532121 1.531420 1.530665 1.529858 1.528998 1.528086 1.527122 1.526107 1.525041 1.523924 1.522757 1.521539 1.520273 1.518957 1.517592 1.516179 1.514718 1.513209 1.511652 1.510048 1.508398 1.506702 1.504959 1.503171 1.501338 1.499460 1.497537 1.495570 1.493559 1.491505 1.489408 1.487268 1.485086 1.482862 1.480597 1.478290 1.475942 1.473554 1.471125 1.468657 1.466149 1.463602 1.461017 1.458393 1.455731 1.453032 1.450295 1.447521 1.444711 1.441865 1.438983 1.436065 1.433113 1.430125 1.427103 1.424048 1.420958 1.417836 1.414680 1.411492 1.408272 1.405020 1.401736 1.398422 1.395076 1.391700 1.388295 1.384859 1.381395 1.377901 1.374379 1.370828 1.367250 1.363644 1.360012 1.356352 1.352666 1.348954 1.345216 1.341453 1.337665 1.333853 1.330016 1.326156 1.322272 1.318365 1.314435 1.310482 1.306508 1.302512 1.298495 1.294456 1.290397 1.286318 1.282219 1.278100 1.273962 1.269805 1.265629 1.261435 1.257223 1.252992 1.248744 1.244479 1.240197 1.235899 1.231584 1.227253 1.222906 1.218544 1.214167 1.209774 1.205368 1.200947 1.196512 1.192064 1.187602 1.183127 1.178639 1.174139 1.169627 1.165104 1.160568 1.156021 1.151464 1.146896 1.142317 1.137729 1.133130 1.128523 1.123906 1.119280 1.114646 1.110004 1.105354 1.100696 1.096031 1.091359 1.086680 1.081994 1.077303 1.072606 1.067903 1.063195 1.058482 1.053765 1.049043 1.044317 1.039587 1.034854 1.030116 1.025375 1.020630 1.015882 1.011131 1.006377 1.001619 0.996859 0.992096 0.987330 0.982561 0.977790 0.973017 0.968242 0.963465 0.958685 0.953904 0.949121 0.944336 0.939550 0.934763 0.929974 0.925185 0.920394 0.915602 0.910810 0.906017 0.901223 0.896429 0.891635 0.886840 0.882045 0.877251 0.872457 0.867663 0.862869 0.858076 0.853284 0.848492 0.843701 0.838911 0.834123 0.829335 0.824549 0.819765 0.814982 0.810201 0.805422 0.800644 0.795869 0.791096 0.786325 0.781556 0.776790 0.772027 0.767266 0.762508 0.757753 0.753002 0.748253 0.743508 0.738766 0.734027 0.729292 0.724561 0.719834 0.715111 0.710392 0.705677 0.700966 0.696260 0.691558 0.686861 0.682169 0.677482 0.672799 0.668122 0.663450 0.658783 0.654121 0.649466 0.644815 0.640171 0.635532 0.630900 0.626273 0.621653 0.617039 0.612432 0.607831 0.603237 0.598649 0.594069 0.589495 0.584929 0.580370 0.575818 0.571273 0.566737 0.562207 0.557686 0.553173 0.548667 0.544170 0.539681 0.535200 0.530728 0.526264 0.521810 0.517363 0.512926 0.508498 0.504079 0.499669 0.495269 0.490878 0.486497 0.482125 0.477764 0.473411 0.469063 0.464714 0.460355 0.455980 0.451582 0.447155 0.442691 0.438184 0.433626 0.429011 0.424332 0.419582 0.414755 0.409843 0.404839 0.399737 0.394529 0.389209 0.383770 0.378206 0.372508 0.366671 0.360687 0.354550 0.348253 0.341788 0.335150 0.328330 0.321323 0.314121 0.306717 0.299105 0.291278 0.283229 0.274950 0.266436 0.257679 0.248672 0.239409 0.229882 0.220085 0.210011 0.199653 0.189004 0.178057 0.166806 0.155243 0.143373 0.131212 0.118778 0.106088 0.093160 0.080011 0.066659 0.053122 0.039416 0.025560 0.011571 -0.002533 -0.016734 -0.031016 -0.045359 -0.059748 -0.074163 -0.088588 -0.103005 -0.117396 -0.131744 -0.146030 -0.160238 -0.174349 -0.188346 -0.202212 -0.215929 -0.229479 -0.242844 -0.256007 -0.268950 -0.281657 -0.294108 -0.306286 -0.318174 -0.329755 -0.341010 -0.351921 -0.362472 -0.372645 -0.382422 -0.391784 -0.400716 -0.409199 -0.417215 -0.424748 -0.431778 -0.438289 -0.444263 -0.449683 -0.454549 -0.458872 -0.462664 -0.465938 -0.468705 -0.470978 -0.472768 -0.474088 -0.474950 -0.475366 -0.475348 -0.474908 -0.474058 -0.472810 -0.471177 -0.469170 -0.466802 -0.464084 -0.461029 -0.457649 -0.453956 -0.449961 -0.445678 -0.441118 -0.436293 -0.431215 -0.425897 -0.420350 -0.414587 -0.408619 -0.402459 -0.396119 -0.389611 -0.382947 -0.376138 -0.369197 -0.362135 -0.354964 -0.347694 -0.340339 -0.332910 -0.325418 -0.317876 -0.310294 -0.302685 -0.295060 -0.287431 -0.279809 -0.272207 -0.264636 -0.257108 -0.249634 -0.242226 -0.234894 -0.227639 -0.220460 -0.213356 -0.206328 -0.199374 -0.192494 -0.185687 -0.178952 -0.172289 -0.165697 -0.159176 -0.152724 -0.146341 -0.140027 -0.133780 -0.127600 -0.121487 -0.115440 -0.109457 -0.103539 -0.097685 -0.091894 -0.086165 -0.080499 -0.074893 -0.069348 -0.063862 -0.058436 -0.053068 -0.047758 -0.042505 -0.037309 -0.032168 -0.027083 -0.022052 -0.017075 -0.012151 -0.007280 -0.002460 0.002308 0.007026 0.011694 0.016313 0.020883 0.025405 0.029880 0.034308 0.038691 0.043028 0.047321 0.051570 0.055776 0.059939 0.064060 0.068139 0.072179 0.076178 0.080138 0.084059 0.087942 0.091788 0.095598 0.099371 0.103110 0.106813 0.110482 0.114119 0.117722 0.121294 0.124834 0.128343 0.131823 0.135273 0.138694 0.142088 0.145454 0.148793 0.152106 0.155394 0.158657 0.161896 0.165112 0.168305 0.171475 0.174625 0.177753 0.180862 0.183951 0.187022 0.190074 0.193109 0.196127 0.199128 0.202115 0.205086 0.208044 0.210988 0.213919 0.216838 0.219746 0.222642 0.225529 0.228406 0.231274 0.234134 0.236987 0.239832 0.242672 0.245506 0.248335 0.251159 0.253981 0.256799 0.259615 0.262430 0.265243 0.268057 0.270871 0.273685 0.276502 0.279321 0.282143 0.284969 0.287799 0.290635 0.293476 0.296323 0.299177 0.302040 0.304910 0.307790 0.310679 0.313578 0.316489 0.319411 0.322345 0.325293 0.328254 0.331230 0.334220 0.337226 0.340248 0.343288 0.346345 0.349420 0.352514 0.355628 0.358762 0.361917 0.365094 0.368293 0.371514 0.374760 0.378029 0.381324 0.384644 0.387990 0.391363 0.394764 0.398193 0.401651 0.405138 0.408656 0.412204 0.415784 0.419396 0.423040 0.426714 0.430419 0.434153 0.437915 0.441705 0.445522 0.449365 0.453233 0.457125 0.461041 0.464980 0.468941 0.472924 0.476926 0.480949 0.484990 0.489049 0.493125 0.497217 0.501325 0.505448 0.509585 0.513735 0.517897 0.522071 0.526256 0.530450 0.534654 0.538866 0.543086 0.547312 0.551544 0.555781 0.560022 0.564267 0.568515 0.572765 0.577015 0.581266 0.585516 0.589765 0.594012 0.598256 0.602496 0.606731 0.610961 0.615185 0.619402 0.623610 0.627810 0.632000 0.636180 0.640348 0.644505 0.648648 0.652778 0.656893 0.660993 0.665076 0.669143 0.673191 0.677221 0.681231 0.685220 0.689189 0.693135 0.697059 0.700958 0.704834 0.708683 0.712507 0.716303 0.720072 0.723812 0.727522 0.731202 0.734851 0.738467 0.742051 0.745601 0.749116 0.752597 0.756040 0.759447 0.762816 0.766147 0.769437 0.772688 0.775897 0.779064 0.782189 0.785269 0.788305 0.791293 0.794234 0.797127 0.799968 0.802758 0.805495 0.808178 0.810805 0.813375 0.815887 0.818340 0.820732 0.823061 0.825328 0.827529 0.829665 0.831733 0.833732 0.835662 0.837521 0.839306 0.841018 0.842655 0.844216 0.845699 0.847102 0.848425 0.849667 0.850826 0.851900 0.852889 0.853791 0.854605 0.855329 0.855962 0.856504 0.856952 0.857305 0.857562 0.857722 0.857784 0.857745 0.857605 0.857363 0.857017 0.856566 0.856008 0.855343 0.854568 0.853683 0.852687 0.851578 0.850354 0.849015 0.847559 0.846017 0.844551 0.843359 0.842637 0.842574 0.843243 0.844601 0.846607 0.849215 0.852382 0.856064 0.860217 0.864797 0.869760 0.875061 0.880658 0.886506 0.892561 0.898779 0.905117 0.911530 0.917980 0.924457 0.930961 0.937491 0.944046 0.950626 0.957229 0.963857 0.970507 0.977179 0.983872 0.990586 0.997320 1.004074 1.010846 1.017637 1.024445 1.031269 1.038110 1.044967 1.051838 1.058723 1.065622 1.072533 1.079457 1.086392 1.093339 1.100296 1.107262 1.114238 1.121222 1.128213 1.135212 1.142218 1.149230 1.156247 1.163269 1.170295 1.177324 1.184357 1.191391 1.198427 1.205465 1.212502 1.219540 1.226576 1.233612 1.240645 1.247675 1.254702 1.261725 1.268743 1.275757 1.282764 1.289765 1.296759 1.303745 1.310723 1.317692 1.324651 1.331601 1.338539 1.345466 1.352381 1.359283 1.366172 1.373047 1.379908 1.386753 1.393583 1.400396 1.407193 1.413971 1.420732 1.427473 1.434195 1.440897 1.447578 1.454238 1.460876 1.467491 1.474083 1.480651 1.487194 1.493713 1.500205 1.506672 1.513111 1.519523 1.525907 1.532262 1.538587 1.544882 1.551147 1.557380 1.563581 1.569750 1.575886 1.581987 1.588055 1.594087 1.600084 1.606044 1.611967 1.617853 1.623701 1.629510 1.635279 1.641009 1.646698 1.652345 1.657951 1.663514 1.669034 1.674510 1.679942 1.685329 1.690670 1.695965 1.701214 1.706414 1.711567 1.716671 1.721725 1.726730 1.731684 1.736586 1.741437 1.746236 1.750981 1.755672 1.760310 1.764892 1.769419 1.773889 1.778303 1.782659 1.786958 1.791197 1.795378 1.799498 1.803558 1.807556 1.811493 1.815368 1.819179 1.822927 1.826610 1.830229 1.833782 1.837269 1.840689 1.844042 1.847326 1.850542 1.853689 1.856766 1.859773 1.862708 1.865572 1.868363 1.871081 1.873726 1.876296 1.878792 1.881212 1.883556 1.885823 1.888013 1.890125 1.892159 1.894113 1.895987 1.897781 1.899494 1.901126 1.902674 1.904140 1.905523 1.906821 1.908034 1.909162 1.910204 1.911160 1.912026 1.912796 1.913463 1.914018 1.914454 1.914763 1.914940 1.914984 1.914895 1.914676 1.914326 1.913845 1.913235 1.912497 1.911630 1.910636 1.909516 1.908269 1.906897 1.905400 1.903780 1.902035 1.900169 1.898180 1.896070 1.893839 1.891489 1.889021 1.886436 1.883738 1.880926 1.878004 1.874973 1.871835 1.868591 1.865243 1.861793 1.858244 1.854595 1.850851 1.847011 1.843078 1.839054 1.834941 1.830740 1.826453 1.822081 1.817627 1.813093 1.808480 1.803789 1.799024 1.794185 1.789274 1.784293 1.779244 1.774128 1.768948 1.763705 1.758400 1.753037 1.747616 1.742139 1.736608 1.731025 1.725392 1.719709 1.713980 1.708206 1.702388 1.696529 1.690630 1.684692 1.678718 1.672710 1.666668 1.660595 1.654493 1.648363 1.642207 1.636027 1.629824 1.623601 1.617359 1.611099 1.604824 1.598535 1.592234 1.585922 1.579603 1.573276 1.566944 1.560609 1.554273 1.547936 1.541602 1.535271 1.528946 1.522627 1.516318 1.510019 1.503733 1.497461 1.491205 1.484966 1.478746 1.472548 1.466373 1.460232 1.454150 1.448155 1.442272 1.436513 1.430879 1.425378 1.420021 1.414819 1.409780 1.404917 1.400238 1.395755 1.391478 1.387417 1.383581 1.379980 1.376622 1.373519 1.370678 1.368109 1.365821 1.363824 1.362127 1.360740 1.359671 1.358931 1.358528 1.358471 1.358771 1.359436 1.360475 1.361899 1.363716 1.365936 1.368568 1.371622 1.375106 1.379030 1.383404 1.388236 1.393537 1.399315 1.405580 1.412340 1.419607 1.427387 1.435680 1.444476 1.453764 1.463534 1.473773 1.484472 1.495618 1.507202 1.519212 1.531637 1.544466 1.557689 1.571293 1.585269 1.599604 1.614289 1.629312 1.644662 1.660329 1.676300 1.692566 1.709114 1.725935 1.743017 1.760349 1.777920 1.795719 1.813736 1.831959 1.850378 1.868984 1.887765 1.906713 1.925817 1.945066 1.964452 1.983964 2.003591 2.023324 2.043152 2.063067 2.083056 2.103111 2.123219 2.143353 2.163488 2.183594 2.203645 2.223612 2.243468 2.263185 2.282735 2.302091 2.321224 2.340107 2.358713 2.377022 2.395018 2.412687 2.430014 2.446982 2.463578 2.479785 2.495589 2.510975 2.525927 2.540431 2.554470 2.568031 2.581097 2.593654 2.605687 2.617179 2.628118 2.638486 2.648269 2.657451 2.666019 2.673955 2.681246 2.687877 2.693831 2.699094 2.703650 2.707485 2.710584 2.712931 2.714510 2.715308 2.715308 2.714497 2.712857 2.710375 2.707035 2.702822 2.697720 2.691717 2.684828 2.677097 2.668569 2.659289 2.649301 2.638650 2.627381 2.615540 2.603170 2.590316 2.577024 2.563338 2.549303 2.534963 2.520365 2.505552 2.490569 2.475461 2.460273 2.445049 2.429836 2.414676 2.399616 2.384699 2.369972 2.355478 2.341262 2.327370 2.313840 2.300682 2.287888 2.275455 2.263376 2.251646 2.240261 2.229214 2.218501 2.208116 2.198057 2.188318 2.178896 2.169787 2.160986 2.152490 2.144294 2.136395 2.128788 2.121469 2.114434 2.107680 2.101201 2.094995 2.089056 2.083381 2.077966 2.072807 2.067899 2.063239 2.058822 2.054645 2.050702 2.046991 2.043507 2.040243 2.037194 2.034356 2.031723 2.029290 2.027052 2.025003 2.023138 2.021452 2.019940 2.018596 2.017415 2.016392 2.015521 2.014798 2.014217 2.013773 2.013460 2.013274 2.013209 2.013259 2.013420 2.013687 2.014052 2.014512 2.015061 2.015693 2.016403 2.017186 2.018035 2.018946 2.019913 2.020931 2.021994 2.023097 2.024235 2.025401 2.026591 2.027799 2.029019 2.030247 2.031477 2.032703 2.033920 2.035122 2.036305 2.037462 2.038588 2.039678 2.040726 2.041727 2.042676 2.043566 2.044393 2.045152 2.045836 2.046440 2.046959 2.047387 2.047719 2.047950 2.048074 2.048086 2.047979 2.047750 2.047392 2.046899 2.046267 2.045491 2.044563 2.043480 2.042236 2.040825 2.039241 2.037481 2.035539 2.033427 2.031157 2.028730 2.026102 2.023223 2.020046 2.016519 2.012595 2.008224 2.003355 1.997941 1.991932 1.985278 1.977930 1.969840 1.960956 1.951231 1.940615 1.929058 1.916516 1.903065 1.888906 1.874246 1.859295 1.844259 1.829308 1.814485 1.799806 1.785282 1.770915 1.756708 1.742661 1.728779 1.715062 1.701513 1.688133 1.674925 1.661890 1.649032 1.636351 1.623850 1.611530 1.599395 1.587445 1.575684 1.564112 1.552732 1.541541 1.530539 1.519724 1.509094 1.498649 1.488386 1.478305 1.468405 1.458683 1.449138 1.439769 1.430575 1.421554 1.412705 1.404027 1.395517 1.387176 1.379000 1.370990 1.363143 1.355458 1.347934 1.340569 1.333363 1.326313 1.319418 1.312677 1.306089 1.299652 1.293364 1.287225 1.281233 1.275386 1.269684 1.264124 1.258706 1.253428 1.248288 1.243286 1.238420 1.233689 1.229094 1.224634 1.220311 1.216124 1.212073 1.208159 1.204382 1.200742 1.197240 1.193875 1.190648 1.187560 1.184609 1.181797 1.179124 1.176589 1.174191 1.171929 1.169802 1.167809 1.165950 1.164224 1.162628 1.161164 1.159828 1.158622 1.157543 1.156591 1.155764 1.155063 1.154485 1.154030 1.153698 1.153486 1.153394 1.153422 1.153568 1.153831 1.154210 1.154705 1.155314 1.156037 1.156872 1.157819 1.158877 1.160044 1.161320 1.162704 1.164195 1.165792 1.167493 1.169299 1.171208 1.173219 1.175331 1.177544 1.179856 1.182266 1.184774 1.187378 1.190078 1.192872 1.195760 1.198741 1.201813 1.204976 1.208229 1.211572 1.215002 1.218519 1.222122 1.225811 1.229583 1.233439 1.237377 1.241397 1.245497 1.249676 1.253935 1.258270 1.262682 1.267171 1.271733 1.276370 1.281079 1.285861 1.290713 1.295636 1.300627 1.305687 1.310814 1.316007 1.321266 1.326588 1.331975 1.337423 1.342934 1.348505 1.354135 1.359825 1.365572 1.371375 1.377235 1.383150 1.389118 1.395140 1.401214 1.407339 1.413514 1.419738 1.426011 1.432331 1.438697 1.445109 1.451567 1.458070 1.464617 1.471209 1.477846 1.484526 1.491250 1.498017 1.504828 1.511675 1.518530 1.525385 1.532240 1.539095 1.545949 1.552802 1.559653 1.566502 1.573348 1.580191 1.587030 1.593866 1.600696 1.607522 1.614343 1.621158 1.627966 1.634768 1.641563 1.648349 1.655128 1.661898 1.668659 1.675411 1.682153 1.688884 1.695605 1.702314 1.709011 1.715696 1.722369 1.729028 1.735674 1.742306 1.748923 1.755526 1.762113 1.768684 1.775239 1.781777 1.788298 1.794801 1.801287 1.807753 1.814201 1.820629 1.827037 1.833425 1.839792 1.846137 1.852461 1.858763 1.865042 1.871298 1.877530 1.883739 1.889922 1.896081 1.902215 1.908322 1.914404 1.920458 1.926486 1.932486 1.938457 1.944400 1.950314 1.956199 1.962054 1.967878 1.973671 1.979433 1.985164 1.990862 1.996527 2.002160 2.007758 2.013323 2.018853 2.024349 2.029809 2.035233 2.040621 2.045972 2.051286 2.056562 2.061800 2.067000 2.072160 2.077281 2.082362 2.087403 2.092403 2.097362 2.102278 2.107153 2.111985 2.116774 2.121519 2.126220 2.130877 2.135489 2.140056 2.144576 2.149050 2.153478 2.157858 2.162191 2.166476 2.170712 2.174899 2.179036 2.183124 2.187161 2.191148 2.195083 2.198966 2.202797 2.206576 2.210301 2.213973 2.217591 2.221154 2.224662 2.228115 2.231512 2.234853 2.238137 2.241364 2.244533 2.247644 2.250697 2.253690 2.256625 2.259499 2.262312 2.265065 2.267756 2.270383 2.272946 2.275444 2.277876 2.280240 2.282536 2.284763 2.286919 2.289003 2.291015 2.292953 2.294816 2.296604 2.298314 2.299949 2.301512 2.303008 2.304441 2.305815 2.307136 2.308406 2.309631 2.310815 2.311962 2.313077 2.314159 2.315208 2.316223 2.317203 2.318148 2.319055 2.319925 2.320755 2.321546 2.322296 2.323004 2.323670 2.324292 2.324869 2.325401 2.325886 2.326324 2.326713 2.327053 2.327342 2.327580 2.327765 2.327897 2.327975 2.327998 2.327965 2.327874 2.327725 2.327517 2.327249 2.326920 2.326529 2.326075 2.325557 2.324974 2.324325 2.323610 2.322826 2.321974 2.321052 2.320060 2.318996 2.317859 2.316649 2.315364 2.314003 2.312566 2.311052 2.309459 2.307787 2.306035 2.304201 2.302285 2.300286 2.298202 2.296034 2.293780 2.291441 2.289019 2.286515 2.283930 2.281264 2.278519 2.275696 2.272796 2.269820 2.266769 2.263644 2.260446 2.257177 2.253836 2.250427 2.246948 2.243402 2.239789 2.236111 2.232369 2.228563 2.224695 2.220766 2.216777 2.212728 2.208622 2.204458 2.200239 2.195964 2.191636 2.187255 2.182823 2.178340 2.173807 2.169226 2.164597 2.159922 2.155201 2.150436 2.145628 2.140778 2.135886 2.130955 2.125984 2.120976 2.115930 2.110849 2.105733 2.100583 2.095399 2.090181 2.084931 2.079650 2.074336 2.068992 2.063618 2.058214 2.052780 2.047318 2.041828 2.036311 2.030767 2.025196 2.019600 2.013979 2.008333 2.002663 1.996969 1.991253 1.985514 1.979754 1.973972 1.968170 1.962348 1.956506 1.950645 1.944766 1.938870 1.932956 1.927025 1.921078 1.915116 1.909139 1.903147 1.897142 1.891123 1.885091 1.879048 1.872993 1.866927 1.860850 1.854764 1.848668 1.842563 1.836451 1.830330 1.824203 1.818069 1.811929 1.805784 1.799634 1.793480 1.787322 1.781162 1.774998 1.768833 1.762666 1.756498 1.750330 1.744163 1.737996 1.731831 1.725667 1.719506 1.713349 1.707195 1.701045 1.694900 1.688760 1.682625 1.676497 1.670376 1.664261 1.658154 1.652056 1.645966 1.639884 1.633813 1.627751 1.621700 1.615660 1.609632 1.603615 1.597611 1.591620 1.585642 1.579678 1.573728 1.567793 1.561874 1.555970 1.550083 1.544212 1.538359 1.532524 1.526706 1.520908 1.515129 1.509369 1.503630 1.497911 1.492213 1.486537 1.480883 1.475252 1.469644 1.464059 1.458498 1.452962 1.447451 1.441965 1.436506 1.431073 1.425666 1.420288 1.414937 1.409614 1.404321 1.399056 1.393822 1.388618 1.383445 1.378303 1.373192 1.368114 1.363069 1.358057 1.353079 1.348135 1.343226 1.338352 1.333513 1.328711 1.323945 1.319216 1.314525 1.309872 1.305258 1.300682 1.296146 1.291651 1.287195 1.282781 1.278408 1.274077 1.269788 1.265542 1.261340 1.257182 1.253067 1.248998 1.244974 1.240996 1.237064 1.233179 1.229341 1.225551 1.221810 1.218116 1.214472 1.210878 1.207334 1.203841 1.200398 1.197008 1.193669 1.190382 1.187146 1.183960 1.180826 1.177741 1.174706 1.171720 1.168783 1.165895 1.163055 1.160262 1.157517 1.154819 1.152168 1.149563 1.147004 1.144490 1.142021 1.139597 1.137218 1.134882 1.132590 1.130341 1.128135 1.125972 1.123850 1.121770 1.119732 1.117734 1.115777 1.113860 1.111982 1.110144 1.108346 1.106585 1.104863 1.103179 1.101532 1.099923 1.098350 1.096813 1.095312 1.093847 1.092417 1.091022 1.089662 1.088335 1.087042 1.085782 1.084555 1.083361 1.082199 1.081068 1.079969 1.078901 1.077864 1.076856 1.075879 1.074931 1.074012 1.073122 1.072260 1.071426 1.070620 1.069841 1.069088 1.068362 1.067662 1.066988 1.066339 1.065714 1.065115 1.064539 1.063987 1.063459 1.062953 1.062470 1.062009 1.061571 1.061153 1.060757 1.060381 1.060026 1.059690 1.059374 1.059077 1.058799 1.058540 1.058298 1.058074 1.057868 1.057678 1.057504 1.057347 1.057206 1.057079 1.056968 1.056872 1.056789 1.056721 1.056665 1.056623 1.056594 1.056577 1.056571 1.056578 1.056595 1.056623 1.056662 1.056710 1.056769 1.056836 1.056912 1.056997 1.057090 1.057191 1.057299 1.057413 1.057535 1.057662 1.057796 1.057935 1.058079 1.058227 1.058380 1.058537 1.058697 1.058860 1.059027 1.059195 1.059365 1.059537 1.059709 1.059881 1.060053 1.060225 1.060395 1.060563 1.060729 1.060892 1.061052 1.061208 1.061360 1.061506 1.061648 1.061783 1.061912 1.062034 1.062149 1.062255 1.062353 1.062443 1.062522 1.062592 1.062651 1.062699 1.062736 1.062760 1.062772 1.062771 1.062756 1.062727 1.062684 1.062625 1.062551 1.062461 1.062353 1.062229 1.062087 1.061927 1.061748 1.061550 1.061332 1.061094 1.060836 1.060557 1.060257 1.059935 1.059592 1.059226 1.058838 1.058427 1.057994 1.057537 1.057058 1.056555 1.056029 1.055478 1.054903 1.054300 1.053671 1.053014 1.052328 1.051612 1.050866 1.050089 1.049282 1.048444 1.047576 1.046679 1.045752 1.044796 1.043810 1.042796 1.041753 1.040682 1.039582 1.038455 1.037299 1.036117 1.034906 1.033669 1.032405 1.031114 1.029797 1.028454 1.027084 1.025689 1.024269 1.022823 1.021352 1.019856 1.018336 1.016791 1.015222 1.013629 1.012012 1.010372 1.008708 1.007021 1.005312 1.003580 1.001825 1.000049 0.998250 0.996430 0.994588 0.992725 0.990840 0.988935 0.987010 0.985064 0.983098 0.981111 0.979106 0.977080 0.975036 0.972972 0.970890 0.968789 0.966669 0.964532 0.962376 0.960203 0.958012 0.955804 0.953579 0.951337 0.949079 0.946804 0.944513 0.942207 0.939884 0.937546 0.935193 0.932825 0.930442 0.928044 0.925632 0.923206 0.920766 0.918312 0.915845 0.913365 0.910871 0.908365 0.905847 0.903316 0.900772 0.898217 0.895651 0.893072 0.890483 0.887881 0.885268 0.882642 0.880003 0.877350 0.874684 0.872005 0.869311 0.866602 0.863878 0.861138 0.858383 0.855612 0.852824 0.850020 0.847198 0.844358 0.841501 0.838625 0.835730 0.832817 0.829884 0.826931 0.823958 0.820964 0.817950 0.814914 0.811857 0.808778 0.805677 0.802552 0.799405 0.796234 0.793040 0.789821 0.786578 0.783310 0.780017 0.776698 0.773353 0.769982 0.766584 0.763159 0.759706 0.756226 0.752718 0.749181 0.745615 0.742020 0.738395 0.734741 0.731056 0.727340 0.723594 0.719815 0.716005 0.712163 0.708288 0.704380 0.700438 0.696463 0.692453 0.688409 0.684329 0.680215 0.676064 0.671877 0.667654 0.663394 0.659098 0.654766 0.650397 0.645991 0.641549 0.637071 0.632556 0.628005 0.623417 0.618793 0.614132 0.609435 0.604701 0.599931 0.595124 0.590280 0.585400 0.580483 0.575530 0.570540 0.565514 0.560451 0.555351 0.550214 0.545041 0.539831 0.534585 0.529302 0.523982 0.518625 0.513232 0.507802 0.502335 0.496831 0.491291 0.485714 0.480100 0.474450 0.468764 0.463045 0.457294 0.451514 0.445707 0.439873 0.434017 0.428138 0.422240 0.416323 0.410391 0.404445 0.398486 0.392518 0.386541 0.380558 0.374570 0.368580 0.362590 0.356601 0.350615 0.344635 0.338662 0.332698 0.326745 0.320805 0.314880 0.308972 0.303083 0.297214 0.291368 0.285547 0.279752 0.273986 0.268250 0.262546 0.256877 0.251244 0.245648 0.240093 0.234580 0.229107 0.223675 0.218284 0.212933 0.207622 0.202351 0.197119 0.191927 0.186774 0.181659 0.176583 0.171546 0.166546 0.161584 0.156659 0.151771 0.146921 0.142106 0.137329 0.132587 0.127881 0.123211 0.118576 0.113976 0.109411 0.104881 0.100385 0.095922 0.091494 0.087100 0.082740 0.078415 0.074124 0.069867 0.065646 0.061459 0.057307 0.053191 0.049109 0.045064 0.041053 0.037079 0.033140 0.029237 0.025370 0.021539 0.017744 0.013986 0.010264 0.006579 0.002931 -0.000681 -0.004255 -0.007792 -0.011292 -0.014755 -0.018180 -0.021567 -0.024917 -0.028229 -0.031502 -0.034738 -0.037935 -0.041094 -0.044214 -0.047296 -0.050339 -0.053343 -0.056308 -0.059234 -0.062120 -0.064967 -0.067775 -0.070543 -0.073271 -0.075959 -0.078608 -0.081216 -0.083783 -0.086311 -0.088798 -0.091244 -0.093649 -0.096014 -0.098337 -0.100620 -0.102861 -0.105060 -0.107218 -0.109335 -0.111409 -0.113443 -0.115436 -0.117389 -0.119303 -0.121177 -0.123014 -0.124812 -0.126573 -0.128297 -0.129986 -0.131638 -0.133256 -0.134839 -0.136388 -0.137903 -0.139386 -0.140836 -0.142255 -0.143642 -0.144999 -0.146325 -0.147622 -0.148890 -0.150130 -0.151341 -0.152526 -0.153683 -0.154814 -0.155920 -0.157000 -0.158056 -0.159087 -0.160095 -0.161080 -0.162043 -0.162984 -0.163903 -0.164802 -0.165681 -0.166540 -0.167379 -0.168201 -0.169004 -0.169790 -0.170558 -0.171311 -0.172048 -0.172769 -0.173476 -0.174169 -0.174848 -0.175514 -0.176167 -0.176809 -0.177439 -0.178058 -0.178667 -0.179266 -0.179856 -0.180438 -0.181011 -0.181577 -0.182136 -0.182688 -0.183234 -0.183776 -0.184312 -0.184844 -0.185372 -0.185898 -0.186420 -0.186941 -0.187460 -0.187979 -0.188496 -0.189014 -0.189533 -0.190053 -0.190575 -0.191099 -0.191627 -0.192157 -0.192692 -0.193231 -0.193775 -0.194325 -0.194882 -0.195445 -0.196015 -0.196593 -0.197180 -0.197776 -0.198381 -0.198996 -0.199622 -0.200259 -0.200908 -0.201569 -0.202243 -0.202931 -0.203632 -0.204348 -0.205079 -0.205825 -0.206588 -0.207367 -0.208163 -0.208978 -0.209810 -0.210662 -0.211533 -0.212424 -0.213335 -0.214268 -0.215222 -0.216199 -0.217198 -0.218220 -0.219267 -0.220338 -0.221433 -0.222555 -0.223702 -0.224876 -0.226077 -0.227306 -0.228563 -0.229849 -0.231163 -0.232506 -0.233877 -0.235276 -0.236703 -0.238157 -0.239638 -0.241145 -0.242679 -0.244239 -0.245825 -0.247436 -0.249073 -0.250734 -0.252420 -0.254130 -0.255864 -0.257621 -0.259402 -0.261207 -0.263033 -0.264883 -0.266754 -0.268648 -0.270563 -0.272499 -0.274456 -0.276434 -0.278432 -0.280450 -0.282488 -0.284545 -0.286622 -0.288717 -0.290831 -0.292963 -0.295114 -0.297281 -0.299467 -0.301669 -0.303888 -0.306123 -0.308374 -0.310641 -0.312924 -0.315220 -0.317532 -0.319856 -0.322195 -0.324546 -0.326910 -0.329286 -0.331674 -0.334072 -0.336482 -0.338902 -0.341332 -0.343771 -0.346220 -0.348677 -0.351142 -0.353615 -0.356096 -0.358583 -0.361077 -0.363576 -0.366082 -0.368592 -0.371107 -0.373626 -0.376149 -0.378675 -0.381204 -0.383735 -0.386267 -0.388802 -0.391339 -0.393878 -0.396419 -0.398963 -0.401509 -0.404057 -0.406607 -0.409160 -0.411715 -0.414273 -0.416833 -0.419396 -0.421961 -0.424530 -0.427101 -0.429674 -0.432251 -0.434830 -0.437413 -0.439998 -0.442586 -0.445177 -0.447772 -0.450369 -0.452970 -0.455574 -0.458181 -0.460792 -0.463406 -0.466023 -0.468644 -0.471268 -0.473896 -0.476527 -0.479162 -0.481801 -0.484443 -0.487089 -0.489740 -0.492393 -0.495051 -0.497713 -0.500379 -0.503049 -0.505723 -0.508401 -0.511083 -0.513769 -0.516460 -0.519155 -0.521855 -0.524559 -0.527267 -0.529980 -0.532697 -0.535419 -0.538146 -0.540877 -0.543613 -0.546354 -0.549100 -0.551850 -0.554605 -0.557366 -0.560131 -0.562902 -0.565677 -0.568458 -0.571244 -0.574035 -0.576831 -0.579633 -0.582440 -0.585253 -0.588071 -0.590894 -0.593723 -0.596558 -0.599398 -0.602244 -0.605095 -0.607953 -0.610816 -0.613685 -0.616559 -0.619439 -0.622325 -0.625216 -0.628113 -0.631015 -0.633923 -0.636836 -0.639755 -0.642678 -0.645608 -0.648542 -0.651482 -0.654427 -0.657377 -0.660332 -0.663293 -0.666259 -0.669229 -0.672205 -0.675186 -0.678171 -0.681162 -0.684158 -0.687158 -0.690164 -0.693174 -0.696189 -0.699208 -0.702233 -0.705262 -0.708296 -0.711334 -0.714377 -0.717425 -0.720477 -0.723534 -0.726595 -0.729660 -0.732730 -0.735804 -0.738883 -0.741966 -0.745053 -0.748145 -0.751240 -0.754340 -0.757444 -0.760551 -0.763663 -0.766779 -0.769899 -0.773023 -0.776150 -0.779282 -0.782417 -0.785556 -0.788699 -0.791845 -0.794995 -0.798149 -0.801307 -0.804467 -0.807632 -0.810800 -0.813971 -0.817146 -0.820324 -0.823505 -0.826690 -0.829878 -0.833069 -0.836263 -0.839460 -0.842661 -0.845864 -0.849071 -0.852281 -0.855493 -0.858709 -0.861927 -0.865148 -0.868372 -0.871599 -0.874829 -0.878061 -0.881296 -0.884533 -0.887773 -0.891016 -0.894261 -0.897508 -0.900758 -0.904011 -0.907266 -0.910523 -0.913782 -0.917044 -0.920308 -0.923574 -0.926842 -0.930112 -0.933384 -0.936659 -0.939935 -0.943213 -0.946494 -0.949776 -0.953060 -0.956345 -0.959633 -0.962922 -0.966213 -0.969506 -0.972800 -0.976096 -0.979393 -0.982692 -0.985992 -0.989294 -0.992597 -0.995902 -0.999207 -1.002514 -1.005823 -1.009132 -1.012443 -1.015755 -1.019068 -1.022382 -1.025697 -1.029013 -1.032330 -1.035648 -1.038967 -1.042287 -1.045607 -1.048928 -1.052250 -1.055573 -1.058896 -1.062220 -1.065545 -1.068870 -1.072196 -1.075522 -1.078848 -1.082175 -1.085502 -1.088830 -1.092158 -1.095486 -1.098814 -1.102143 -1.105471 -1.108800 -1.112129 -1.115458 -1.118786 -1.122115 -1.125444 -1.128772 -1.132101 -1.135429 -1.138757 -1.142085 -1.145412 -1.148739 -1.152066 -1.155392 -1.158718 -1.162043 -1.165368 -1.168692 -1.172016 -1.175339 -1.178661 -1.181983 -1.185303 -1.188623 -1.191943 -1.195261 -1.198578 -1.201895 -1.205211 -1.208525 -1.211839 -1.215151 -1.218462 -1.221772 -1.225081 -1.228389 -1.231696 -1.235001 -1.238305 -1.241608 -1.244909 -1.248209 -1.251509 -1.254806 -1.258103 -1.261398 -1.264692 -1.267985 -1.271277 -1.274567 -1.277856 -1.281144 -1.284431 -1.287716 -1.291000 -1.294283 -1.297564 -1.300845 -1.304124 -1.307401 -1.310678 -1.313953 -1.317227 -1.320500 -1.323771 -1.327041 -1.330310 -1.333577 -1.336844 -1.340108 -1.343372 -1.346634 -1.349896 -1.353155 -1.356414 -1.359671 -1.362927 -1.366181 -1.369435 -1.372687 -1.375937 -1.379187 -1.382435 -1.385681 -1.388927 -1.392171 -1.395414 -1.398655 -1.401895 -1.405134 -1.408372 -1.411608 -1.414843 -1.418076 -1.421308 -1.424539 -1.427769 -1.430997 -1.434224 -1.437449 -1.440673 -1.443896 -1.447117 -1.450338 -1.453556 -1.456774 -1.459990 -1.463204 -1.466418 -1.469630 -1.472840 -1.476050 -1.479258 -1.482464 -1.485669 -1.488873 -1.492076 -1.495277 -1.498477 -1.501676 -1.504873 -1.508069 -1.511264 -1.514457 -1.517649 -1.520839 -1.524028 -1.527216 -1.530403 -1.533588 -1.536772 -1.539954 -1.543135 -1.546315 -1.549493 -1.552670 -1.555845 -1.559019 -1.562192 -1.565363 -1.568533 -1.571702 -1.574869 -1.578035 -1.581199 -1.584362 -1.587524 -1.590684 -1.593843 -1.597000 -1.600156 -1.603311 -1.606464 -1.609615 -1.612766 -1.615914 -1.619062 -1.622208 -1.625352 -1.628495 -1.631636 -1.634775 -1.637912 -1.641047 -1.644180 -1.647311 -1.650440 -1.653566 -1.656690 -1.659812 -1.662931 -1.666047 -1.669160 -1.672271 -1.675379 -1.678483 -1.681585 -1.684683 -1.687778 -1.690870 -1.693958 -1.697043 -1.700124 -1.703202 -1.706275 -1.709345 -1.712411 -1.715473 -1.718530 -1.721583 -1.724633 -1.727677 -1.730717 -1.733753 -1.736784 -1.739810 -1.742832 -1.745848 -1.748860 -1.751866 -1.754868 -1.757864 -1.760854 -1.763840 -1.766819 -1.769793 -1.772762 -1.775725 -1.778682 -1.781633 -1.784578 -1.787516 -1.790449 -1.793375 -1.796295 -1.799209 -1.802116 -1.805016 -1.807910 -1.810797 -1.813677 -1.816550 -1.819416 -1.822275 -1.825126 -1.827971 -1.830807 -1.833637 -1.836459 -1.839273 -1.842080 -1.844878 -1.847669 -1.850452 -1.853226 -1.855993 -1.858751 -1.861501 -1.864243 -1.866976 -1.869700 -1.872416 -1.875123 -1.877821 -1.880510 -1.883190 -1.885861 -1.888523 -1.891176 -1.893819 -1.896452 -1.899077 -1.901691 -1.904296 -1.906891 -1.909476 -1.912052 -1.914617 -1.917172 -1.919717 -1.922251 -1.924775 -1.927289 -1.929792 -1.932284 -1.934766 -1.937237 -1.939697 -1.942146 -1.944584 -1.947010 -1.949426 -1.951830 -1.954222 -1.956604 -1.958973 -1.961331 -1.963677 -1.966011 -1.968334 -1.970644 -1.972942 -1.975228 -1.977502 -1.979763 -1.982012 -1.984249 -1.986472 -1.988683 -1.990881 -1.993067 -1.995239 -1.997398 -1.999545 -2.001678 -2.003797 -2.005903 -2.007996 -2.010075 -2.012141 -2.014193 -2.016231 -2.018255 -2.020265 -2.022261 -2.024242 -2.026210 -2.028163 -2.030102 -2.032026 -2.033936 -2.035831 -2.037711 -2.039576 -2.041427 -2.043262 -2.045082 -2.046888 -2.048677 -2.050452 -2.052211 -2.053954 -2.055682 -2.057394 -2.059090 -2.060771 -2.062435 -2.064083 -2.065716 -2.067332 -2.068931 -2.070515 -2.072081 -2.073632 -2.075165 -2.076682 -2.078182 -2.079665 -2.081132 -2.082582 -2.084015 -2.085431 -2.086830 -2.088212 -2.089578 -2.090926 -2.092258 -2.093573 -2.094871 -2.096151 -2.097415 -2.098662 -2.099892 -2.101105 -2.102301 -2.103480 -2.104642 -2.105787 -2.106915 -2.108025 -2.109119 -2.110195 -2.111255 -2.112297 -2.113322 -2.114330 -2.115320 -2.116294 -2.117250 -2.118189 -2.119111 -2.120015 -2.120902 -2.121772 -2.122625 -2.123460 -2.124278 -2.125079 -2.125862 -2.126628 -2.127377 -2.128108 -2.128822 -2.129518 -2.130197 -2.130859 -2.131503 -2.132129 -2.132738 -2.133330 -2.133904 -2.134460 -2.134999 -2.135520 -2.136024 -2.136510 -2.136978 -2.137429 -2.137863 -2.138278 -2.138676 -2.139056 -2.139419 -2.139764 -2.140091 -2.140400 -2.140692 -2.140966 -2.141222 -2.141460 -2.141681 -2.141884 -2.142068 -2.142235 -2.142385 -2.142516 -2.142629 -2.142725 -2.142802 -2.142862 -2.142903 -2.142927 -2.142933 -2.142921 -2.142890 -2.142842 -2.142776 -2.142691 -2.142589 -2.142469 -2.142332 -2.142178 -2.142008 -2.141823 -2.141624 -2.141410 -2.141182 -2.140942 -2.140689 -2.140424 -2.140147 -2.139860 -2.139563 -2.139256 -2.138940 -2.138616 -2.138284 -2.137945 -2.137599 -2.137247 -2.136889 -2.136527 -2.136160 -2.135789 -2.135415 -2.135038 -2.134659 -2.134279 -2.133898 -2.133516 -2.133135 -2.132755 -2.132376 -2.131999 -2.131624 -2.131253 -2.130885 -2.130520 -2.130156 -2.129791 -2.129422 -2.129048 -2.128666 -2.128274 -2.127870 -2.127452 -2.127018 -2.126565 -2.126092 -2.125596 -2.125075 -2.124527 -2.123950 -2.123341 -2.122700 -2.122022 -2.121307 -2.120552 -2.119755 -2.118914 -2.118026 -2.117090 -2.116104 -2.115064 -2.113970 -2.112819 -2.111609 -2.110337 -2.109002 -2.107602 -2.106133 -2.104595 -2.102985 -2.101301 -2.099540 -2.097701 -2.095781 -2.093779 -2.091692 -2.089517 -2.087254 -2.084899 -2.082451 -2.079907 -2.077266 -2.074524 -2.071681 -2.068733 -2.065679 -2.062517 -2.059244 -2.055859 -2.052358 -2.048741 -2.045004 -2.041146 -2.037165 -2.033058 -2.028823 -2.024459 -2.019962 -2.015331 -2.010564 -2.005659 -2.000613 -1.995424 -1.990091 -1.984610 -1.978980 -1.973199 -1.967264 -1.961174 -1.954926 -1.948519 -1.941949 -1.935215 -1.928315 -1.921246 -1.914007 -1.906595 -1.899008 -1.891244 -1.883301 -1.875177 -1.866869 -1.858376 -1.849695 -1.840824 -1.831761 -1.822504 -1.813050 -1.803399 -1.793546 -1.783491 -1.773231 -1.762758 -1.751898 -1.740297 -1.727592 -1.713422 -1.697422 -1.679231 -1.658485 -1.634822 -1.607880 -1.577294 -1.542703 