-0.971432 -1.220484 -1.455150 0.867400 -4.425331 -4.618248 0.288416 2.665227 2.511952 4.788538 3.209811 -2.319474 -2.905233 1.609451 7.764068 -1.813879 -1.330612 -5.676635 -3.246268 -4.821562 2.098009 -0.012466 -1.329895 -1.566066 -0.157066 5.481096 1.655875 4.414504 0.847212 1.079898 1.071729 3.711580 -0.291054 2.443782 -1.135823 -2.693953 3.490374 -0.095677 -5.176661 -0.612760 -0.502265 -3.336630 -2.443386 1.227917 -7.353450 0.206157 0.268533 -4.834312 1.555047 1.205979 -4.300504 5.030566 1.092641 -3.737576 -2.248997 -0.579613 -0.749382 -1.372151 -3.436006 -4.938279 -3.827437 -2.369215 3.356667 3.996755 2.543864 2.376715 -2.014720 0.454965 3.723828 2.356880 0.912236 7.742769 -5.347742 -9.914508 2.505666 -0.840943 0.617491 1.954814 1.171006 -4.718831 -4.478745 -0.935532 4.543939 -1.040851 -0.887248 -3.497698 -2.077585 -3.712766 -1.785989 -6.577707 -2.406192 2.154064 -4.458803 1.981449 4.103183 -1.947454 2.185511 -5.022470 2.683378 0.639712 -0.095528 1.893328 -4.306349 5.125887 -1.476720 -0.184214 0.359602 -2.304880 -4.427603 -0.596186 3.925719 -0.936433 -1.070835 0.181120 -1.909207 -3.409159 -4.267761 -0.633584 3.001164 2.991447 -3.407880 1.121477 1.584567 -0.604805 -7.427588 3.266371 3.001007 2.823526 1.273358 -0.617463 -2.269051 7.280774 0.211726 0.596920 4.756810 0.280118 -0.069635 -7.005039 6.608860 8.341226 2.110111 2.159587 0.161540 -1.600366 2.424768 1.967704 0.863474 1.588173 3.198490 -2.696521 1.773577 2.068754 1.762384 0.942982 0.956813 3.060653 1.720895 -3.594410 -3.943807 0.089441 2.028109 2.957518 -1.059196 2.134965 -0.865489 5.615172 -3.183337 -6.184425 -4.215236 1.525879 -0.922125 6.075740 -1.832495 -2.864430 4.310700 2.042131 -3.103940 -1.796052 -1.706307 -2.443452 2.229915 -3.860054 -0.052656 2.268528 -2.845419 3.942341 0.272812 0.380682 2.482890 -0.831998 -2.802463 -1.879389 3.787705 6.945184 -3.789999 3.676164 0.415724 -4.113746 0.501049 -1.953806 2.722067 -4.996686 4.266556 2.533219 -0.710487 -2.000149 -2.345535 3.589110 1.706587 2.951468 1.656552 -6.676169 -0.873825 2.592854 -0.999456 -3.795858 -2.906043 2.617392 -1.843853 -0.926398 2.573387 -1.010446 1.995913 -3.175690 1.109744 -2.389013 3.180439 1.491245 -4.197405 -0.023260 -4.688083 -0.468091 -3.187558 -0.014100 6.535875 0.761596 1.033166 -5.529912 0.403221 -2.011490 -1.709667 -2.217126 -0.298371 0.765488 0.397159 0.893103 1.810329 -0.747025 0.312041 0.358447 4.949979 -0.296572 2.241734 1.670889 -5.861026 -0.497079 2.547284 0.943701 4.681332 2.638210 -0.328287 -1.969110 0.286146 3.457601 1.518771 2.946510 1.488766 0.875101 -3.834485 3.836787 -2.426611 6.006690 3.016895 -0.440061 -0.200976 -1.607201 -0.478180 -2.697116 0.365619 -8.193248 -3.750913 -0.721026 1.409490 -2.512375 3.999820 0.316566 1.061287 -1.077607 -1.946006 0.816540 -0.278429 -0.998492 1.374607 0.432709 -4.489825 0.357129 0.722689 -2.222574 -4.514990 -0.487206 1.298601 -0.114728 2.486019 2.133636 -3.354254 3.917000 -1.877680 -3.497734 -0.341885 1.648206 2.338542 -4.147575 0.616712 -4.235777 0.059501 2.697717 -3.614121 -5.659513 6.158864 3.176597 1.989829 1.941362 -2.267016 1.560525 -1.079336 -7.850507 4.260814 -4.437427 1.227961 -2.588939 1.637645 1.125654 3.954759 0.815886 -3.686744 -2.501731 -1.513798 0.382999 6.831159 -1.706566 -5.982437 2.152884 2.316658 -0.926173 -3.153249 -2.101561 2.454316 5.438703 -1.376069 -0.130690 0.384901 -1.533940 -0.591137 -2.833357 -0.156336 -4.323061 -1.011637 4.118083 -2.787152 -1.451421 -0.153632 5.382048 0.551068 -1.994064 -3.494816 2.579386 3.329521 -0.453374 2.282072 -0.929867 -0.434226 -2.222523 -3.394169 -2.715333 7.093166 -4.492071 2.125789 -3.671457 1.221336 3.257038 2.786840 -3.319886 2.968024 -1.205692 2.092691 0.934443 -1.406488 3.808217 -2.741583 -1.286897 -3.190963 2.743364 -1.666383 3.527341 4.501636 -1.895380 -0.661417 3.555841 -2.476489 0.891991 0.040885 -0.496129 3.625561 -2.811925 -1.106957 2.070313 4.093979 -5.002787 -0.350271 -0.287506 -0.833310 3.685266 5.093948 0.499627 5.886231 -0.096049 1.605761 -6.122103 1.703967 2.263019 2.411399 -4.602650 0.024763 0.022574 -1.785709 1.852573 -0.949144 -1.424568 6.049412 -4.060248 2.961952 -0.611350 -2.281282 -1.486515 -5.931702 -1.709409 5.107727 -3.315263 0.379644 2.804144 -2.451611 1.677818 -3.190602 0.888749 4.366880 -3.251854 0.416944 2.635788 -3.252905 -1.569067 -5.687439 -1.020873 7.941902 -3.899696 2.620694 -0.791139 0.385146 -4.188796 0.886538 -2.349994 2.230376 -0.172878 -0.041495 -0.439096 -2.028767 -0.711776 -0.012664 -2.914885 -2.405691 2.514451 -1.787676 1.064609 0.854197 1.168525 -1.532905 2.297140 -3.445734 2.638574 0.805373 2.878257 -3.782573 -1.731833 -0.878494 2.041992 -4.375702 2.346519 0.501966 0.001573 -0.047141 -4.157572 2.650439 -1.205118 -3.520531 2.597392 0.870122 7.687819 2.375199 2.882789 -4.428008 -1.555317 4.486922 -0.410250 3.405747 -1.253305 -3.671208 0.736495 1.317402 1.364979 0.633564 0.215411 0.068278 7.464827 5.050054 3.895782 -4.210713 4.040951 0.379944 -4.712006 -0.884055 1.015025 1.327380 -2.303922 1.826866 -0.607531 -2.555099 1.761172 1.441564 5.215408 2.672469 -3.055673 6.591512 4.770083 -1.124494 0.220359 -1.793697 -1.540452 3.131549 -1.005001 -3.581198 -2.803290 1.154906 -4.291952 -0.068466 4.923521 2.442569 -3.879269 -1.164378 5.127783 -2.058606 -1.172046 4.722951 -2.795219 -2.309213 -0.955377 2.357408 3.253199 -3.160868 1.362522 0.946160 -4.428731 2.786292 4.174757 4.648375 -2.441661 2.165918 -0.205584 0.308991 3.040880 -0.430841 -1.049882 4.103217 0.033405 3.099914 -0.099529 -4.125492 0.220474 -10.114336 0.900441 -1.181572 -2.234256 0.093460 2.734881 4.853740 -0.804967 -1.322738 0.644957 -0.004232 1.946634 2.998292 -1.436745 1.483049 -3.577498 -0.992529 4.827250 2.889649 1.381411 0.931128 -1.396192 2.281257 1.823482 -5.883976 3.807716 -3.487634 7.590767 -0.918272 0.346806 -1.820574 -2.760669 -1.434620 -0.846845 0.740120 -0.508267 1.233661 -3.888928 -1.689746 4.673812 3.163238 6.983616 -2.895152 -0.883163 2.536529 -0.519072 -0.193817 2.123941 0.559715 -0.107013 -4.882939 0.593038 0.154634 -0.238255 -5.435876 -0.976140 1.140445 -2.359823 3.557003 -2.466154 1.177244 -6.666605 1.703160 3.225188 1.277591 2.761007 -2.848440 -1.281507 2.579386 -5.649557 -0.788446 -4.091815 -1.054997 -4.560889 -0.709209 -0.750193 -3.234918 -1.929670 -3.123314 2.785003 -1.317483 -6.233100 1.072058 0.134819 2.139581 3.864707 -2.101713 -3.284104 0.902357 -1.556434 1.190036 2.248461 0.822305 0.036855 -4.444470 0.926597 3.250122 -0.859196 -3.276759 -2.327482 -7.124177 0.025083 -3.304430 7.508869 3.392282 -0.000853 1.356197 0.225789 3.705843 0.228869 4.895624 -0.268542 -3.495788 -4.550218 2.666132 -3.993894 -2.793139 2.688424 -1.420347 0.896321 -1.428236 2.418305 4.084031 0.238800 -1.612031 -0.681350 -0.700896 4.308637 -3.002435 0.717273 0.068439 2.725341 -0.569221 -4.625436 -5.205499 3.921137 8.714681 -2.781985 1.082523 1.621253 -0.684944 -2.037179 -0.185453 -0.854157 -4.963682 -4.183654 2.166992 2.815090 -1.007423 -2.257943 4.777527 0.810111 3.514258 -2.418270 -1.299793 -1.596537 6.318032 0.937658 0.732948 3.216375 -2.105066 -3.174858 -3.576671 2.532250 4.982323 1.681708 3.723598 0.617240 1.838821 0.411073 4.107966 -2.542223 -4.843815 3.596865 -3.848441 1.877172 -1.408961 -0.363555 2.462412 -2.891208 1.475325 -6.774508 0.384658 4.516202 -0.705191 1.885015 -0.835904 0.226122 0.978524 1.291662 -1.460626 8.548493 4.619425 -4.305200 0.869773 -3.209666 -1.857785 0.889240 -5.152919 3.014826 0.242442 0.289384 -1.603725 5.218409 -3.627016 -4.226913 -0.042816 1.988893 1.832177 -4.439574 -2.477936 1.161879 0.740509 -1.478929 -0.642841 -0.824331 3.934995 -2.944241 3.875304 -2.681013 3.738302 -0.140372 -1.856169 -1.200474 -0.834279 1.261642 3.029358 -3.563078 -1.756993 -1.030312 -2.823407 -4.465108 -0.654243 3.573974 -1.580285 -3.596002 -1.341972 -0.483523 -2.848715 3.470473 -3.357730 -0.279762 -0.782974 10.078037 -3.960759 -1.306240 5.173944 -6.394802 0.777819 0.604322 -5.587740 -2.346162 2.996200 -0.653162 -0.729837 -4.919857 -4.536408 -0.908394 1.491186 0.003774 -1.097409 1.503020 1.380810 1.675475 2.317383 -0.336782 2.388886 1.352751 -6.836893 0.658198 -2.790202 5.160497 -0.184734 0.324720 0.582080 -1.441996 -2.734034 -3.636997 2.013206 7.539472 3.268154 2.449425 -4.692438 1.473850 4.531912 -1.857136 5.990868 2.543261 -4.313950 -2.339421 -0.361723 0.064822 -0.722921 -3.339462 -5.070517 0.778271 5.029930 0.395751 0.508851 -1.328147 7.604753 -5.070809 -2.180712 -4.075669 1.422917 1.471185 -2.119202 0.978069 0.805870 3.377102 -1.613639 -0.026192 2.686230 1.006853 5.194637 3.319534 2.335188 2.208754 0.112269 -1.223197 -0.422752 -0.736214 -4.016036 1.382618 7.690267 -8.319619 0.796765 4.202420 3.232353 4.463931 -1.294377 -2.831810 -2.113416 6.271842 1.347371 -2.378971 1.162378 3.668295 -0.050756 -1.372920 -0.030682 -0.308067 4.050878 5.023864 -1.792292 4.392469 1.065915 -0.637584 -7.207476 1.100686 1.931494 -0.477956 3.974076 0.286280 3.128381 -4.210627 -0.614469 5.366100 0.002229 -5.955366 -3.999499 4.450462 -0.608984 2.120674 -5.322422 -7.806084 -2.565272 0.810688 9.464514 4.362376 -5.075615 0.998175 -2.611083 -2.545989 -1.484055 -2.089342 -6.267401 -0.922952 -3.853254 -2.418640 3.432652 2.874564 -0.303526 0.668149 -3.787319 0.374859 4.627874 -0.106411 -3.266217 2.947063 -0.428010 5.230075 -1.214603 -4.755975 -0.611355 -0.737216 1.480753 0.134174 2.111914 1.285433 -1.206079 -1.783361 -2.650505 0.652068 2.114927 0.290600 -0.350401 2.352806 -3.034878 1.728894 -0.685924 -2.667573 2.751125 -1.418256 1.186871 -2.049745 -0.848645 -0.171222 0.083722 0.260188 2.660468 3.826269 2.678999 -0.277757 8.707599 6.191599 4.862083 9.388162 -2.861611 -0.667245 -2.227371 -6.246796 -5.240587 -5.211676 -2.637938 -3.538843 -5.423125 -2.731668 -1.477492 4.570695 -4.531074 0.034285 -0.101807 2.264084 -1.461446 2.188074 6.463572 -0.971088 0.088462 -8.658161 -2.498117 -0.036541 -1.411639 5.200094 -5.436973 -3.224965 4.165725 3.740768 -1.944241 4.297199 0.188130 2.405488 -3.722141 6.516808 -1.479782 -0.856059 -0.101624 -4.465676 -0.764029 -3.166657 -5.009396 1.293896 2.426645 -1.043602 -2.705182 4.679607 -3.825712 -1.774232 -0.449470 -5.430828 0.496650 2.314748 1.405734 1.120809 -0.547511 4.209758 1.308017 4.779805 -6.206951 -0.813899 -5.662474 -3.518884 2.144745 0.994508 0.237821 3.622230 1.382048 0.560037 -3.160500 -0.538318 -0.724915 -1.526397 0.705627 4.883476 -2.201351 -0.133715 4.081285 -1.253689 -0.370655 -7.631445 2.422299 -0.365595 -1.383155 1.284897 -4.202234 0.147454 -1.817766 -3.285984 -2.449009 -2.927952 -0.642351 -1.759529 -1.874048 -3.933994 -5.289065 -0.923006 1.206295 -3.043771 4.687401 -0.517484 -0.440411 -0.033963 0.686046 2.622068 0.874138 5.011218 -0.086741 -0.503729 -2.588024 -1.553028 0.808962 1.911069 -0.210572 -1.065414 3.839282 2.400397 4.274143 0.663317 0.861451 2.838592 -3.646420 -0.176873 -1.120964 -2.072380 2.536851 0.828611 5.407889 0.816849 6.477678 -0.112997 3.308913 2.343494 1.461559 -2.440055 3.253557 1.166195 -4.656509 -0.457556 2.580047 3.519380 4.532583 0.931190 -1.117111 2.470350 4.954429 -6.619664 1.041683 0.175092 -8.278586 -3.162123 -6.928610 -2.511890 -0.410483 -5.530610 -3.183985 0.418967 -4.319298 5.668710 6.449091 -0.100244 -1.652388 0.919399 12.145856 -7.422000 9.381124 -3.681693 -9.462584 -5.637016 7.576168 0.579584 -5.684608 -5.611450 0.496579 -0.203225 1.187632 1.455729 -1.934054 3.441534 2.861253 2.778870 2.399061 2.178254 -3.216608 -1.534706 -3.612828 -0.626116 -2.326438 -0.175931 1.233957 -4.829526 -2.840794 1.088517 5.264015 4.898092 0.000036 -4.914942 2.210238 1.175990 5.555899 -5.101692 1.392924 -2.807055 -2.084635 3.402023 1.757337 -5.119695 -3.466800 2.701004 1.172938 4.768112 -2.203331 1.285230 3.132874 2.562487 4.558166 -2.116845 -1.350290 6.553664 1.058128 0.715690 -2.106229 -1.031235 -0.927360 1.840532 3.528473 -1.036441 1.587000 -0.891201 -4.931369 -0.028641 -5.309595 3.399379 0.606554 -0.154442 2.441151 -0.169111 1.235679 -0.524387 -2.138828 1.211352 2.257874 3.311543 -0.761116 -4.963707 -2.036130 -3.326660 0.414549 9.553784 -5.408796 -3.473883 1.062336 -5.927420 1.609983 -4.230450 4.414745 -4.197117 -2.873304 -1.208161 -3.110189 0.424123 -7.257181 0.058303 1.683100 -0.011277 4.937433 -1.543639 0.005025 -4.148586 -1.743710 -3.853960 -1.282372 -5.136035 -2.050182 0.025795 -5.116017 2.086884 -3.279422 0.778454 0.243009 0.038187 2.124336 0.954984 0.638852 0.838786 -1.775637 -0.614655 1.868055 0.722306 -0.121457 -0.400873 4.895491 -4.575809 2.870001 -2.980447 -1.817892 -1.970654 -1.624181 0.452690 7.002097 -6.270522 2.189115 4.344806 -1.457698 1.727218 4.055643 -0.354276 6.741104 -3.302911 -3.417942 2.777778 1.785293 -4.418506 1.903834 3.319299 1.493778 0.849458 2.093573 1.879696 -1.233567 -2.662171 8.620745 1.628004 -1.878718 4.373968 0.938316 -1.525524 2.359309 2.069980 0.710896 -0.322872 2.775151 -3.411169 -2.062699 -0.882081 -3.243866 -2.890641 5.202836 -0.178126 2.159193 -0.641980 3.608564 -2.290620 4.591694 -4.637339 -0.599175 3.555728 -0.713957 1.542481 3.964996 -2.018144 4.752197 -1.404886 0.193874 -5.428612 1.458354 -2.651169 -0.097640 -0.785059 2.198419 3.721446 0.853069 -3.379873 4.147741 -2.566248 0.906362 2.410934 -1.433566 -1.507148 -3.202702 1.211296 0.699332 -4.897601 -2.874142 2.739029 -1.612105 3.901112 -2.481574 1.713104 -1.310131 0.129332 -2.099963 -4.029506 4.284089 6.913638 -6.456003 -2.948960 -0.937109 2.349222 -1.554664 -3.301978 2.455956 0.211659 5.093555 -3.391707 -1.012001 -0.155739 -4.917417 -0.677559 -1.178802 2.899137 0.635004 -1.996014 -2.543411 1.878434 -3.467334 5.734760 2.803512 3.892752 -0.383799 -1.412420 0.303297 0.881059 3.006621 6.605770 0.762832 -4.204430 0.915911 -1.017097 2.105084 3.473024 -0.737518 -3.514238 0.531366 -4.180409 0.165181 -2.921958 0.374942 9.274685 0.347957 -6.432309 0.117077 3.509637 -0.474961 4.390328 -2.525356 2.837839 -1.283343 -1.898300 -3.012729 0.644248 -2.913659 -7.561820 -0.443746 -1.095423 -1.955513 -1.388837 2.140101 -3.689376 -7.013121 -3.737732 -0.267324 -4.644241 -4.186699 -3.613943 -0.620710 1.533583 -3.589189 1.043842 0.774965 -7.137860 0.731730 -7.704624 -3.302911 1.211715 -2.881884 -0.026583 2.319142 -5.549874 -0.020242 2.829831 -3.157514 2.125616 -4.412083 4.595767 -0.636805 0.040440 3.102540 -7.971466 0.402924 2.633023 3.243958 -1.437846 1.502809 1.354893 -3.814412 0.956081 3.795426 -3.737834 -0.475104 7.021840 -1.076059 -0.663565 5.733419 1.865625 1.195909 4.041043 3.219651 6.676357 -5.917271 0.176375 -2.439938 0.631890 2.058696 3.197268 1.317531 -3.987061 -1.440965 -2.163689 -4.029847 1.865759 4.756451 4.066731 -5.319677 0.771229 -3.179714 1.280267 -1.879850 -4.258462 0.644895 1.471394 -2.259475 4.249348 0.696147 -1.090931 2.532942 -2.666515 -4.373330 1.402054 -2.708404 2.256771 0.505522 -4.341544 0.278270 -1.811437 1.884510 -4.412300 4.391746 -0.681900 -0.946109 -0.400893 3.077524 -3.325807 0.908617 3.076697 4.252809 1.927698 1.979137 1.962401 -5.710687 2.233502 -6.195266 7.917853 -1.921352 -1.638176 1.317347 1.629476 -1.036472 0.426531 0.515793 0.108947 1.525003 -4.028211 4.942724 5.193342 -1.516017 -5.149430 -4.610290 4.687829 -3.414121 2.107551 -1.999970 -4.517508 2.228069 -2.771113 6.379300 3.644589 2.280987 2.004083 -0.342450 -1.745982 -0.670446 4.278159 -3.223781 4.608929 -2.504463 -1.124552 2.228153 -2.802744 0.937761 5.374647 0.330772 5.261057 -4.083485 6.471872 1.766244 -3.164465 -1.473988 -3.607243 -0.790066 0.961803 -2.815993 0.512417 -2.636762 1.638016 -3.530605 -4.239668 -2.849732 -0.193975 1.030679 2.364153 -1.441160 -0.302778 3.173074 0.565550 -1.589445 4.254390 -0.465398 4.173956 4.973613 -3.850812 0.812238 -1.260214 -0.294851 -0.735893 3.972197 1.572481 -4.673457 0.336861 3.724801 -2.797420 1.141602 3.348861 1.605174 0.522767 1.138411 -3.624942 0.415986 0.267915 5.135843 -0.253627 -0.093561 2.877492 -2.631651 1.651996 -3.490206 -2.357389 2.678820 -1.836304 0.920133 -2.122328 1.636324 3.967520 -4.622278 -2.006225 -3.788407 -0.535811 -1.463511 -1.804178 3.238238 4.005351 0.420605 7.058617 0.740068 -0.720357 0.209118 2.988858 0.868360 -0.437962 1.971754 -3.829711 0.432945 -1.484573 4.499959 -2.823043 0.783195 2.858658 -0.705394 -2.842980 -0.950092 -3.210936 0.078474 1.759136 0.720177 -0.145183 -2.315333 1.974508 -0.823815 2.366189 6.493126 3.726352 -0.070359 6.187813 -0.110075 -4.114765 3.105412 -0.669276 0.855010 -0.492686 -0.315597 2.175831 -0.902330 -7.038523 1.401233 -2.266501 0.357797 -0.940347 1.642153 3.083387 -2.746370 2.251198 2.517339 1.723175 1.231589 3.430516 -0.521041 -5.384171 -2.941322 3.374852 -1.534933 -1.571453 -1.162473 -3.365342 0.300421 5.681661 1.190932 0.778779 0.975993 1.541499 -1.190152 -2.756142 -1.712953 -7.155890 -0.492097 6.280652 -2.211918 1.143274 -0.767697 0.896224 1.282892 -0.989477 -3.193851 -0.544780 -1.490604 -1.449939 1.084690 3.279629 2.144804 -0.396233 -1.451083 -2.635003 -4.299327 1.763586 -0.307809 3.474783 3.966233 -9.558235 0.716501 1.547744 -3.954242 -3.270957 -2.975230 1.644300 -0.674536 -0.318160 -1.791386 1.738249 1.621420 1.692358 1.141630 0.646996 0.001676 0.074234 2.745129 -3.338521 -4.645869 -2.943085 0.176114 -1.059676 -1.471917 3.680286 7.104201 -2.789856 0.134330 -3.523964 -1.775907 0.496988 1.786644 -0.559715 1.033641 0.701706 -3.393834 -3.520220 1.214562 5.172173 -0.655696 1.582281 0.988075 -1.589785 -2.716010 -3.127089 0.430810 1.433849 4.669973 -2.720563 -1.384502 -0.013853 -1.589424 -0.641894 2.057603 -4.803921 1.146865 2.618415 -0.742916 2.242289 -0.283643 0.598559 3.168987 4.816429 0.574728 0.341167 0.703357 0.942219 -1.874845 -0.801812 -0.827660 6.391670 -1.701545 2.027045 -5.781316 2.430544 4.027556 5.218690 -2.104884 6.803912 -0.707368 -6.805322 -0.780988 2.513887 2.373221 0.248455 0.149713 3.026565 -5.325107 0.971186 -1.064307 -3.654336 -3.409148 -5.574377 -2.096323 -2.504933 -2.152387 -1.349837 -0.891005 -0.220951 -2.333030 -1.220148 -3.392157 -2.698683 -2.421989 2.794663 3.396735 4.474005 3.468855 -1.329833 0.822309 -0.839343 -0.418568 3.838582 -1.635650 0.506726 0.015300 0.637532 1.153299 -3.604955 3.339171 -3.494267 -0.241807 -0.752982 1.547331 -4.738852 -0.160925 0.013834 0.063589 -8.051802 0.420143 4.364706 1.698211 0.683803 -1.152561 2.405192 -0.512664 -2.038085 -0.935829 0.936164 4.337550 2.073337 4.137273 -1.597511 -2.241039 -2.694819 3.849589 6.386068 2.653980 -3.944549 0.925720 -1.096460 2.886928 2.131786 -1.245391 -1.607026 1.163714 3.257629 -0.350883 -4.963879 0.066663 -0.169546 2.089032 -6.648992 -6.805272 -2.466276 2.580648 3.231619 -0.726222 2.334834 -0.340749 3.538577 -1.480629 -2.757762 -2.325387 2.518886 0.222278 4.668391 5.324147 -5.921765 0.430634 -5.673054 7.017691 -4.747961 1.070348 -3.251874 2.524633 -1.159872 3.191662 2.501141 -0.134054 -2.575824 1.740206 5.612552 0.363189 -0.016059 0.555246 0.698782 -1.706595 4.676535 7.892127 1.844416 -1.019068 0.861064 3.974032 0.197214 0.469032 0.248476 1.925553 3.188678 -0.094930 -1.857672 -5.631444 -0.671013 -0.791243 3.668985 -1.396575 -1.275893 1.945091 4.726297 3.899335 -3.975070 0.944841 -4.400326 -3.232787 -2.783600 -2.857831 -0.927056 3.562936 7.354573 0.541138 -0.422827 4.554763 1.448201 -3.836013 -2.432443 -5.152238 -5.101833 0.401972 4.647930 2.250652 -0.618683 -0.951951 1.307262 -3.376572 -1.805574 0.430093 0.948071 -0.965580 4.402425 -1.679236 -2.303825 -0.119105 -1.660751 0.982753 -5.488891 3.289488 8.480546 -2.737097 2.199201 -1.869623 -2.356302 -3.688419 0.089186 -3.990575 0.331651 -1.232728 1.865406 -1.206821 -1.810688 -0.081070 0.424292 -5.210127 3.863346 -1.458519 5.981607 -4.267283 1.184472 -3.631166 -1.471041 -1.121683 3.907923 0.770188 -0.067175 -2.599996 2.131241 4.319329 -1.680679 1.880373 1.166190 0.327037 -5.010646 4.886430 -4.965960 -3.491902 0.078351 2.553538 0.538666 0.465155 0.928813 -1.357909 -0.488728 -2.012524 -4.053631 1.644880 -0.095876 4.244632 -0.111364 -4.262791 -1.530648 -0.144874 -0.097139 -0.772784 3.562235 -1.201988 4.189403 1.010264 -0.450479 0.577865 -3.996054 -5.145222 -1.537371 2.542560 -0.026533 -0.846147 -2.404148 -0.452971 0.559662 3.700549 -0.336215 -3.211372 -2.428039 0.839855 0.057724 -0.136526 -2.714617 0.876339 -2.109279 1.589354 -6.638799 -6.761532 -2.506192 4.942950 1.510094 0.530226 -1.791783 2.627465 0.038579 -1.141712 -0.540464 1.273876 1.808836 -2.058732 6.436896 1.719624 1.779573 2.393508 0.287712 0.432690 -2.420859 8.246240 -0.959089 1.455575 -3.679309 -1.338483 -0.713760 -0.258315 -0.819320 3.705067 1.177041 1.053570 -1.180849 -1.918067 4.369804 0.094410 2.335781 0.983577 2.928275 -3.161498 4.003321 8.164062 0.263855 5.629035 4.628101 1.085719 -1.109336 0.378579 0.381158 1.755073 -2.158045 -3.977093 -0.395987 2.252889 -3.678238 -1.941192 4.017283 2.143039 1.182902 1.634243 4.389122 -2.087270 -0.396991 0.579785 2.646842 -1.802857 3.924757 7.440243 -0.164039 -1.455949 -1.486601 -2.635659 0.580701 -5.568278 -2.004416 -3.013717 2.298679 -1.224400 0.040370 0.963990 4.052030 -2.125521 -0.409045 -5.345354 -3.703425 -3.501357 7.135002 -2.012454 6.240371 -3.080600 2.729752 0.426372 -0.733567 -0.570650 -3.593332 -11.296234 -0.270284 3.217463 1.015469 0.165754 1.440769 -0.302534 1.130383 2.035373 -3.482681 -3.263394 4.568442 1.813975 0.630294 1.046354 1.891741 -3.051767 -3.297239 -1.509715 -2.046106 1.904968 0.010058 2.075790 -6.075845 5.173925 -0.872261 -4.865297 -0.499189 6.806967 -2.520691 0.647402 3.494222 0.430437 -4.540318 6.439848 -3.341793 -2.761332 0.138716 5.031981 1.897322 -3.643796 -0.961435 -2.353680 1.037345 3.310913 3.987450 1.689794 -1.334348 -2.155482 -2.574047 1.338147 2.906615 -4.378478 -0.898523 1.612975 6.074327 -6.004047 2.787832 -2.715387 -1.653867 1.060624 -4.488228 -1.390056 0.708933 5.138680 -1.621215 -2.784547 2.094431 -0.853167 4.507723 -2.221017 0.867270 -2.617466 0.999815 -4.212871 -4.892966 1.574941 2.767665 0.705600 0.694050 1.011757 1.418137 -0.858896 -1.978584 3.927097 -1.109611 -1.345136 -3.584705 -2.169733 -6.826289 0.666197 -5.304993 0.956002 -0.647966 -0.475827 -0.359616 -4.546631 -2.280543 3.747867 -1.015398 1.434183 0.347229 0.380666 5.553509 -3.365005 1.547479 -6.508212 0.900189 -8.052833 -3.422210 -3.760186 -1.192077 -4.715094 2.336900 -1.216613 -2.661058 3.748126 0.475093 0.021338 -7.662138 0.395665 1.841464 -2.564157 0.521615 2.790289 1.412779 1.486368 -2.924499 1.758308 -4.456109 -5.693626 -6.943109 4.316966 0.451310 -0.715421 -2.711808 2.131479 -3.195734 -3.403413 -1.909091 2.802730 -5.657640 0.718248 -0.057738 5.018799 0.650325 -0.571101 0.691108 0.840471 0.215624 -2.623178 -2.483635 -2.482341 0.005417 2.118392 1.177925 -1.677998 -0.438191 -2.234700 3.980831 -5.607593 -3.904159 4.179998 1.536260 -4.791381 2.711692 -0.406711 2.357860 -6.066692 4.837547 -3.082030 2.275436 0.958422 -1.672168 1.130351 -1.370876 7.009951 -0.627723 4.776449 3.344493 2.480533 7.226574 0.425427 -4.063614 5.693484 -1.931358 3.519541 -1.156864 1.914640 3.269513 -0.106056 -4.021554 0.854555 -2.387843 -4.450986 1.265779 -2.636414 2.247362 -1.618337 -2.740973 1.450414 1.232547 0.944003 -2.010962 1.103975 0.366339 -0.194041 2.653160 1.867494 -1.370697 -0.352863 2.826367 -3.307583 -2.284246 -4.192612 -3.274255 4.342335 4.412491 -0.053541 3.122519 3.279765 1.038132 1.809077 1.993575 -1.727182 -9.714167 -1.434274 -2.066818 2.131491 -2.307846 1.332982 1.041476 -0.921884 3.212238 0.362954 -0.047063 -0.407164 4.391770 -0.228482 -2.725349 1.347774 1.192097 3.108073 -0.366649 0.106877 5.076498 -2.042071 -0.647721 2.583851 -1.077940 -3.591198 0.263517 -2.600333 -4.997005 -1.206818 1.522960 -2.560522 -4.465938 2.706617 -6.124720 1.051300 3.089592 1.620139 2.847389 -5.330572 2.767307 1.918260 3.739127 -2.740844 -1.791386 -1.450538 -1.235790 1.298858 3.220610 -1.306258 4.356897 -1.863087 -0.028422 0.400791 0.452478 4.704236 -2.832950 -1.869098 -3.654038 2.731308 -1.118507 -6.001335 -4.018301 -3.159236 4.408723 1.997971 -1.484634 -3.095205 1.242978 1.421652 3.839139 -5.402389 -3.595825 4.441239 -0.395918 1.996114 4.022855 0.267685 0.690321 -0.924363 -1.978162 -1.692938 0.429283 -0.745333 3.490091 -3.367760 -1.474883 2.262233 -5.499867 1.859326 3.249408 -8.996866 -1.159883 1.399022 0.455171 -0.436086 5.366900 -6.317210 -1.123804 2.465011 -3.238412 -3.269295 2.484472 0.636504 2.118294 1.653702 2.412916 4.517940 1.221492 -0.616302 -5.144124 -0.977834 -4.219355 6.155782 2.401019 -1.445318 2.171433 3.052534 0.687927 1.600586 1.392076 2.926892 3.181797 -3.105042 3.581466 -0.170277 0.408933 -1.902091 4.267006 7.172562 -1.024274 -0.018493 -1.385144 2.032554 -1.196796 -0.692370 -3.529991 -0.698917 6.272248 -3.829389 0.569132 -1.480947 -0.447399 -5.342774 -0.616671 1.253101 6.844224 -1.871333 2.498464 -2.596372 -0.134143 0.526696 3.209407 0.895082 -0.372452 -0.694229 2.654221 1.971053 -5.515548 -2.797801 0.712166 4.520461 4.294896 0.023863 0.630987 1.401732 -0.279039 1.065317 -1.810472 -6.984432 -5.527503 3.035121 0.516490 1.980279 -0.997831 0.645702 4.041692 -1.200098 0.208085 -2.594382 2.568477 -4.530993 -0.700768 1.830467 3.452897 -0.421315 3.580899 -1.934649 -0.395295 -5.193691 4.631840 1.462798 -0.061047 -2.897048 -1.043345 4.750061 1.011184 1.167790 -3.877266 -2.544611 3.221456 -3.536239 -0.025238 -0.561480 -3.325964 0.475326 -6.974059 -1.503501 3.296608 3.612132 4.340206 0.510020 -3.478012 1.775445 4.463506 3.067017 1.214208 2.902373 1.669444 1.477149 2.125278 -2.740835 6.094246 0.976474 5.696985 -1.590055 -0.233354 2.871007 2.347825 6.826739 -0.437172 0.010014 3.217690 -5.179249 -5.147892 -0.812976 -4.224826 -4.282483 3.817340 1.908221 3.474405 0.739257 2.853273 -4.468014 0.832050 0.566546 -0.746294 -2.159538 -1.931814 3.419968 -5.329625 0.176768 0.978054 -1.940609 -4.049088 0.037463 -3.202958 4.762296 -2.730519 1.547203 1.081115 -6.044438 2.020760 1.427899 -2.262447 -4.615415 -0.704992 -0.807569 3.896003 2.503507 -2.765757 1.245916 -0.860585 -2.483456 -4.123391 -0.608493 -4.360381 0.965146 -0.064447 2.542309 4.180420 -3.781001 1.638759 1.895460 -1.329737 -6.367150 -2.057765 -2.526921 1.954125 0.335993 0.572809 -4.556923 -4.321568 -4.476639 4.700064 -1.257244 0.493566 -0.630441 4.998406 -1.457967 0.759278 1.581113 -3.819148 -0.559612 -0.802183 -1.626985 0.400936 -2.791072 1.106602 0.820296 -1.496779 2.114119 -1.222439 -0.798129 -0.779226 -0.726990 1.719420 0.618871 -2.072910 4.151453 2.732088 -0.340826 0.359843 0.862512 -7.142107 -2.122419 0.672083 4.262635 -3.959007 2.957697 -0.126333 5.831770 -0.564190 -1.306540 -8.349163 2.141161 -2.760821 2.238149 2.428746 1.436128 -1.386171 -3.980688 4.244427 -2.101684 -2.120363 -2.095916 0.040459 -1.244349 6.684545 2.005862 -0.269007 3.476252 -3.862025 -1.878192 -1.418531 0.597311 1.039382 1.925023 1.283208 1.549974 -0.331217 1.504526 1.506376 -1.672748 -1.690049 3.197192 1.049110 -2.213552 -3.435334 -1.423386 -0.970381 1.611402 3.080792 1.230026 0.439592 -1.521705 2.666197 -0.329565 2.507758 -1.304702 3.910740 6.979893 7.081094 0.189904 -0.508511 8.800367 1.129546 0.992485 0.874909 0.040391 -6.037427 -1.157353 1.817570 0.250744 -0.687228 -4.887596 4.948032 3.030927 4.811655 -3.996837 0.916781 5.800139 -1.355574 4.505247 -1.891283 -1.390855 4.162595 2.954752 -2.872473 -1.603696 -5.843726 -1.094895 0.897429 2.561904 0.510301 -2.423112 -5.666995 2.741906 1.930518 -6.528424 -9.728719 5.973181 1.924377 -2.335287 4.222275 -3.922774 -2.033224 -0.151308 0.914312 -3.033490 -8.502700 1.697289 -0.119709 4.118679 0.369064 1.186911 1.658428 -0.222956 -1.688409 -3.343244 -0.649356 -4.338713 -6.593063 -2.301946 0.239148 1.911162 -6.374514 1.978668 -3.562507 0.367482 0.054011 -2.639558 2.452821 3.454331 2.120761 4.672332 -1.277004 0.587553 -4.162936 -2.230541 2.794096 -5.075606 3.155452 -1.338483 -0.704292 0.238269 3.798780 -2.178275 -3.678736 -2.424992 0.514233 -1.351310 -4.025938 -0.425812 1.825732 6.040503 -0.659680 0.785967 3.836171 2.811365 -5.603709 -0.438542 -0.956515 5.681798 -2.773905 1.332766 0.960547 -3.964979 -1.733721 4.753418 4.640818 -0.624478 4.635354 -1.326571 7.505351 3.012256 -1.786234 1.828783 -1.369665 -3.842806 -2.909431 -2.641981 4.866852 -0.929377 -0.171517 -1.792620 2.311234 -0.532322 0.180248 -0.057343 4.441283 1.761011 -1.096284 2.599439 4.963616 -1.625707 2.416674 1.996453 3.649041 -3.317007 1.071262 3.306905 -0.793324 -2.961617 -1.142481 1.554663 -2.175696 0.972793 -4.423190 -0.526185 -0.726248 -0.301260 2.143927 -1.321694 -3.356420 0.796105 3.065455 -5.796912 1.342775 0.646912 5.027468 2.702034 -4.894824 -2.121515 -0.982968 -0.786134 1.511587 -2.760163 2.529338 -6.728711 -0.913329 5.106111 3.088588 -3.435089 -4.076072 -2.253253 -1.830511 3.038805 1.390433 -0.077290 -0.296481 -1.759986 2.565174 2.113796 3.891557 -2.997277 -4.447377 -0.167092 4.619515 -0.402267 -0.301468 -0.073601 2.788851 -0.575744 -1.884557 -3.383076 2.424193 0.389579 -0.181061 -0.344674 -0.062047 2.620303 4.834186 -3.902247 0.781304 -2.113823 1.105044 2.518281 1.259533 0.408515 -2.133017 1.989322 -0.498336 -5.246341 -5.805267 0.639370 1.282674 -0.478601 1.930820 -0.902485 -2.413656 2.359457 4.951998 0.322693 7.383652 17.296301 11.220647 6.464457 8.000627 -1.650296 6.095340 4.474237 7.260783 2.243612 5.667680 1.647616 0.416818 -2.598119 -4.684270 -3.226448 -0.732800 -0.156176 -7.012346 -0.100891 -7.518471 -8.961409 -2.400596 -1.697102 -5.382564 -4.832482 1.227470 -5.058354 -3.318801 -1.040536 -5.392141 1.141849 -4.777609 -0.873370 3.503232 6.749068 9.505451 -2.984817 3.186148 1.492886 4.391703 -4.794719 -0.821224 2.937645 -4.814635 1.578044 -0.724997 -0.196358 0.225418 -1.590459 2.071713 0.810387 -4.920900 4.691192 2.480505 -3.409347 -1.663919 -0.206981 -2.762379 2.865365 -6.050806 -1.497680 0.555167 7.894878 -5.378528 0.230165 1.022224 -1.403221 1.437718 -3.624466 -2.967036 -2.937141 2.604638 1.416513 3.156468 -0.082942 -1.439391 -5.012883 3.003920 1.301031 -10.395965 2.744161 0.827445 -2.927398 3.437416 5.850951 4.142984 -1.775438 0.970710 1.746163 5.509243 -7.023972 0.795024 -0.391386 -3.302288 0.214833 -4.400695 -2.965650 -2.374245 -6.880023 -4.496409 -1.482298 0.511322 -10.837195 -1.726725 -1.118718 -1.334457 6.289793 1.769694 1.249730 1.478060 4.996004 4.257336 5.535104 6.549455 4.458446 0.736983 1.986597 2.199702 1.694751 -6.676408 -4.196432 -1.000451 -1.980957 -2.343808 -1.746256 -1.295479 4.325131 -4.328093 -1.407012 4.499084 2.546259 1.244639 -1.284820 4.912446 -4.514761 0.350584 3.527690 6.999572 1.024472 6.631452 2.744421 -1.855982 0.197820 4.111190 4.512372 -0.536097 -0.415120 -2.414111 -3.821651 3.351759 2.303441 -6.606795 0.878730 -7.060569 0.722117 -2.596498 1.002778 -2.690580 -4.366708 0.167420 -1.988832 -1.482738 1.829520 0.717953 -2.099156 1.646454 -0.728150 -2.475934 1.300177 1.178992 0.489898 0.318045 -1.683257 -0.401061 2.750017 -2.732087 -1.213777 -0.605562 -5.353061 -3.446647 0.370794 2.389849 0.911477 1.040408 1.987658 -0.121645 -6.309891 4.971063 2.722937 -1.731170 -1.466206 -2.955649 0.773334 -1.890199 4.551190 -2.240795 0.821647 -4.396821 0.381064 -0.104941 -0.290631 -0.945007 1.701341 -4.556938 0.003764 -0.181185 -2.773456 -0.042851 -0.560385 1.412681 0.147514 -0.013807 2.719780 -1.003022 -0.485828 2.227209 0.794510 2.323925 0.917926 0.472559 -2.374608 1.121625 0.547887 -2.814492 0.022564 1.850039 -2.342945 -4.349905 2.433116 -1.493920 0.851345 0.241509 -2.437242 0.426575 2.621087 1.577674 0.822502 0.506667 -1.905092 3.872634 -0.159817 -0.124058 -0.521052 -3.012528 2.894620 -3.610329 2.742276 3.858988 -5.439527 2.160419 1.816512 -1.324142 1.590292 -4.027021 -2.512897 0.138686 -0.264540 -0.527234 -0.881196 -0.408300 2.467138 1.763617 -3.252909 0.899356 3.060394 -3.420553 2.872840 1.794503 -4.127065 -0.034115 5.648101 -6.663386 -4.274114 2.577792 -1.469264 -2.265482 -1.310001 -0.722043 -3.750455 -2.218991 -3.364157 4.813886 -0.700842 2.040417 1.348007 -0.969454 2.539781 -2.743683 -6.533468 5.620607 1.909027 -4.978488 -0.912503 4.926089 2.832465 -5.567586 0.598214 2.966218 -2.107679 0.826308 -2.075794 -2.185583 -2.251918 -1.385947 -1.092260 3.470975 3.910989 -7.913128 0.564255 0.672611 -2.644807 5.117837 -2.432042 2.788597 -4.078293 0.713861 0.712612 -2.513003 0.506591 2.268853 0.351670 2.608202 4.180872 -4.395715 -2.221567 -0.927980 1.522101 4.449142 -0.804691 -0.881165 -3.045044 1.317074 3.864903 -0.319799 2.021501 -4.279259 2.188606 3.758248 -0.247616 -2.696955 3.566150 9.617818 0.809750 1.316600 4.740514 -1.797561 4.313422 3.245453 1.887357 0.238762 0.206355 -1.868632 1.511148 5.971248 3.629581 2.039894 -0.386272 -1.725307 -0.445371 -0.090020 4.513196 4.094853 -0.684768 -2.418260 -0.312605 3.261702 -2.842624 3.278573 -1.117681 6.180463 -1.602208 0.148442 0.915870 -1.279319 1.801097 -6.354083 3.150750 -4.084551 1.763767 -4.223067 0.269681 -2.533126 -1.197909 -3.458561 -1.981463 2.839587 1.294099 -2.205885 -0.679327 -5.001711 -5.208932 -0.851928 -3.863038 -1.472770 0.103738 4.614600 0.346073 -1.064211 1.171724 -0.708463 -0.287338 -2.873304 -2.719377 1.967123 0.034766 2.446911 -3.036105 -0.805975 2.857716 -0.347689 -0.155128 -2.920672 0.103492 -0.613877 -0.636543 -2.752390 0.854527 0.312282 0.367532 0.373087 -1.971865 -1.302525 1.730398 0.930026 2.955209 -3.367622 -1.608169 -0.729578 -2.864873 -2.073718 3.162550 -1.606071 3.601519 -2.655212 2.050111 -0.815223 0.254931 0.242040 -5.201974 1.119081 2.541773 0.768364 0.587340 -1.556260 2.419583 -8.230121 -1.998015 0.809442 -1.209383 0.131886 -0.299935 4.979262 -1.489973 0.484481 -0.655876 4.938465 -5.197101 -3.424583 2.171226 0.360221 -0.826310 -2.522792 -3.586396 0.406868 -5.068488 -0.480249 -1.347721 -2.017443 3.029368 4.366900 -1.893084 2.431527 0.061063 -1.605831 -6.189596 -1.481663 2.613002 -0.371024 4.014402 -2.148511 -0.412004 3.643995 1.015727 1.110264 3.003453 -6.306205 0.820800 2.600522 -0.947010 1.576048 3.925353 -4.672047 2.767922 -0.171297 -2.213925 7.973200 4.694378 2.938758 -2.560144 0.303026 3.880711 -0.099350 -4.988050 1.587513 2.031923 5.582815 -4.005220 -0.934671 2.758820 -0.344804 -2.341710 -1.144780 -4.207245 1.266202 5.036650 0.758821 0.759983 -0.928467 3.413914 0.314536 -1.808490 -1.225897 3.360728 3.551336 2.166685 4.590750 -3.538028 4.197842 -1.337631 -0.172172 4.344517 1.837358 0.400717 5.638844 -3.230714 1.939702 1.911196 4.588794 -0.150639 2.463763 -0.888202 -0.365323 5.036140 1.291814 5.946574 1.616334 -0.595832 -4.495777 3.077772 -0.856234 6.312513 0.449088 3.146884 -5.337571 1.018705 1.548572 6.398661 -4.426123 -5.066769 1.525248 0.763532 2.540055 4.654023 0.672050 -1.489085 0.311786 1.668787 -4.016346 2.050802 3.098819 -1.499617 -0.987433 -2.087243 -5.684325 -0.790919 -0.656878 -3.744751 -1.148093 -1.307061 1.530292 3.614813 -1.827636 -2.510861 4.203986 -7.306858 0.484959 -5.562602 0.794339 1.355266 -1.960851 -0.824238 -2.337612 -3.424532 -1.446645 -1.371421 -4.117684 -1.387020 -4.297754 2.036992 -4.181674 8.047783 0.041182 -4.225713 -1.778686 -5.411545 -4.163138 -1.241141 2.570556 -2.633018 0.025169 -4.071163 -1.297776 -0.246911 0.247883 -0.692163 1.113498 -2.719359 3.313764 -2.998285 1.478668 1.044570 -4.181710 2.314161 3.648822 4.211992 -2.597650 -0.852547 -2.190718 -1.266690 1.529070 5.535604 4.660065 -4.958467 0.603813 -3.309385 6.137124 -4.151127 -2.814715 2.182984 2.897357 1.222927 -0.774530 -2.058234 -0.524159 -2.891017 3.550385 6.228488 0.184161 0.155496 3.886456 -3.870590 1.215311 -1.309897 1.367375 -3.325130 -2.761021 -2.144389 5.899114 -1.695657 -2.658732 6.593141 -2.982227 0.832847 -1.505010 -5.882403 -2.137566 2.774329 0.999060 -0.122616 0.064993 1.231980 1.374714 -0.590377 -2.244174 0.671809 4.547692 2.109652 1.262581 -1.037149 -2.182518 1.970847 -0.872249 -0.792832 -1.448253 0.764085 2.424424 1.575626 -3.373080 1.379689 1.227220 -1.546990 -3.679124 2.524838 -2.083289 0.508442 -2.215158 -3.418169 0.164115 -4.943530 1.889875 0.453814 2.058328 3.540578 0.143470 -3.917292 3.774024 2.627866 -0.996485 -1.161682 -5.887902 0.745047 2.240882 1.234544 3.203888 -0.372138 -4.421572 0.864869 -1.528143 1.231138 1.967937 5.580506 -2.001596 2.170265 -2.225522 -0.070003 -5.073077 -0.658481 -1.977604 2.256480 0.107451 0.326276 -4.323134 1.336027 4.016718 -2.274574 -4.239583 -2.887099 -2.839046 2.264609 3.323772 1.983971 3.929099 1.142792 -2.466430 2.417808 1.872612 -4.639514 -1.410730 0.822059 2.041701 0.736465 1.402621 -3.162775 -1.221878 -2.704001 0.877493 -3.313978 6.973160 -4.407628 0.085695 0.767351 4.278255 -4.809397 -2.154830 0.977466 -2.879294 -0.678987 -0.499498 1.595467 -1.899355 4.536614 1.190608 -3.819360 0.592105 -4.466180 4.048832 1.406981 2.815003 4.032234 0.604716 -3.229901 -0.415525 -2.374472 -4.570915 3.018933 -2.282712 -0.285213 -0.552377 0.607741 -1.381599 0.021731 -2.058166 -1.646786 -2.200044 2.980818 3.262301 -0.760572 2.741233 -2.204377 -2.907239 -1.257834 1.440786 4.503146 -1.203699 -0.953085 -2.547246 1.689785 -3.380302 0.763317 -0.177362 1.433550 2.450792 4.335086 0.659778 4.142475 3.701537 -1.539721 -0.458418 -2.660045 -5.018682 5.739939 -0.263386 -3.295228 0.578299 -1.188553 -2.632800 1.366533 3.538474 -6.336184 5.440145 6.013383 6.409621 -0.484146 -2.993974 2.110055 1.521504 -4.456751 -3.255002 1.320602 1.824017 -4.597426 3.298977 0.351266 3.147800 -2.437053 -2.854475 3.026525 0.937421 4.987058 3.124833 -0.194134 1.015153 -0.572866 -1.720273 6.616923 0.619055 -0.265187 2.111738 -0.515870 0.310570 0.991769 -1.244190 -3.497629 -2.778499 2.959002 0.814137 2.561045 -0.494852 0.617234 -3.752530 3.868219 2.441135 1.017115 -2.564332 3.751009 -2.840256 -1.152349 -2.789119 -1.461000 5.631326 -2.180480 3.699493 2.606073 -0.207502 1.036491 -0.675262 -5.015046 -1.059755 -4.354772 -3.753837 6.241329 -1.961116 1.483016 -0.617770 -3.718364 3.611647 -0.157373 -2.941761 -2.809699 2.395959 0.901700 0.312303 -1.494572 2.536303 -0.866022 -2.370167 -1.208644 1.299553 -0.386549 -0.715143 -0.401129 -2.529496 3.661772 -4.959343 -2.674486 0.565001 -5.407912 -4.267645 1.862165 2.906103 1.091749 -1.463882 0.675586 -1.457863 2.123956 -0.968843 -3.683535 1.746209 0.299390 -0.220611 2.669431 -2.825200 1.374856 -1.372806 -0.375269 -3.206902 2.420866 0.676123 -0.036910 2.592415 -0.101949 -2.127860 -3.032387 -1.581246 0.838083 4.212084 -0.797661 1.951922 -5.884097 0.194502 -1.887034 -3.645231 -0.817414 8.295037 -1.444439 4.413127 -1.143639 3.895300 -1.905258 0.120284 -2.673292 -2.833476 1.511069 0.040205 1.736852 1.506732 1.804527 -0.111474 -1.441614 2.291936 -1.577886 0.598033 2.166367 3.360438 -0.483665 -4.390434 1.051526 3.558534 -5.874381 3.778861 -0.966465 3.754492 1.995214 -0.009354 0.945282 -1.258234 -0.261467 -2.582139 -2.505586 0.060699 -1.216462 1.261194 0.890659 3.605376 -4.594617 3.352067 0.056165 2.533942 3.478965 -0.357300 -0.325229 2.831844 -2.783929 -3.603977 -2.374230 5.709291 2.059778 -4.246522 0.574091 0.918293 -4.231686 -1.884084 -1.048917 3.215284 0.370515 0.221478 0.692962 1.007495 -1.056207 0.346443 -4.734220 1.643408 4.825733 -2.854623 -1.884069 -0.531319 0.125763 -2.313921 -1.083835 6.730443 2.937369 -3.446142 1.676383 -3.126702 0.941605 0.531855 -4.867873 -1.517972 3.024044 -1.207865 1.878487 -3.370018 1.404569 3.432336 -2.497883 -1.281006 1.437006 0.247673 -0.186983 2.574381 2.041299 -1.233034 -2.591706 1.883638 3.475914 4.142529 -2.567832 4.009940 -4.791489 -2.160414 1.560213 0.782719 -8.408029 -0.632324 -0.992209 3.883251 1.822515 2.288307 -0.514612 0.728541 1.526598 -6.008175 0.826291 -0.538481 -1.794463 3.072875 1.962435 -6.026612 4.827559 -3.714563 -1.825464 3.145765 4.002964 -1.320808 1.611315 -0.637037 2.950773 -5.689416 -5.089720 1.120554 4.016906 0.736824 -2.472892 -1.164700 -0.104633 2.905191 -0.101852 -5.335075 0.762518 -0.783218 -4.011866 -0.543370 -0.871384 -1.433429 -1.458902 -3.291544 -2.422430 -0.119958 1.506974 -0.090127 6.779563 1.383281 3.800742 -1.948975 2.388303 -1.432934 