0.000000 0.000000 0.000000 0.000000 0.000000 0.000000 0.000000 0.000000 0.000000 0.000000 0.000000 0.000000 0.000000 0.000000 0.000000 -0.000000 -0.000000 0.000000 0.000000 -0.000000 -0.000000 0.000000 0.000000 0.000000 0.000000 0.000000 -0.000000 -0.000000 0.000000 -0.000000 0.000000 -0.000000 -0.000000 0.000000 0.000000 0.000000 0.000000 0.000000 0.000000 0.000000 0.000000 0.000000 0.000000 0.000000 0.000000 0.000000 0.000000 0.000000 0.000000 0.000000 0.000000 0.000000 -0.000000 0.000000 0.000000 0.000000 0.000000 0.000000 0.000000 -0.000000 0.000000 0.000000 0.000000 0.000000 0.000000 -0.000000 0.000000 0.000000 -0.000000 0.000000 0.000000 0.000000 0.000000 0.000000 0.000000 0.000000 0.000000 0.000000 0.000000 -0.000000 -0.000000 0.000000 0.000000 0.000000 -0.000000 0.000000 0.000000 0.000000 -0.000000 0.000000 0.000000 0.000000 -0.000000 -0.000000 0.000000 0.000000 -0.000000 -0.000000 -0.000000 0.000000 -0.000000 -0.000000 -0.000000 0.000000 -0.000000 -0.000000 -0.000000 -0.000003 -0.000011 -0.000035 -0.000086 -0.000188 -0.000365 -0.000655 -0.001097 -0.001742 -0.002642 -0.003856 -0.005448 -0.007480 -0.010019 -0.013129 -0.016873 -0.021311 -0.026501 -0.032494 -0.039337 -0.047068 -0.055723 -0.065326 -0.075898 -0.087450 -0.099987 -0.113506 -0.127999 -0.143448 -0.159831 -0.177121 -0.195284 -0.214282 -0.234071 -0.254607 -0.275839 -0.297714 -0.320179 -0.343177 -0.366651 -0.390543 -0.414794 -0.439347 -0.464144 -0.489128 -0.514244 -0.539437 -0.564655 -0.589847 -0.614965 -0.639963 -0.664797 -0.689425 -0.713808 -0.737911 -0.761698 -0.785140 -0.808208 -0.830875 -0.853117 -0.874913 -0.896240 -0.917074 -0.937388 -0.957151 -0.976327 -0.994874 -1.012746 -1.029890 -1.046252 -1.061771 -1.076386 -1.090034 -1.102654 -1.114182 -1.124560 -1.133734 -1.141655 -1.148283 -1.153589 -1.157555 -1.160181 -1.161476 -1.161469 -1.160199 -1.157723 -1.154107 -1.149430 -1.143782 -1.137258 -1.129962 -1.122001 -1.113485 -1.104526 -1.095235 -1.085720 -1.076089 -1.066441 -1.056875 -1.047481 -1.038342 -1.029535 -1.021130 -1.013188 -1.005763 -0.998900 -0.992639 -0.987010 -0.982036 -0.977735 -0.974117 -0.971185 -0.968939 -0.967372 -0.966473 -0.966226 -0.966611 -0.967607 -0.969187 -0.971324 -0.973989 -0.977150 -0.980774 -0.984829 -0.989280 -0.994093 -0.999235 -1.004672 -1.010370 -1.016297 -1.022422 -1.028714 -1.035144 -1.041684 -1.048307 -1.054987 -1.061700 -1.068422 -1.075127 -1.081785 -1.088365 -1.094826 -1.101126 -1.107214 -1.113035 -1.118528 -1.123629 -1.128270 -1.132380 -1.135890 -1.138727 -1.140824 -1.142115 -1.142539 -1.142043 -1.140581 -1.138122 -1.134645 -1.130147 -1.124637 -1.118139 -1.110692 -1.102349 -1.093174 -1.083242 -1.072639 -1.061456 -1.049791 -1.037746 -1.025425 -1.012933 -1.000373 -0.987846 -0.975452 -0.963282 -0.951426 -0.939965 -0.928975 -0.918523 -0.908670 -0.899468 -0.890963 -0.883192 -0.876186 -0.869967 -0.864550 -0.859945 -0.856155 -0.853176 -0.851001 -0.849615 -0.849002 -0.849140 -0.850004 -0.851565 -0.853792 -0.856654 -0.860116 -0.864140 -0.868692 -0.873733 -0.879226 -0.885132 -0.891415 -0.898036 -0.904961 -0.912153 -0.919578 -0.927202 -0.934994 -0.942923 -0.950959 -0.959075 -0.967244 -0.975438 -0.983627 -0.991778 -0.999854 -1.007811 -1.015601 -1.023170 -1.030457 -1.037399 -1.043926 -1.049968 -1.055454 -1.060309 -1.064463 -1.067846 -1.070392 -1.072043 -1.072748 -1.072465 -1.071170 -1.068846 -1.065496 -1.061136 -1.055797 -1.049522 -1.042370 -1.034409 -1.025719 -1.016387 -1.006507 -0.996178 -0.985501 -0.974581 -0.963519 -0.952417 -0.941375 -0.930486 -0.919841 -0.909524 -0.899612 -0.890176 -0.881279 -0.872978 -0.865321 -0.858349 -0.852094 -0.846584 -0.841837 -0.837865 -0.834674 -0.832265 -0.830631 -0.829763 -0.829644 -0.830256 -0.831575 -0.833576 -0.836229 -0.839504 -0.843367 -0.847783 -0.852718 -0.858134 -0.863995 -0.870263 -0.876902 -0.883875 -0.891147 -0.898681 -0.906445 -0.914404 -0.922527 -0.930783 -0.939142 -0.947578 -0.956064 -0.964572 -0.973075 -0.981541 -0.989935 -0.998217 -1.006341 -1.014256 -1.021903 -1.029220 -1.036142 -1.042598 -1.048518 -1.053828 -1.058457 -1.062334 -1.065393 -1.067570 -1.068806 -1.069049 -1.068252 -1.066376 -1.063389 -1.059266 -1.053991 -1.047554 -1.039955 -1.031199 -1.021299 -1.010276 -0.998156 -0.984971 -0.970760 -0.955565 -0.939432 -0.922414 -0.904562 -0.885935 -0.866590 -0.846588 -0.825990 -0.804857 -0.783252 -0.761236 -0.738871 -0.716215 -0.693329 -0.670270 -0.647095 -0.623862 -0.600629 -0.577456 -0.554403 -0.531535 -0.508913 -0.486604 -0.464674 -0.443188 -0.422213 -0.401812 -0.382047 -0.362978 -0.344661 -0.327148 -0.310488 -0.294724 -0.279894 -0.266032 -0.253165 -0.241315 -0.230498 -0.220724 -0.211997 -0.204318 -0.197681 -0.192074 -0.187483 -0.183889 -0.181267 -0.179592 -0.178832 -0.178956 -0.179927 -0.181709 -0.184262 -0.187546 -0.191521 -0.196143 -0.201371 -0.207163 -0.213475 -0.220267 -0.227498 -0.235126 -0.243113 -0.251420 -0.260010 -0.268847 -0.277898 -0.287130 -0.296511 -0.306012 -0.315605 -0.325264 -0.334964 -0.344682 -0.354396 -0.364087 -0.373733 -0.383316 -0.392811 -0.402196 -0.411444 -0.420526 -0.429408 -0.438056 -0.446432 -0.454498 -0.462212 -0.469533 -0.476420 -0.482834 -0.488734 -0.494085 -0.498852 -0.503005 -0.506519 -0.509379 -0.511572 -0.513098 -0.513963 -0.514182 -0.513777 -0.512780 -0.511230 -0.509171 -0.506651 -0.503724 -0.500448 -0.496881 -0.493084 -0.489117 -0.485042 -0.480918 -0.476800 -0.472745 -0.468803 -0.465022 -0.461446 -0.458114 -0.455062 -0.452322 -0.449919 -0.447875 -0.446210 -0.444935 -0.444061 -0.443593 -0.443534 -0.443883 -0.444634 -0.445782 -0.447316 -0.449224 -0.451494 -0.454108 -0.457050 -0.460302 -0.463844 -0.467657 -0.471720 -0.476012 -0.480512 -0.485199 -0.490052 -0.495051 -0.500176 -0.505407 -0.510725 -0.516112 -0.521550 -0.527022 -0.532513 -0.538008 -0.543492 -0.548951 -0.554368 -0.559728 -0.565010 -0.570190 -0.575245 -0.580144 -0.584855 -0.589343 -0.593572 -0.597501 -0.601091 -0.604302 -0.607096 -0.609434 -0.611278 -0.612595 -0.613356 -0.613537 -0.613119 -0.612094 -0.610459 -0.608222 -0.605397 -0.602007 -0.598084 -0.593667 -0.588798 -0.583527 -0.577906 -0.571992 -0.565844 -0.559521 -0.553083 -0.546591 -0.540102 -0.533673 -0.527357 -0.521205 -0.515263 -0.509574 -0.504178 -0.499109 -0.494398 -0.490069 -0.486146 -0.482644 -0.479577 -0.476955 -0.474782 -0.473059 -0.471787 -0.470959 -0.470570 -0.470607 -0.471061 -0.471915 -0.473155 -0.474764 -0.476722 -0.479010 -0.481609 -0.484496 -0.487652 -0.491055 -0.494683 -0.498516 -0.502532 -0.506712 -0.511034 -0.515480 -0.520031 -0.524669 -0.529377 -0.534138 -0.538937 -0.543759 -0.548587 -0.553406 -0.558196 -0.562937 -0.567605 -0.572171 -0.576606 -0.580876 -0.584944 -0.588772 -0.592319 -0.595544 -0.598409 -0.600871 -0.602892 -0.604435 -0.605465 -0.605954 -0.605878 -0.605219 -0.603969 -0.602127 -0.599701 -0.596706 -0.593166 -0.589114 -0.584589 -0.579633 -0.574297 -0.568632 -0.562696 -0.556547 -0.550244 -0.543847 -0.537414 -0.531004 -0.524670 -0.518465 -0.512440 -0.506638 -0.501103 -0.495872 -0.490978 -0.486450 -0.482313 -0.478587 -0.475288 -0.472428 -0.470015 -0.468054 -0.466544 -0.465485 -0.464869 -0.464690 -0.464937 -0.465596 -0.466653 -0.468092 -0.469895 -0.472043 -0.474516 -0.477295 -0.480357 -0.483682 -0.487249 -0.491035 -0.495020 -0.499183 -0.503504 -0.507962 -0.512538 -0.517213 -0.521970 -0.526792 -0.531662 -0.536565 -0.541485 -0.546407 -0.551314 -0.556187 -0.561004 -0.565740 -0.570368 -0.574855 -0.579169 -0.583271 -0.587122 -0.590683 -0.593913 -0.596771 -0.599218 -0.601214 -0.602722 -0.603709 -0.604143 -0.603996 -0.603245 -0.601870 -0.599855 -0.597188 -0.593864 -0.589879 -0.585236 -0.579940 -0.574002 -0.567434 -0.560255 -0.552484 -0.544144 -0.535261 -0.525864 -0.515981 -0.505644 -0.494887 -0.483743 -0.472245 -0.460430 -0.448333 -0.435987 -0.423429 -0.410692 -0.397810 -0.384818 -0.371754 -0.358662 -0.345601 -0.332639 -0.319863 -0.307376 -0.295299 -0.283768 -0.272933 -0.262957 -0.254013 -0.246278 -0.239933 -0.235157 -0.232127 -0.231014 -0.231977 -0.235164 -0.240709 -0.248731 -0.259330 -0.272587 -0.288566 -0.307311 -0.328846 -0.353175 -0.380284 -0.410141 -0.442698 -0.477889 -0.515633 -0.555837 -0.598396 -0.643192 -0.690100 -0.738984 -0.789706 -0.842118 -0.896070 -0.951411 -1.007987 -1.065642 -1.124224 -1.183581 -1.243564 -1.304026 -1.364825 -1.425823 -1.486889 -1.547895 -1.608720 -1.669250 -1.729376 -1.788997 -1.848016 -1.906347 -1.963906 -2.020619 -2.076418 -2.131239 -2.185022 -2.237703 -2.289215 -2.339481 -2.388412 -2.435908 -2.481852 -2.526117 -2.568562 -2.609037 -2.647384 -2.683441 -2.717045 -2.748033 -2.776247 -2.801537 -2.823768 -2.842821 -2.858605 -2.871058 -2.880152 -2.885897 -2.888338 -2.887560 -2.883683 -2.876861 -2.867279 -2.855149 -2.840703 -2.824195 -2.805888 -2.786060 -2.764989 -2.742955 -2.720238 -2.697107 -2.673825 -2.650641 -2.627791 -2.605495 -2.583953 -2.563350 -2.543849 -2.525596 -2.508714 -2.493308 -2.479466 -2.467253 -2.456721 -2.447901 -2.440811 -2.435452 -2.431814 -2.429872 -2.429591 -2.430926 -2.433823 -2.438221 -2.444050 -2.451238 -2.459707 -2.469374 -2.480157 -2.491970 -2.504726 -2.518338 -2.532722 -2.547792 -2.563464 -2.579658 -2.596295 -2.613299 -2.630597 -2.648120 -2.665802 -2.683580 -2.701391 -2.719172 -2.736853 -2.754354 -2.771582 -2.788431 -2.804780 -2.820492 -2.835418 -2.849397 -2.862258 -2.873822 -2.883911 -2.892344 -2.898942 -2.903535 -2.905961 -2.906075 -2.903753 -2.898901 -2.891454 -2.881386 -2.868705 -2.853460 -2.835736 -2.815652 -2.793364 -2.769052 -2.742925 -2.715211 -2.686155 -2.656013 -2.625050 -2.593534 -2.561730 -2.529902 -2.498303 -2.467178 -2.436759 -2.407260 -2.378881 -2.351805 -2.326192 -2.302187 -2.279912 -2.259472 -2.240951 -2.224414 -2.209909 -2.197466 -2.187100 -2.178807 -2.172572 -2.168368 -2.166152 -2.165874 -2.167472 -2.170879 -2.176019 -2.182809 -2.191164 -2.200992 -2.212202 -2.224697 -2.238382 -2.253160 -2.268935 -2.285613 -2.303098 -2.321300 -2.340130 -2.359501 -2.379330 -2.399537 -2.420047 -2.440787 -2.461687 -2.482677 -2.503685 -2.524630 -2.545420 -2.565952 -2.586106 -2.605750 -2.624736 -2.642904 -2.660082 -2.676093 -2.690752 -2.703874 -2.715274 -2.724773 -2.732197 -2.737389 -2.740206 -2.740533 -2.738282 -2.733402 -2.725877 -2.715727 -2.703015 -2.687835 -2.670321 -2.650635 -2.628969 -2.605536 -2.580571 -2.554321 -2.527046 -2.499010 -2.470480 -2.441719 -2.412987 -2.384532 -2.356594 -2.329397 -2.303149 -2.278044 -2.254253 -2.231931 -2.211214 -2.192217 -2.175035 -2.159747 -2.146409 -2.135062 -2.125730 -2.118421 -2.113128 -2.109829 -2.108492 -2.109072 -2.111514 -2.115755 -2.121723 -2.129342 -2.138527 -2.149192 -2.161245 -2.174594 -2.189143 -2.204797 -2.221460 -2.239038 -2.257436 -2.276562 -2.296327 -2.316643 -2.337427 -2.358597 -2.380076 -2.401790 -2.423669 -2.445645 -2.467647 -2.489602 -2.511424 -2.533020 -2.554279 -2.575079 -2.595281 -2.614733 -2.633271 -2.650722 -2.666905 -2.681636 -2.694731 -2.706007 -2.715287 -2.722403 -2.727199 -2.729530 -2.729267 -2.726299 -2.720533 -2.711894 -2.700328 -2.685800 -2.668295 -2.647817 -2.624390 -2.598054 -2.568867 -2.536904 -2.502254 -2.465017 -2.425308 -2.383250 -2.338977 -2.292630 -2.244355 -2.194304 -2.142632 -2.089496 -2.035054 -1.979465 -1.922886 -1.865471 -1.807374 -1.748743 -1.689723 -1.630459 -1.571088 -1.511751 -1.452580 -1.393711 -1.335272 -1.277393 -1.220197 -1.163804 -1.108332 -1.053895 -1.000594 -0.948529 -0.897791 -0.848466 -0.800630 -0.754352 -0.709695 -0.666709 -0.625438 -0.585918 -0.548177 -0.512231 -0.478093 -0.445766 -0.415244 -0.386519 -0.359571 -0.334378 -0.310911 -0.289137 -0.269017 -0.250510 -0.233569 -0.218146 -0.204192 -0.191651 -0.180471 -0.170595 -0.161968 -0.154531 -0.148229 -0.143004 -0.138800 -0.135561 -0.133234 -0.131765 -0.131100 -0.131191 -0.131987 -0.133442 -0.135510 -0.138146 -0.141309 -0.144959 -0.149058 -0.153569 -0.158457 -0.163691 -0.169239 -0.175067 -0.181144 -0.187436 -0.193907 -0.200517 -0.207225 -0.213987 -0.220757 -0.227486 -0.234127 -0.240624 -0.246931 -0.253000 -0.258782 -0.264230 -0.269303 -0.273960 -0.278169 -0.281903 -0.285143 -0.287878 -0.290105 -0.291831 -0.293071 -0.293848 -0.294191 -0.294139 -0.293733 -0.293017 -0.292042 -0.290860 -0.289525 -0.288091 -0.286613 -0.285144 -0.283736 -0.282437 -0.281294 -0.280350 -0.279644 -0.279211 -0.279083 -0.279286 -0.279844 -0.280775 -0.282092 -0.283807 -0.285926 -0.288452 -0.291384 -0.294718 -0.298448 -0.302564 -0.307054 -0.311903 -0.317097 -0.322618 -0.328446 -0.334561 -0.340944 -0.347571 -0.354422 -0.361474 -0.368704 -0.376091 -0.383613 -0.391247 -0.398974 -0.406771 -0.414621 -0.422502 -0.430398 -0.438291 -0.446164 -0.454001 -0.461789 -0.469512 -0.477153 -0.484696 -0.492121 -0.499404 -0.506519 -0.513438 -0.520128 -0.526554 -0.532680 -0.538464 -0.543866 -0.548849 -0.553374 -0.557402 -0.560898 -0.563827 -0.566162 -0.567880 -0.568965 -0.569410 -0.569215 -0.568388 -0.566947 -0.564917 -0.562330 -0.559226 -0.555655 -0.551660 -0.547298 -0.542623 -0.537696 -0.532575 -0.527321 -0.521992 -0.516646 -0.511339 -0.506123 -0.501047 -0.496158 -0.491497 -0.487103 -0.483009 -0.479244 -0.475834 -0.472799 -0.470155 -0.467916 -0.466090 -0.464682 -0.463693 -0.463123 -0.462965 -0.463214 -0.463859 -0.464889 -0.466289 -0.468046 -0.470140 -0.472556 -0.475275 -0.478276 -0.481539 -0.485046 -0.488775 -0.492706 -0.496818 -0.501093 -0.505510 -0.510050 -0.514695 -0.519427 -0.524229 -0.529085 -0.533980 -0.538898 -0.543825 -0.548745 -0.553642 -0.558496 -0.563286 -0.567987 -0.572570 -0.577003 -0.581252 -0.585281 -0.589050 -0.592515 -0.595640 -0.598384 -0.600707 -0.602572 -0.603942 -0.604785 -0.605076 -0.604794 -0.603925 -0.602465 -0.600418 -0.597794 -0.594615 -0.590909 -0.586709 -0.582060 -0.577008 -0.571603 -0.565898 -0.559951 -0.553821 -0.547566 -0.541246 -0.534918 -0.528639 -0.522460 -0.516434 -0.510608 -0.505023 -0.499721 -0.494736 -0.490098 -0.485835 -0.481969 -0.478517 -0.475494 -0.472909 -0.470769 -0.469075 -0.467827 -0.467021 -0.466650 -0.466705 -0.467174 -0.468044 -0.469299 -0.470922 -0.472896 -0.475200 -0.477816 -0.480722 -0.483898 -0.487323 -0.490974 -0.494833 -0.498876 -0.503085 -0.507439 -0.511919 -0.516506 -0.521182 -0.525929 -0.530731 -0.535573 -0.540440 -0.545315 -0.550183 -0.555026 -0.559823 -0.564550 -0.569182 -0.573687 -0.578033 -0.582185 -0.586103 -0.589748 -0.593077 -0.596051 -0.598631 -0.600777 -0.602451 -0.603619 -0.604246 -0.604305 -0.603770 -0.602619 -0.600835 -0.598405 -0.595320 -0.591576 -0.587174 -0.582117 -0.576415 -0.570078 -0.563123 -0.555568 -0.547437 -0.538752 -0.529542 -0.519835 -0.509663 -0.499057 -0.488052 -0.476680 -0.464977 -0.452978 -0.440718 -0.428232 -0.415554 -0.402718 -0.389758 -0.376708 -0.363604 -0.350485 -0.337395 -0.324384 -0.311506 -0.298823 -0.286399 -0.274308 -0.262622 -0.251421 -0.240785 -0.230793 -0.221525 -0.213057 -0.205464 -0.198815 -0.193175 -0.188602 -0.185148 -0.182855 -0.181761 -0.181894 -0.183273 -0.185911 -0.189811 -0.194969 -0.201375 -0.209008 -0.217844 -0.227850 -0.238991 -0.251222 -0.264497 -0.278765 -0.293971 -0.310058 -0.326966 -0.344635 -0.363001 -0.382001 -0.401572 -0.421650 -0.442172 -0.463077 -0.484303 -0.505792 -0.527487 -0.549330 -0.571270 -0.593256 -0.615238 -0.637171 -0.659011 -0.680718 -0.702253 -0.723582 -0.744672 -0.765492 -0.786014 -0.806213 -0.826062 -0.845531 -0.864590 -0.883201 -0.901325 -0.918915 -0.935919 -0.952282 -0.967942 -0.982838 -0.996903 -1.010071 -1.022277 -1.033458 -1.043551 -1.052499 -1.060252 -1.066767 -1.072013 -1.075970 -1.078633 -1.080012 -1.080130 -1.079027 -1.076755 -1.073381 -1.068980 -1.063642 -1.057461 -1.050539 -1.042983 -1.034901 -1.026406 -1.017607 -1.008615 -0.999533 -0.990465 -0.981506 -0.972748 -0.964273 -0.956158 -0.948472 -0.941277 -0.934626 -0.928565 -0.923130 -0.918353 -0.914257 -0.910856 -0.908161 -0.906175 -0.904895 -0.904314 -0.904418 -0.905192 -0.906613 -0.908660 -0.911303 -0.914515 -0.918265 -0.922518 -0.927243 -0.932402 -0.937962 -0.943888 -0.950142 -0.956691 -0.963500 -0.970536 -0.977764 -0.985155 -0.992677 -1.000301 -1.007999 -1.015745 -1.023514 -1.031280 -1.039018 -1.046700 -1.054291 -1.061756 -1.069050 -1.076125 -1.082926 -1.089393 -1.095463 -1.101068 -1.106136 -1.110599 -1.114386 -1.117427 -1.119657 -1.121013 -1.121441 -1.120896 -1.119344 -1.116764 -1.113151 -1.108511 -1.102870 -1.096264 -1.088744 -1.080374 -1.071229 -1.061391 -1.050952 -1.040009 -1.028663 -1.017016 -1.005174 -0.993239 -0.981314 -0.969494 -0.957875 -0.946543 -0.935582 -0.925066 -0.915064 -0.905636 -0.896836 -0.888709 -0.881294 -0.874621 -0.868713 -0.863587 -0.859253 -0.855714 -0.852969 -0.851008 -0.849821 -0.849390 -0.849694 -0.850708 -0.852407 -0.854759 -0.857732 -0.861293 -0.865407 -0.870037 -0.875147 -0.880699 -0.886656 -0.892982 -0.899640 -0.906593 -0.913808 -0.921250 -0.928885 -0.936683 -0.944614 -0.952648 -0.960758 -0.968917 -0.977097 -0.985270 -0.993403 -1.001458 -1.009392 -1.017158 -1.024700 -1.031959 -1.038871 -1.045368 -1.051378 -1.056830 -1.061651 -1.065770 -1.069118 -1.071628 -1.073242 -1.073908 -1.073585 -1.072244 -1.069870 -1.066463 -1.062038 -1.056624 -1.050264 -1.043016 -1.034947 -1.026138 -1.016673 -1.006648 -0.996161 -0.985315 -0.974213 -0.962960 -0.951659 -0.940409 -0.929306 -0.918442 -0.907901 -0.897764 -0.888103 -0.878981 -0.870458 -0.862581 -0.855395 -0.848932 -0.843220 -0.838280 -0.834124 -0.830759 -0.828186 -0.826399 -0.825389 -0.825141 -0.825635 -0.826849 -0.828757 -0.831329 -0.834535 -0.838342 -0.842713 -0.847615 -0.853009 -0.858859 -0.865126 -0.871775 -0.878767 -0.886066 -0.893637 -0.901445 -0.909456 -0.917637 -0.925958 -0.934389 -0.942901 -0.951468 -0.960062 -0.968657 -0.977220 -0.985718 -0.994112 -1.002356 -1.010399 -1.018187 -1.025656 -1.032741 -1.039374 -1.045482 -1.050993 -1.055836 -1.059940 -1.063237 -1.065662 -1.067157 -1.067667 -1.067145 -1.065549 -1.062846 -1.059011 -1.054024 -1.047875 -1.040562 -1.032089 -1.022468 -1.011717 -0.999862 -0.986935 -0.972972 -0.958014 -0.942108 -0.925305 -0.907656 -0.889219 -0.870051 -0.850213 -0.829765 -0.808769 -0.787287 -0.765381 -0.743113 -0.720541 -0.697727 -0.674729 -0.651615 -0.628456 -0.605337 -0.582355 -0.559625 -0.537276 -0.515453 -0.494315 -0.474035 -0.454793 -0.436781 -0.420188 -0.405207 -0.392028 -0.380833 -0.371797 -0.365084 -0.360842 -0.359204 -0.360287 -0.364186 -0.370980 -0.380726 -0.393462 -0.409203 -0.427949 -0.449677 -0.474347 -0.501903 -0.532272 -0.565365 -0.601083 -0.639311 -0.679926 -0.722795 -0.767779 -0.814730 -0.863498 -0.913927 -0.965860 -1.019140 -1.073608 -1.129106 -1.185480 -1.242578 -1.300251 -1.358354 -1.416747 -1.475297 -1.533875 -1.592358 -1.650629 -1.708580 -1.766108 -1.823116 -1.879515 -1.935222 -1.990161 -2.044263 -2.097462 -2.149695 -2.200893 -2.250983 -2.299880 -2.347488 -2.393697 -2.438383 -2.481410 -2.522631 -2.561891 -2.599025 -2.633869 -2.666256 -2.696025 -2.723016 -2.747080 -2.768082 -2.785902 -2.800442 -2.811634 -2.819442 -2.823866 -2.824945 -2.822752 -2.817402 -2.809043 -2.797855 -2.784049 -2.767859 -2.749539 -2.729361 -2.707605 -2.684561 -2.660520 -2.635771 -2.610597 -2.585275 -2.560068 -2.535226 -2.510981 -2.487551 -2.465131 -2.443897 -2.424008 -2.405597 -2.388781 -2.373654 -2.360291 -2.348749 -2.339065 -2.331260 -2.325341 -2.321296 -2.319103 -2.318726 -2.320119 -2.323225 -2.327981 -2.334313 -2.342144 -2.351392 -2.361968 -2.373784 -2.386747 -2.400765 -2.415743 -2.431590 -2.448213 -2.465521 -2.483427 -2.501844 -2.520690 -2.539885 -2.559352 -2.579020 -2.598819 -2.618683 -2.638549 -2.658347 -2.678005 -2.697438 -2.716549 -2.735227 -2.753347 -2.770767 -2.787336 -2.802890 -2.817253 -2.830248 -2.841695 -2.851413 -2.859226 -2.864962 -2.868464 -2.869590 -2.868223 -2.864274 -2.857686 -2.848439 -2.836552 -2.822079 -2.805115 -2.785786 -2.764253 -2.740704 -2.715353 -2.688430 -2.660184 -2.630875 -2.600768 -2.570132 -2.539233 -2.508332 -2.477684 -2.447529 -2.418098 -2.389603 -2.362240 -2.336188 -2.311606 -2.288634 -2.267391 -2.247978 -2.230476 -2.214947 -2.201436 -2.189970 -2.180560 -2.173201 -2.167877 -2.164555 -2.163193 -2.163739 -2.166131 -2.170298 -2.176165 -2.183648 -2.192661 -2.203113 -2.214911 -2.227961 -2.242165 -2.257429 -2.273655 -2.290751 -2.308623 -2.327180 -2.346334 -2.366000 -2.386095 -2.406541 -2.427263 -2.448190 -2.469252 -2.490380 -2.511499 -2.532528 -2.553373 -2.573928 -2.594071 -2.613667 -2.632565 -2.650603 -2.667610 -2.683403 -2.697801 -2.710619 -2.721672 -2.730781 -2.737778 -2.742502 -2.744811 -2.744587 -2.741738 -2.736205 -2.727965 -2.717035 -2.703467 -2.687352 -2.668817 -2.648024 -2.625160 -2.600441 -2.574101 -2.546394 -2.517583 -2.487940 -2.457738 -2.427253 -2.396751 -2.366494 -2.336731 -2.307699 -2.279618 -2.252691 -2.227103 -2.203019 -2.180584 -2.159924 -2.141143 -2.124327 -2.109540 -2.096831 -2.086227 -2.077741 -2.071371 -2.067097 -2.064889 -2.064703 -2.066486 -2.070173 -2.075693 -2.082966 -2.091908 -2.102427 -2.114431 -2.127823 -2.142504 -2.158375 -2.175335 -2.193286 -2.212129 -2.231768 -2.252108 -2.273057 -2.294527 -2.316431 -2.338688 -2.361220 -2.383952 -2.406814 -2.429735 -2.452642 -2.475457 -2.498090 -2.520439 -2.542389 -2.563809 -2.584555 -2.604469 -2.623382 -2.641118 -2.657495 -2.672328 -2.685432 -2.696627 -2.705740 -2.712606 -2.717074 -2.719005 -2.718278 -2.714789 -2.708451 -2.699200 -2.686989 -2.671790 -2.653597 -2.632423 -2.608298 -2.581271 -2.551405 -2.518783 -2.483498 -2.445657 -2.405378 -2.362791 -2.318030 -2.271241 -2.222571 -2.172176 -2.120210 -2.066832 -2.012200 -1.956473 -1.899808 -1.842358 -1.784276 -1.725707 -1.666798 -1.607691 -1.548527 -1.489448 -1.430595 -1.372111 -1.314138 -1.256820 -1.200302 -1.144725 -1.090225 -1.036939 -0.984996 -0.934523 -0.885637 -0.838449 -0.793059 -0.749559 -0.708032 -0.668546 -0.631164 -0.595931 -0.562887 -0.532055 -0.503453 -0.477082 -0.452939 -0.431006 -0.411258 -0.393663 -0.378178 -0.364755 -0.353339 -0.343869 -0.336279 -0.330498 -0.326454 -0.324069 -0.323265 -0.323960 -0.326074 -0.329524 -0.334228 -0.340105 -0.347073 -0.355052 -0.363966 -0.373738 -0.384294 -0.395563 -0.407475 -0.419965 -0.432968 -0.446425 -0.460278 -0.474472 -0.488957 -0.503682 -0.518604 -0.533678 -0.548864 -0.564121 -0.579406 -0.594673 -0.609873 -0.624953 -0.639852 -0.654506 -0.668848 -0.682802 -0.696298 -0.709257 -0.721604 -0.733262 -0.744156 -0.754215 -0.763372 -0.771569 -0.778755 -0.784892 -0.789958 -0.793940 -0.796845 -0.798692 -0.799515 -0.799363 -0.798300 -0.796393 -0.793723 -0.790379 -0.786454 -0.782047 -0.777260 -0.772194 -0.766949 -0.761626 -0.756320 -0.751121 -0.746117 -0.741388 -0.737007 -0.733040 -0.729548 -0.726582 -0.724186 -0.722396 -0.721244 -0.720750 -0.720931 -0.721795 -0.723345 -0.725579 -0.728488 -0.732060 -0.736277 -0.741119 -0.746561 -0.752575 -0.759133 -0.766202 -0.773750 -0.781740 -0.790139 -0.798909 -0.808014 -0.817419 -0.827087 -0.836982 -0.847071 -0.857319 -0.867694 -0.878164 -0.888698 -0.899270 -0.909850 -0.920413 -0.930934 -0.941388 -0.951747 -0.961979 -0.972050 -0.981917 -0.991536 -1.000853 -1.009810 -1.018346 -1.026391 -1.033879 -1.040740 -1.046903 -1.052300 -1.056863 -1.060528 -1.063238 -1.064943 -1.065603 -1.065192 -1.063697 -1.061120 -1.057477 -1.052799 -1.047131 -1.040532 -1.033076 -1.024838 -1.015908 -1.006380 -0.996357 -0.985941 -0.975238 -0.964354 -0.953392 -0.942454 -0.931637 -0.921034 -0.910731 -0.900810 -0.891342 -0.882394 -0.874026 -0.866286 -0.859219 -0.852861 -0.847238 -0.842373 -0.838278 -0.834962 -0.832427 -0.830667 -0.829673 -0.829432 -0.829925 -0.831130 -0.833020 -0.835569 -0.838745 -0.842515 -0.846846 -0.851701 -0.857045 -0.862840 -0.869050 -0.875637 -0.882565 -0.889798 -0.897301 -0.905038 -0.912977 -0.921085 -0.929332 -0.937688 -0.946125 -0.954615 -0.963133 -0.971651 -0.980139 -0.988561 -0.996879 -1.005048 -1.013017 -1.020731 -1.028127 -1.035141 -1.041698 -1.047733 -1.053173 -1.057946 -1.061981 -1.065210 -1.067572 -1.069009 -1.069475 -1.068936 -1.067369 -1.064768 -1.061139 -1.056505 -1.050902 -1.044380 -1.037003 -1.028846 -1.019990 -1.010525 -1.000546 -0.990154 -0.979452 -0.968544 -0.957531 -0.946516 -0.935594 -0.924860 -0.914401 -0.904299 -0.894628 -0.885456 -0.876845 -0.868848 -0.861509 -0.854867 -0.848952 -0.843788 -0.839390 -0.835769 -0.832928 -0.830866 -0.829573 -0.829039 -0.829245 -0.830173 -0.831796 -0.834088 -0.837019 -0.840557 -0.844669 -0.849319 -0.854472 -0.860091 -0.866138 -0.872577 -0.879372 -0.886485 -0.893882 -0.901528 -0.909388 -0.917430 -0.925622 -0.933936 -0.942342 -0.950812 -0.959321 -0.967840 -0.976342 -0.984794 -0.993157 -1.001391 -1.009446 -1.017268 -1.024798 -1.031973 -1.038724 -1.044978 -1.050664 -1.055712 -1.060051 -1.063611 -1.066326 -1.068135 -1.068982 -1.068816 -1.067593 -1.065278 -1.061841 -1.057260 -1.051522 -1.044621 -1.036559 -1.027345 -1.016994 -1.005530 -0.992981 -0.979382 -0.964773 -0.949198 -0.932706 -0.915348 -0.897181 -0.878260 -0.858646 -0.838399 -0.817580 -0.796252 -0.774476 -0.752314 -0.729826 -0.707072 -0.684110 -0.661001 -0.637808 -0.614602 -0.591467 -0.568499 -0.545810 -0.523528 -0.501797 -0.480774 -0.460630 -0.441545 -0.423707 -0.407305 -0.392530 -0.379570 -0.368607 -0.359814 -0.353352 -0.349370 -0.347999 -0.349355 -0.353531 -0.360606 -0.370636 -0.383657 -0.399685 -0.418717 -0.440731 -0.465686 -0.493525 -0.524175 -0.557546 -0.593539 -0.632038 -0.672921 -0.716053 -0.761296 -0.808501 -0.857518 -0.908191 -0.960363 -1.013876 -1.068572 -1.124294 -1.180886 -1.238196 -1.296075 -1.354379 -1.412969 -1.471709 -1.530472 -1.589135 -1.647582 -1.705703 -1.763396 -1.820564 -1.877118 -1.932976 -1.988062 -2.042305 -2.095642 -2.148008 -2.199335 -2.249550 -2.298567 -2.346292 -2.392613 -2.437408 -2.480541 -2.521864 -2.561222 -2.598451 -2.633386 -2.665861 -2.695714 -2.722787 -2.746933 -2.768019 -2.785937 -2.800603 -2.811967 -2.820013 -2.824765 -2.826280 -2.824657 -2.820028 -2.812557 -2.802439 -2.789894 -2.775161 -2.758495 -2.740167 -2.720450 -2.699625 -2.677970 -2.655758 -2.633257 -2.610723 -2.588397 -2.566508 -2.545268 -2.524870 -2.505488 -2.487277 -2.470373 -2.454891 -2.440928 -2.428562 -2.417851 -2.408837 -2.401547 -2.395989 -2.392160 -2.390042 -2.389606 -2.390812 -2.393609 -2.397942 -2.403743 -2.410942 -2.419464 -2.429227 -2.440150 -2.452146 -2.465130 -2.479015 -2.493713 -2.509139 -2.525208 -2.541837 -2.558947 -2.576458 -2.594296 -2.612389 -2.630670 -2.649072 -2.667534 -2.685994 -2.704384 -2.722632 -2.740653 -2.758348 -2.775605 -2.792298 -2.808283 -2.823408 -2.837505 -2.850402 -2.861919 -2.871875 -2.880092 -2.886394 -2.890612 -2.892590 -2.892189 -2.889296 -2.883823 -2.875718 -2.864965 -2.851585 -2.835637 -2.817218 -2.796460 -2.773525 -2.748606 -2.721917 -2.693695 -2.664189 -2.633662 -2.602380 -2.570614 -2.538632 -2.506696 -2.475061 -2.443970 -2.413650 -2.384317 -2.356165 -2.329373 -2.304100 -2.280484 -2.258645 -2.238681 -2.220673 -2.204681 -2.190750 -2.178904 -2.169153 -2.161492 -2.155900 -2.152345 -2.150784 -2.151161 -2.153414 -2.157470 -2.163252 -2.170675 -2.179651 -2.190089 -2.201892 -2.214966 -2.229213 -2.244536 -2.260837 -2.278020 -2.295993 -2.314663 -2.333941 -2.353741 -2.373979 -2.394576 -2.415457 -2.436548 -2.457781 -2.479085 -2.500386 -2.521600 -2.542634 -2.563380 -2.583718 -2.603510 -2.622606 -2.640844 -2.658052 -2.674048 -2.688648 -2.701667 -2.712923 -2.722235 -2.729433 -2.734359 -2.736875 -2.736863 -2.734240 -2.728951 -2.720982 -2.710355 -2.697131 -2.681407 -2.663317 -2.643025 -2.620724 -2.596632 -2.570984 -2.544032 -2.516039 -2.487273 -2.458005 -2.428504 -2.399032 -2.369844 -2.341183 -2.313277 -2.286339 -2.260566 -2.236135 -2.213202 -2.191908 -2.172369 -2.154684 -2.138933 -2.125175 -2.113452 -2.103789 -2.096194 -2.090660 -2.087168 -2.085682 -2.086159 -2.088542 -2.092768 -2.098763 -2.106449 -2.115742 -2.126552 -2.138786 -2.152350 -2.167146 -2.183077 -2.200046 -2.217955 -2.236707 -2.256211 -2.276372 -2.297103 -2.318317 -2.339930 -2.361865 -2.384045 -2.406399 -2.428856 -2.451348 -2.473800 -2.496130 -2.518244 -2.540036 -2.561385 -2.582155 -2.602196 -2.621347 -2.639436 -2.656282 -2.671703 -2.685513 -2.697531 -2.707578 -2.715483 -2.721087 -2.724244 -2.724822 -2.722707 -2.717800 -2.710024 -2.699321 -2.685653 -2.668999 -2.649362 -2.626761 -2.601233 -2.572833 -2.541634 -2.507719 -2.471190 -2.432158 -2.390744 -2.347082 -2.301309 -2.253572 -2.204022 -2.152813 -2.100103 -2.046050 -1.990812 -1.934547 -1.877411 -1.819556 -1.761132 -1.702286 -1.643160 -1.583893 -1.524623 -1.465483 -1.406606 -1.348122 -1.290156 -1.232834 -1.176275 -1.120597 -1.065913 -1.012326 -0.959936 -0.908838 -0.859119 -0.810858 -0.764126 -0.718989 -0.675500 -0.633708 -0.593650 -0.555358 -0.518852 -0.484148 -0.451251 -0.420161 -0.390870 -0.363362 -0.337618 -0.313611 -0.291310 -0.270678 -0.251675 -0.234257 -0.218378 -0.203986 -0.191031 -0.179458 -0.169212 -0.160237 -0.152477 -0.145874 -0.140371 -0.135912 -0.132442 -0.129904 -0.128245 -0.127412 -0.127354 -0.128020 -0.129364 -0.131337 -0.133896 -0.136997 -0.140599 -0.144665 -0.149155 -0.154035 -0.159272 -0.164833 -0.170687 -0.176801 -0.183144 -0.189680 -0.196373 -0.203181 -0.210065 -0.216977 -0.223873 -0.230702 -0.237412 -0.243958 -0.250288 -0.256356 -0.262112 -0.267513 -0.272518 -0.277089 -0.281197 -0.284818 -0.287939 -0.290552 -0.292659 -0.294272 -0.295409 -0.296095 -0.296370 -0.296266 -0.295829 -0.295105 -0.294147 -0.293007 -0.291740 -0.290398 -0.289037 -0.287707 -0.286459 -0.285340 -0.284395 -0.283663 -0.283183 -0.282987 -0.283104 -0.283558 -0.284369 -0.285555 -0.287127 -0.289094 -0.291459 -0.294225 -0.297388 -0.300944 -0.304884 -0.309198 -0.313873 -0.318894 -0.324244 -0.329906 -0.335859 -0.342085 -0.348561 -0.355266 -0.362179 -0.369277 -0.376539 -0.383943 -0.391466 -0.399089 -0.406790 -0.414550 -0.422349 -0.430169 -0.437993 -0.445803 -0.453585 -0.461322 -0.469001 -0.476606 -0.484120 -0.491524 -0.498797 -0.505915 -0.512848 -0.519567 -0.526037 -0.532223 -0.538082 -0.543578 -0.548672 -0.553325 -0.557498 -0.561152 -0.564255 -0.566775 -0.568688 -0.569975 -0.570624 -0.570633 -0.570008 -0.568761 -0.566916 -0.564502 -0.561555 -0.558123 -0.554248 -0.549984 -0.545387 -0.540514 -0.535424 -0.530179 -0.524836 -0.519455 -0.514091 -0.508799 -0.503629 -0.498628 -0.493841 -0.489306 -0.485059 -0.481131 -0.477549 -0.474335 -0.471508 -0.469081 -0.467065 -0.465467 -0.464288 -0.463530 -0.463187 -0.463254 -0.463723 -0.464582 -0.465818 -0.467417 -0.469362 -0.471636 -0.474221 -0.477097 -0.480244 -0.483643 -0.487273 -0.491113 -0.495144 -0.499346 -0.503698 -0.508181 -0.512777 -0.517468 -0.522236 -0.527065 -0.531938 -0.536842 -0.541761 -0.546680 -0.551583 -0.556451 -0.561265 -0.566000 -0.570630 -0.575123 -0.579447 -0.583566 -0.587441 -0.591028 -0.594292 -0.597191 -0.599686 -0.601737 -0.603308 -0.604365 -0.604879 -0.604828 -0.604195 -0.602972 -0.601159 -0.598764 -0.595805 -0.592307 -0.588301 -0.583827 -0.578932 -0.573663 -0.568073 -0.562217 -0.556155 -0.549945 -0.543646 -0.537316 -0.531012 -0.524789 -0.518698 -0.512789 -0.507104 -0.501687 -0.496573 -0.491795 -0.487382 -0.483357 -0.479740 -0.476546 -0.473787 -0.471471 -0.469600 -0.468177 -0.467197 -0.466655 -0.466543 -0.466850 -0.467564 -0.468669 -0.470149 -0.471987 -0.474164 -0.476659 -0.479454 -0.482526 -0.485856 -0.489421 -0.493202 -0.497176 -0.501323 -0.505623 -0.510056 -0.514604 -0.519248 -0.523971 -0.528755 -0.533584 -0.538444 -0.543319 -0.548194 -0.553051 -0.557870 -0.562630 -0.567304 -0.571865 -0.576281 -0.580516 -0.584533 -0.588294 -0.591754 -0.594876 -0.597620 -0.599945 -0.601814 -0.603189 -0.604037 -0.604328 -0.604034 -0.603132 -0.601604 -0.599434 -0.596613 -0.593134 -0.588996 -0.584201 -0.578756 -0.572672 -0.565962 -0.558646 -0.550743 -0.542277 -0.533274 -0.523763 -0.513774 -0.503338 -0.492489 -0.481260 -0.469686 -0.457802 -0.445642 -0.433243 -0.420638 -0.407861 -0.394947 -0.381929 -0.368843 -0.355725 -0.342618 -0.329570 -0.316632 -0.303863 -0.291328 -0.279095 -0.267238 -0.255834 -0.244962 -0.234703 -0.225136 -0.216339 -0.208388 -0.201354 -0.195303 -0.190297 -0.186389 -0.183627 -0.182050 -0.181689 -0.182568 -0.184702 -0.188097 -0.192753 -0.198662 -0.205807 -0.214165 -0.223708 -0.234399 -0.246200 -0.259063 -0.272940 -0.287778 -0.303520 -0.320107 -0.337479 -0.355573 -0.374328 -0.393678 -0.413561 -0.433913 -0.454672 -0.475777 -0.497168 -0.518787 -0.540578 -0.562485 -0.584459 -0.606448 -0.628406 -0.650288 -0.672053 -0.693662 -0.715077 -0.736266 -0.757197 -0.777842 -0.798174 -0.818166 -0.837790 -0.857017 -0.875812 -0.894137 -0.911946 -0.929191 -0.945817 -0.961766 -0.976976 -0.991381 -1.004916 -1.017514 -1.029113 -1.039648 -1.049061 -1.057299 -1.064318 -1.070082 -1.074571 -1.077777 -1.079704 -1.080375 -1.079826 -1.078106 -1.075277 -1.071415 -1.066605 -1.060939 -1.054516 -1.047441 -1.039822 -1.031769 -1.023390 -1.014792 -1.006082 -0.997360 -0.988721 -0.980256 -0.972048 -0.964174 -0.956702 -0.949696 -0.943208 -0.937284 -0.931963 -0.927276 -0.923247 -0.919892 -0.917222 -0.915241 -0.913948 -0.913335 -0.913391 -0.914101 -0.915445 -0.917400 -0.919941 -0.923038 -0.926662 -0.930782 -0.935364 -0.940374 -0.945778 -0.951541 -0.957629 -0.964007 -0.970642 -0.977501 -0.984551 -0.991761 -0.999102 -1.006544 -1.014061 -1.021626 -1.029214 -1.036801 -1.044362 -1.051867 -1.059285 -1.066578 -1.073703 -1.080612 -1.087249 -1.093555 -1.099467 -1.104917 -1.109834 -1.114149 -1.117790 -1.120690 -1.122780 -1.124001 -1.124295 -1.123618 -1.121933 -1.119220 -1.115471 -1.110692 -1.104905 -1.098146 -1.090466 -1.081927 -1.072602 -1.062575 -1.051937 -1.040784 -1.029218 -1.017343 -1.005264 -0.993084 -0.980907 -0.968831 -0.956951 -0.945356 -0.934130 -0.923350 -0.913084 -0.903397 -0.894341 -0.885964 -0.878306 -0.871397 -0.865263 -0.859920 -0.855380 -0.851646 -0.848717 -0.846586 -0.845241 -0.844665 -0.844837 -0.845734 -0.847327 -0.849587 -0.852482 -0.855977 -0.860038 -0.864627 -0.869707 -0.875242 -0.881193 -0.887522 -0.894194 -0.901171 -0.908418 -0.915901 -0.923585 -0.931439 -0.939433 -0.947536 -0.955721 -0.963960 -0.972227 -0.980491 -0.988723 -0.996883 -1.004932 -1.012821 -1.020496 -1.027901 -1.034970 -1.041637 -1.047831 -1.053479 -1.058510 -1.062852 -1.066434 -1.069191 -1.071060 -1.071987 -1.071926 -1.070845 -1.068722 -1.065552 -1.061344 -1.056120 -1.049920 -1.042795 -1.034809 -1.026040 -1.016570 -1.006493 -0.995908 -0.984916 -0.973622 -0.962134 -0.950555 -0.938989 -0.927534 -0.916287 -0.905336 -0.894765 -0.884651 -0.875062 -0.866061 -0.857702 -0.850030 -0.843084 -0.836896 -0.831488 -0.826878 -0.823074 -0.820080 -0.817893 -0.816506 -0.815904 -0.816071 -0.816985 -0.818620 -0.820949 -0.823939 -0.827559 -0.831773 -0.836545 -0.841838 -0.847614 -0.853834 -0.860461 -0.867456 -0.874783 -0.882403 -0.890282 -0.898383 -0.906675 -0.915123 -0.923698 -0.932369 -0.941109 -0.949889 -0.958684 -0.967464 -0.976196 -0.984844 -0.993367 -1.001717 -1.009841 -1.017680 -1.025171 -1.032247 -1.038838 -1.044870 -1.050274 -1.054976 -1.058907 -1.062001 -1.064195 -1.065432 -1.065660 -1.064835 -1.062918 -1.059879 -1.055695 -1.050351 -1.043839 -1.036160 -1.027322 -1.017339 -1.006233 -0.994032 -0.980768 -0.966482 -0.951217 -0.935020 -0.917943 -0.900041 -0.881371 -0.861991 -0.841962 -0.821347 -0.800205 -0.778601 -0.756594 -0.734246 -0.711618 -0.688767 -0.665753 -0.642640 -0.619495 -0.596401 -0.573451 -0.550753 -0.528433 -0.506631 -0.485503 -0.465216 -0.445949 -0.427889 -0.411224 -0.396146 -0.382844 -0.371500 -0.362291 -0.355380 -0.350918 -0.349040 -0.349865 -0.353491 -0.360001 -0.369454 -0.381891 -0.397331 -0.415777 -0.437208 -0.461589 -0.488865 -0.518966 -0.551807 -0.587288 -0.625298 -0.665716 -0.708410 -0.753242 -0.800065 -0.848728 -0.899079 -0.950959 -1.004211 -1.058677 -1.114198 -1.170620 -1.227790 -1.285557 -1.343777 -1.402310 -1.461019 -1.519776 -1.578455 -1.636941 -1.695123 -1.752895 -1.810161 -1.866830 -1.922819 -1.978049 -2.032451 -2.085959 -2.138508 -2.190032 -2.240459 -2.289707 -2.337682 -2.384277 -2.429372 -2.472831 -2.514512 -2.554259 -2.591910 -2.627300 -2.660265 -2.690639 -2.718264 -2.742989 -2.764678 -2.783211 -2.798496 -2.810468 -2.819100 -2.824396 -2.826403 -2.825203 -2.820916 -2.813693 -2.803722 -2.791213 -2.776399 -2.759534 -2.740887 -2.720732 -2.699354 -2.677035 -2.654056 -2.630690 -2.607203 -2.583847 -2.560862 -2.538467 -2.516870 -2.496254 -2.476787 -2.458614 -2.441862 -2.426637 -2.413027 -2.401098 -2.390902 -2.382470 -2.375820 -2.370953 -2.367857 -2.366505 -2.366863 -2.368883 -2.372509 -2.377677 -2.384318 -2.392355 -2.401708 -2.412293 -2.424024 -2.436813 -2.450570 -2.465207 -2.480635 -2.496767 -2.513517 -2.530802 -2.548539 -2.566652 -2.585065 -2.603706 -2.622507 -2.641404 -2.660334 -2.679232 -2.698029 -2.716646 -2.734993 -2.752965 -2.770445 -2.787297 -2.803376 -2.818520 -2.832561 -2.845322 -2.856623 -2.866285 -2.874127 -2.879977 -2.883672 -2.885062 -2.884020 -2.880444 -2.874264 -2.865446 -2.853991 -2.839941 -2.823373 -2.804402 -2.783174 -2.759867 -2.734685 -2.707851 -2.679607 -2.650210 -2.619922 -2.589011 -2.557745 -2.526386 -2.495192 -2.464409 -2.434272 -2.405000 -2.376797 -2.349846 -2.324316 -2.300353 -2.278085 -2.257620 -2.239047 -2.222435 -2.207835 -2.195282 -2.184791 -2.176366 -2.169993 -2.165646 -2.163287 -2.162867 -2.164328 -2.167601 -2.172614 -2.179286 -2.187531 -2.197260 -2.208380 -2.220798 -2.234417 -2.249140 -2.264873 -2.281519 -2.298986 -2.317180 -2.336013 -2.355399 -2.375252 -2.395494 -2.416047 -2.436839 -2.457799 -2.478859 -2.499946 -2.520982 -2.541878 -2.562533 -2.582832 -2.602643 -2.621822 -2.640213 -2.657646 -2.673942 -2.688920 -2.702395 -2.714182 -2.724100 -2.731975 -2.737643 -2.740956 -2.741790 -2.740044 -2.735655 -2.728590 -2.718857 -2.706502 -2.691607 -2.674292 -2.654709 -2.633042 -2.609496 -2.584301 -2.557703 -2.529962 -2.501343 -2.472117 -2.442554 -2.412920 -2.383472 -2.354457 -2.326112 -2.298655 -2.272289 -2.247199 -2.223550 -2.201489 -2.181142 -2.162615 -2.145994 -2.131347 -2.118724 -2.108155 -2.099656 -2.093225 -2.088847 -2.086494 -2.086125 -2.087688 -2.091123 -2.096360 -2.103322 -2.111928 -2.122089 -2.133714 -2.146709 -2.160978 -2.176423 -2.192946 -2.210450 -2.228838 -2.248017 -2.267891 -2.288373 -2.309373 -2.330808 -2.352596 -2.374662 -2.396931 -2.419333 -2.441800 -2.464258 -2.486630 -2.508827 -2.530747 -2.552276 -2.573283 -2.593624 -2.613143 -2.631670 -2.649027 -2.665035 -2.679507 -2.692260 -2.703113 -2.711893 -2.718436 -2.722588 -2.724214 -2.723189 -2.719412 -2.712795 -2.703272 -2.690798 -2.675344 -2.656905 -2.635492 -2.611135 -2.583884 -2.553802 -2.520970 -2.485483 -2.447446 -2.406978 -2.364208 -2.319271 -2.272312 -2.223478 -2.172924 -2.120806 -2.067281 -2.012509 -1.956646 -1.899850 -1.842275 -1.784072 -1.725388 -1.666367 -1.607150 -1.547876 -1.488678 -1.429691 -1.371045 -1.312867 -1.255283 -1.198415 -1.142381 -1.087297 -1.033268 -0.980397 -0.928782 -0.878510 -0.829666 -0.782324 -0.736551 -0.692405 -0.649938 -0.609191 -0.570197 -0.532983 -0.497565 -0.463953 -0.432148 -0.402146 -0.373935 -0.347495 -0.322804 -0.299831 -0.278543 -0.258900 -0.240860 -0.224377 -0.209402 -0.195885 -0.183771 -0.173006 -0.163535 -0.155301 -0.148247 -0.142316 -0.137451 -0.133597 -0.130697 -0.128697 -0.127544 -0.127186 -0.127572 -0.128654 -0.130385 -0.132718 -0.135611 -0.139021 -0.142909 -0.147237 -0.151968 -0.157069 -0.162507 -0.168250 -0.174267 -0.180525 -0.186990 -0.193627 -0.200396 -0.207257 -0.214166 -0.221076 -0.227940 -0.234704 -0.241323 -0.247748 -0.253928 -0.259816 -0.265366 -0.270535 -0.275285 -0.279582 -0.283402 -0.286726 -0.289543 -0.291853 -0.293663 -0.294988 -0.295852 -0.296287 -0.296331 -0.296022 -0.295408 -0.294539 -0.293466 -0.292243 -0.290926 -0.289567 -0.288219 -0.286933 -0.285757 -0.284738 -0.283917 -0.283333 -0.283020 -0.283009 -0.283325 -0.283992 -0.285027 -0.286444 -0.288252 -0.290458 -0.293064 -0.296069 -0.299469 -0.303257 -0.307424 -0.311956 -0.316841 -0.322061 -0.327601 -0.333440 -0.339559 -0.345938 -0.352554 -0.359387 -0.366414 -0.373613 -0.380963 -0.388441 -0.396027 -0.403699 -0.411438 -0.419224 -0.427038 -0.434862 -0.442680 -0.450475 -0.458232 -0.465936 -0.473572 -0.481125 -0.488576 -0.495904 -0.503087 -0.510098 -0.516906 -0.523480 -0.529784 -0.535780 -0.541426 -0.546685 -0.551520 -0.555889 -0.559755 -0.563082 -0.565838 -0.567995 -0.569531 -0.570431 -0.570688 -0.570304 -0.569287 -0.567657 -0.565438 -0.562665 -0.559381 -0.555628 -0.551458 -0.546924 -0.542083 -0.536996 -0.531722 -0.526321 -0.520854 -0.515376 -0.509946 -0.504614 -0.499430 -0.494442 -0.489690 -0.485212 -0.481043 -0.477211 -0.473741 -0.470654 -0.467966 -0.465690 -0.463833 -0.462401 -0.461394 -0.460812 -0.460648 -0.460896 -0.461545 -0.462583 -0.463997 -0.465770 -0.467886 -0.470326 -0.473072 -0.476103 -0.479400 -0.482941 -0.486707 -0.490677 -0.494830 -0.499147 -0.503606 -0.508191 -0.512880 -0.517658 -0.522506 -0.527409 -0.532350 -0.537314 -0.542288 -0.547254 -0.552197 -0.557097 -0.561933 -0.566678 -0.571305 -0.575782 -0.580074 -0.584145 -0.587954 -0.591460 -0.594625 -0.597408 -0.599770 -0.601673 -0.603080 -0.603960 -0.604287 -0.604039 -0.603204 -0.601778 -0.599763 -0.597171 -0.594023 -0.590346 -0.586176 -0.581557 -0.576533 -0.571154 -0.565475 -0.559554 -0.553449 -0.547218 -0.540921 -0.534616 -0.528359 -0.522202 -0.516196 -0.510390 -0.504825 -0.499541 -0.494574 -0.489955 -0.485709 -0.481859 -0.478424 -0.475416 -0.472846 -0.470720 -0.469040 -0.467805 -0.467012 -0.466654 -0.466721 -0.467201 -0.468082 -0.469347 -0.470980 -0.472963 -0.475277 -0.477901 -0.480816 -0.483999 -0.487431 -0.491090 -0.494955 -0.499005 -0.503219 -0.507579 -0.512064 -0.516655 -0.521335 -0.526087 -0.530893 -0.535738 -0.540607 -0.545485 -0.550356 -0.555201 -0.560000 -0.564729 -0.569362 -0.573868 -0.578216 -0.582368 -0.586286 -0.589930 -0.593259 -0.596233 -0.598813 -0.600958 -0.602632 -0.603798 -0.604425 -0.604483 -0.603946 -0.602794 -0.601008 -0.598576 -0.595490 -0.591745 -0.587340 -0.582282 -0.576577 -0.570238 -0.563280 -0.555724 -0.547589 -0.538903 -0.529690 -0.519981 -0.509806 -0.499198 -0.488189 