0.000000 0.000000 0.000000 0.000000 0.000000 0.000000 0.000000 0.000000 0.000000 0.000000 1.001263 0.186589 -1.019530 -0.710432 0.549136 0.335086 0.343641 -0.242945 0.148456 -2.676747 -3.340004 -1.856809 -0.578408 0.344312 -1.416463 -2.718730 -3.422433 -6.110868 -3.436926 -2.540213 -1.498381 -2.924968 -5.420948 -4.966324 -4.338244 -5.587357 -7.505920 -6.347149 -5.257785 -6.492961 -5.917563 -8.041594 -8.408816 -10.502719 -10.764427 -9.098578 -9.047086 -11.190429 -12.617599 -13.393917 -12.546604 -14.007176 -14.118190 -14.007502 -14.269457 -13.705704 -13.413741 -14.137906 -15.167417 -14.773384 -13.131778 -11.693364 -11.312356 -11.358543 -11.269490 -10.908151 -10.277224 -11.147732 -9.857001 -9.638804 -9.186794 -8.091936 -9.558244 -10.303297 -11.102631 -10.600593 -10.519816 -10.342999 -9.326539 -9.231837 -8.743017 -9.975171 -9.709651 -8.734487 -9.940589 -9.409701 -8.987980 -9.021521 -7.499725 -8.870179 -10.447559 -10.886879 -10.927436 -9.644072 -8.536372 -8.451851 -8.575429 -8.892966 -9.468196 -10.086099 -9.204523 -10.054059 -8.328969 -8.287615 -7.467735 -8.514293 -10.406881 -9.725403 -9.695250 -8.964222 -9.137118 -9.944912 -9.208474 -9.265337 -7.708230 -9.260308 -11.274518 -11.368471 -10.379731 -10.405853 -11.011752 -11.623887 -11.989829 -10.901850 -12.761903 -12.334251 -12.268017 -11.836588 -14.348365 -14.439749 -11.153173 -12.307576 -14.682109 -13.092693 -12.890422 -11.937216 -13.554279 -14.974386 -15.606661 -14.595326 -13.715426 -12.910731 -12.396043 -14.057781 -14.163374 -15.128469 -16.182866 -15.060062 -15.513483 -14.365198 -14.111137 -14.921821 -15.916191 -16.643034 -16.343073 -15.845762 -15.695097 -15.566183 -15.742555 -15.091433 -14.837252 -13.964861 -14.260779 -14.465582 -13.291571 -13.305735 -12.457683 -12.624800 -13.746646 -13.936674 -12.455412 -11.565137 -11.630224 -12.846636 -13.267854 -13.871399 -14.009953 -12.136566 -12.057280 -11.914472 -11.903619 -12.943167 -12.224042 -10.855905 -10.030687 -10.394181 -10.050684 -10.140395 -10.173115 -8.374005 -8.206432 -6.776376 -7.706851 -10.149663 -8.037409 -7.493368 -4.990559 -2.919751 -4.591153 -4.151650 -5.261709 -5.231317 -3.209966 -3.468499 -2.720577 -1.942934 -2.947206 -3.323320 -5.217973 -4.155915 -3.755765 -5.032956 -3.054948 -2.245263 -2.396380 -2.531587 -3.538292 -3.116133 -3.516865 -3.601824 -1.539648 -2.628098 -2.124646 -0.132658 -1.171246 -0.831836 -2.845087 -1.800462 -0.933546 -1.338748 0.527031 0.148255 -0.642384 0.042352 -2.232305 -1.969766 0.085770 -0.604528 -1.946482 -2.187345 -1.986768 -3.376721 -2.295124 -1.319985 -2.046876 -2.816481 -2.325775 -1.393780 -2.670157 -2.729860 -2.778834 -1.450979 -1.615918 -2.317871 -3.200417 -3.833360 -3.050430 -2.513002 -2.653496 -2.719117 -3.026639 -2.948650 -3.705741 -3.133927 -4.187388 -5.013119 -3.551246 -2.224979 -1.958114 -3.173824 -3.833101 -4.163777 -3.381982 -2.521102 -2.235144 -2.329996 -1.075157 -1.249260 -2.354606 -1.894343 -1.141736 -1.471057 -1.726603 -2.629947 -2.032510 -0.266763 1.005693 0.527755 -0.088213 -0.795127 -0.478417 0.189551 -0.939129 -2.319662 -0.628106 0.812707 -0.005131 -0.341985 -0.389623 -0.028438 0.392925 0.033740 0.472595 0.782842 0.751851 0.814486 4.580859 3.951253 1.921469 1.465632 1.065932 0.147927 1.993046 3.811572 3.488164 3.633202 3.686567 4.016438 3.692821 2.041813 2.324885 3.614555 4.008876 5.505877 4.740270 3.001826 2.359633 3.137298 4.943063 5.707374 4.037537 4.154453 4.555433 4.825229 4.255592 5.370795 4.544738 6.853434 5.753850 4.664214 5.675187 6.948448 4.678726 4.059343 5.719384 7.783784 6.248444 6.448757 6.321729 6.324343 7.166416 7.922271 7.746087 9.084408 7.300634 8.178248 8.151661 8.584810 8.417845 6.881751 8.765969 8.431771 7.418369 6.659095 5.983914 7.129699 7.298870 8.642037 8.606763 7.797848 7.919892 6.573422 7.226854 7.197608 8.495072 10.907367 8.706553 8.085232 8.290633 10.980024 9.794803 8.257401 6.915366 7.219775 10.022342 10.103489 9.165632 8.617918 7.153129 8.128741 7.191519 8.457859 9.577701 8.458496 8.724790 9.601649 8.464813 9.568725 10.175082 10.693238 10.997121 10.092009 10.139196 10.482916 10.442793 11.488364 10.840617 10.200670 9.204598 9.454364 10.781004 10.344204 10.628465 9.261055 8.395914 8.583283 7.742525 9.096037 10.360304 9.463663 10.454730 9.210994 8.826251 9.358047 9.644067 11.112353 11.502199 11.995538 10.021990 8.573196 8.722443 8.945394 9.054147 6.987049 6.343083 6.252653 3.958144 6.855997 7.510784 7.757722 5.587655 4.916889 4.638027 3.692663 5.865023 6.404664 4.596217 4.202820 3.613701 3.035170 4.059827 4.712357 6.774945 6.700292 4.664891 3.604565 4.457608 7.796774 7.796557 5.781688 4.100921 3.361546 2.760985 6.316995 7.340477 5.138103 4.384165 2.896683 2.908466 2.658106 1.353896 2.804544 0.297616 -0.234530 0.691508 0.301077 1.777409 1.322322 1.080500 1.792183 0.487370 1.495509 1.519092 1.995503 2.386240 3.332929 3.834401 2.016126 1.122318 0.719862 2.453783 4.540824 4.814494 3.106947 2.726157 2.328219 1.679482 0.720709 2.717898 2.971038 2.119554 0.533981 -0.168747 0.752840 0.431847 0.063339 1.773415 0.690435 1.537917 0.567061 -0.900310 0.699524 1.411044 2.473011 2.838573 2.337120 3.516860 3.275318 3.391463 2.485339 4.413097 6.780024 6.444430 4.337475 4.100395 2.308571 1.625503 2.277257 3.341014 3.291613 2.982705 4.130362 3.412811 1.954651 -0.305049 -0.713001 -0.001043 0.696625 2.095955 1.006963 -2.235676 -3.722419 -2.340437 -0.108540 0.610423 1.283069 -0.715971 -0.910184 -1.744032 -1.126422 -1.791894 -1.360809 -1.115423 -0.951281 -2.102878 -2.839285 -2.146893 -1.357096 -1.901633 -2.731283 -1.507423 1.133818 0.375266 -1.305196 1.350399 1.659919 -0.907354 -0.445606 0.543864 2.052920 2.925831 1.900598 0.977767 0.321186 0.391283 1.147491 2.039799 2.278261 0.479044 0.121908 1.137271 1.783593 2.722575 -0.301666 0.580697 2.696870 3.232063 2.838025 2.910628 1.858196 -0.035488 -0.137457 0.616254 2.231949 0.755046 -1.026805 -1.464772 -1.039388 -1.298629 -0.765958 0.338426 0.083517 0.403657 0.873714 2.032264 0.575555 1.900653 2.676024 1.874320 2.350085 1.755360 1.547464 2.360901 0.662737 -0.653295 -1.478602 1.388410 3.044920 0.982756 2.093624 1.638935 0.706388 0.169164 0.913283 2.187805 2.753506 1.615488 1.747686 0.843252 0.361995 -1.881340 -0.508958 1.511610 2.666566 2.664028 2.156159 0.636951 0.436484 0.108353 2.207150 2.407059 3.233989 3.458836 1.405014 -0.301062 -0.591156 0.595469 1.446789 0.984998 1.354037 -0.363437 0.161339 0.164076 -1.574042 -0.448866 0.125594 1.067435 3.003100 0.810805 2.372610 2.077757 2.557675 3.155416 4.501943 5.008070 5.600476 4.145779 4.465265 4.929384 3.584439 5.254193 7.943009 8.604978 7.896325 7.941628 8.289116 7.359839 7.990700 8.223413 10.563673 9.763827 8.248068 6.339253 7.546147 8.088528 8.678390 9.650923 9.148420 7.182723 8.967891 8.793349 8.855507 10.326813 9.245283 8.713171 9.136982 8.483817 8.689164 6.655766 7.314400 8.227479 7.798633 9.166095 7.964226 7.133844 7.265510 7.372955 8.934422 9.293242 8.381007 7.212297 5.685491 5.432451 7.078765 8.400284 7.587895 6.550983 4.484442 4.720509 6.348413 7.035514 8.036735 7.211736 5.730233 5.484213 5.555261 4.455961 6.105404 6.856081 6.609630 6.150865 3.231957 3.974920 5.866791 6.400859 6.794759 6.998186 5.712352 4.396787 4.817355 3.331917 3.219879 3.893141 4.436954 3.635097 2.188102 0.957428 -0.032077 1.198648 0.625030 1.492645 1.114891 1.755866 1.732694 0.314597 -0.685384 0.866293 1.047261 0.169182 0.172879 1.110533 -1.040001 -2.459826 -3.634455 -1.469224 -1.221323 -1.426573 -1.443841 -1.809275 -3.409669 -4.656537 -3.109342 0.623719 -0.707440 -1.429704 -2.410029 -1.860234 -3.322882 -1.988960 -2.092850 -2.031193 -2.209989 -2.674469 -3.529388 -3.256183 -3.135098 -3.538893 -3.364139 -2.249270 -1.812455 0.649774 0.104770 -0.250659 -0.581930 -2.122790 -1.100203 1.167649 1.043532 1.233164 -0.256965 -0.952297 0.831550 1.692810 1.444676 2.933405 2.867446 2.274788 1.362254 3.544518 3.672070 3.673556 2.832653 1.463851 0.308361 0.462115 2.388081 2.393988 -0.358530 -1.630987 -1.918457 -2.507804 -1.343226 0.708943 2.017345 0.310961 0.743719 1.253741 0.279721 -0.450435 0.457567 -1.126444 0.693139 0.411694 1.020721 1.938552 -0.901446 -2.503510 -2.399483 -2.759855 -2.156637 -1.922939 0.282748 -0.025813 -0.566093 -2.075780 -1.665836 -1.204732 -1.694587 0.938541 -0.182314 0.780210 -0.760594 -0.057433 -0.938485 -1.565583 -0.981076 0.705204 2.994708 3.029770 1.541316 0.851720 0.019519 1.516994 3.154650 1.218469 -0.378296 1.905324 1.446947 0.621146 1.669291 0.751794 -0.143857 1.755644 2.415818 2.887579 4.086947 5.473056 3.288564 4.973800 5.976841 5.024159 6.254133 5.157831 5.748155 6.168028 5.394135 6.641185 6.536126 6.294587 4.173796 2.881167 3.217162 5.733741 7.598226 6.576859 6.377834 4.928144 4.527573 4.652308 7.210824 6.584241 8.356856 9.372298 7.568913 8.521074 10.167034 10.542036 8.752958 9.812429 11.794860 12.158394 13.557331 14.080459 13.509737 14.075373 12.220347 11.363745 12.995541 12.176763 12.289750 12.604824 12.015772 11.017665 9.117530 7.875244 7.954157 8.641592 9.740157 11.327239 11.483455 10.262968 9.988287 8.942603 8.346910 10.318536 11.289229 12.043314 11.677028 9.271866 8.448637 9.232878 9.177971 7.646594 9.687791 10.947281 10.803033 8.759244 7.678791 9.101685 7.495409 6.438213 7.355833 8.818411 10.037738 6.298556 5.895094 5.956879 5.788891 5.606234 5.818048 7.018695 8.697931 7.997260 7.689077 6.949029 7.890092 6.617601 8.416520 9.808988 10.588957 13.103460 10.634512 8.481098 8.639279 9.802791 11.454735 12.824598 12.287744 12.451769 12.281030 10.084045 11.210090 11.670666 11.610871 11.030753 12.302131 12.543642 11.065222 10.186014 10.288318 9.796193 11.984498 12.171005 11.157489 12.040364 11.773549 11.915131 9.006928 8.957428 11.043883 11.997081 12.806111 10.908447 11.271710 8.235002 10.449823 12.506365 12.338851 12.528565 12.691826 12.363772 11.661234 11.807279 11.363305 10.624024 10.437731 10.845160 11.869220 8.382143 7.879689 8.504098 8.374201 6.979298 7.231604 7.889249 7.838489 8.123595 6.870984 7.013200 6.759475 5.564707 4.826814 3.323510 4.251436 3.818213 4.128190 4.291102 5.170247 5.118703 4.039623 4.233521 2.710011 4.566870 6.186716 9.173140 8.984889 6.584977 6.220888 5.935446 4.847996 5.719217 6.768989 8.732075 7.781702 8.085269 5.435468 5.645881 6.970117 6.036805 7.458968 8.776243 8.080799 8.575683 7.425491 7.512479 5.532153 5.915596 7.094270 7.812894 7.737165 7.076855 6.751621 6.020209 5.701570 5.496657 5.270867 6.932799 7.405087 7.104947 9.146988 6.120906 6.226089 5.781866 6.254927 6.682538 6.555334 7.383298 5.866184 5.029421 3.818249 3.697218 4.415211 4.119133 4.896247 5.721843 4.139889 5.084019 4.210217 4.742091 3.977742 3.965580 4.595528 5.196244 5.997799 5.398306 3.883415 4.465316 3.401395 5.596007 6.078759 7.995669 7.613839 5.677245 5.617325 6.909903 6.272449 5.169721 5.928639 7.415305 5.770609 5.214357 3.540855 5.313296 6.568583 4.867833 5.162743 6.154714 5.049961 4.716968 5.189465 6.714512 8.797856 6.756916 6.401405 5.484906 5.744683 6.043471 8.091280 6.004061 5.652156 5.764424 4.043219 4.162528 6.685036 6.128662 8.054807 6.126295 4.521523 4.843581 4.954787 5.673444 6.526575 6.831703 6.203551 5.964922 6.251654 7.445411 9.211824 9.954884 6.515154 4.990494 6.038234 6.104218 7.271344 6.963821 5.942207 4.540099 2.508785 4.098045 2.999499 4.296918 4.711660 4.729700 4.316217 2.667464 2.445520 3.604900 4.687914 4.564583 4.543231 5.621680 4.471810 8.028071 7.126127 6.934415 7.928185 6.356555 7.348646 8.590973 7.897235 9.473268 8.496249 7.303490 6.311591 8.189930 9.108365 7.330859 6.978933 6.408286 6.107483 7.609719 7.933143 5.672481 4.023096 3.621357 3.231921 3.651050 3.453030 2.215924 0.424292 -0.837052 0.638385 -0.234565 -0.607025 -1.344086 -2.853914 -3.231240 -2.710185 -1.547288 -0.406709 -2.251778 -4.745429 -3.905806 -3.608133 -1.918165 -1.172090 -4.077321 -5.352097 -1.744819 -0.412352 -3.424534 -5.460531 -6.326474 -4.447435 -2.858575 -3.857050 -4.451120 -5.344728 -7.382012 -4.492166 -5.178545 -5.238910 -4.827501 -6.109315 -3.686443 -4.180748 -3.476109 -4.550562 -4.491676 -4.671658 -3.698847 -1.906392 -3.067590 -4.084118 -3.308372 -2.208006 -1.133114 -2.135564 -3.127575 -4.049584 -2.728802 -2.486429 -1.280504 -2.427521 -2.929849 -4.215507 -6.653756 -3.970028 -3.886424 -5.711812 -4.877484 -5.904716 -7.649017 -7.953195 -7.992047 -7.440654 -7.055523 -7.285721 -8.880949 -10.682366 -9.674579 -9.349439 -7.253976 -8.880868 -9.671653 -10.902813 -10.280558 -10.628258 -8.877924 -7.921522 -8.837390 -10.358430 -9.969515 -7.676830 -7.791572 -7.870400 -8.909655 -8.868017 -8.192506 -7.475212 -6.901072 -6.239782 -6.977866 -7.983764 -9.846366 -7.803318 -6.301376 -5.459769 -7.861677 -7.980645 -7.201001 -6.186995 -6.336094 -7.356180 -8.471256 -7.079996 -6.375163 -3.766085 -4.473467 -6.316315 -5.823507 -5.097154 -5.856663 -3.712224 -1.078811 -3.215677 -5.061326 -4.611625 -2.862169 -0.974774 -2.588824 -4.135859 -4.412728 -3.851425 -2.245191 -1.859091 -1.397131 -2.841924 -3.774396 -3.443144 -3.810089 -4.537940 -5.902837 -4.353117 -4.332901 -3.112026 -4.083276 -4.497020 -5.424890 -4.290854 -3.501343 -4.048771 -1.983501 -2.382553 -2.552953 -0.524798 -0.853814 -1.341214 -3.289404 -1.476917 -1.815851 -1.488403 -2.480548 -2.148680 0.001066 0.258826 -2.266349 -2.420613 -1.994924 -1.847839 -0.361816 0.330336 -1.351162 -0.814466 -0.592562 -0.997976 -1.133960 -0.591868 0.990412 0.723241 0.067690 1.888407 -0.298417 0.801355 0.536269 -0.097567 1.818609 2.777701 1.597145 0.785213 1.060624 0.593360 0.106246 3.294091 2.556451 1.414583 0.837138 -0.915333 2.187066 4.343011 3.858775 3.754256 3.116425 2.182422 2.278890 4.146296 4.716423 3.463288 4.754204 3.125644 5.276177 4.307250 3.132672 5.411494 6.065476 5.755390 4.847768 5.662833 7.962842 7.517749 7.151787 8.040165 8.717377 9.107982 9.296154 8.105955 7.669086 9.302389 10.157243 8.592400 7.302640 7.707845 8.220484 7.360666 5.912718 7.844260 8.135686 7.520887 6.572884 6.055614 7.193411 9.252354 8.447026 7.033943 6.384534 6.530061 6.919667 6.881239 7.397977 6.760406 5.827381 7.190854 5.609355 5.447694 5.823387 5.809467 5.344851 3.671889 3.060182 3.048118 3.298148 1.779145 2.037197 -0.047403 -2.420723 -1.365865 0.679421 2.228910 2.149519 -0.992608 -1.005065 -1.770937 -1.778079 -1.094002 -0.581865 -0.661207 -1.533050 -1.629333 -2.180738 -3.417920 -3.578747 -4.166977 -4.237854 -4.399006 -4.048724 -4.828027 -5.074560 -5.145680 -5.274427 -6.017586 -6.368886 -6.973347 -7.159056 -4.877654 -4.653166 -6.111480 -6.872070 -5.487041 -6.548975 -6.696493 -6.298239 -6.878210 -6.463395 -5.786710 -6.357281 -6.688598 -6.412369 -4.188319 -5.445150 -4.965981 -3.924152 -4.264939 -3.376040 -4.598784 -5.052111 -2.388146 -2.458412 -1.833479 -2.578968 -4.835845 -4.239309 -3.731339 -4.185548 -2.800009 -3.547999 -2.617139 -2.948303 -3.673090 -4.834733 -3.821807 -3.485070 -2.741733 -1.726314 -2.379868 -2.897655 -4.571029 -3.719866 -3.190640 -2.851956 -1.717222 -2.519816 -3.064616 -3.130752 -4.679633 -3.287822 -4.171712 -4.962244 -5.946807 -5.463810 -4.098286 -3.361781 -5.099280 -5.951843 -4.260717 -4.472604 -4.683364 -3.628691 -3.228426 -2.170285 -2.173355 -3.053887 -2.281582 -1.890261 -1.476309 -1.870396 -0.657724 -0.460818 0.045337 -1.209159 -1.965882 -0.124956 -0.097786 -0.444716 0.264536 -0.477101 0.241911 -1.086445 -1.759076 -0.572647 -1.171884 -2.382784 -1.507888 -1.219414 -1.231101 -2.443329 -2.266414 -0.739376 -1.783484 -1.645740 -1.873152 -1.350118 -1.559224 -0.618809 0.242392 -0.619209 -1.149157 -1.838560 -2.728648 -1.944717 -0.920606 0.264172 0.221257 -2.747140 -0.743478 -1.318272 -1.195000 -1.140153 -0.918360 -0.163775 0.361811 -0.407222 -0.537389 -1.552580 1.523062 -0.664159 -0.030040 -0.509661 -1.335727 0.621231 0.992084 0.201983 0.745721 -0.290614 -1.611668 -1.457592 -0.232021 -0.370284 -0.262026 1.805941 -0.334986 -0.248757 -1.148481 0.224301 0.273565 0.069184 2.196835 3.751364 3.828259 3.141931 1.255881 2.192513 3.182685 5.407943 7.179844 4.742248 3.287966 3.154326 3.472074 5.733152 6.306931 6.968893 6.369643 5.652610 7.018103 8.027512 10.256268 9.898144 10.055797 9.224833 8.649703 8.385310 10.495265 10.813378 10.913666 9.034226 8.785816 10.136242 9.217729 7.887894 6.013103 7.388311 9.391084 9.925462 6.592642 6.764677 7.015213 6.267450 6.281462 5.504425 3.639929 5.829217 6.523453 5.660896 3.036488 3.931189 3.088782 3.042950 2.533770 0.593190 0.559867 1.826965 2.083796 1.111059 0.524258 -0.782804 -2.087604 -3.112091 -1.729081 0.023315 1.433466 0.621910 -1.015565 -3.040264 -0.905054 0.325053 -0.994411 -1.823907 -1.467701 -1.261680 -2.387219 -4.274933 -3.186563 -3.486183 -4.965393 -5.574576 -5.821491 -5.024230 -4.112321 -3.290954 -4.479879 -3.822041 -2.827587 -2.202175 -2.335821 -0.858220 0.423739 -0.797373 -0.795645 0.602299 1.316893 0.711363 0.839598 0.659570 0.454199 1.206010 1.685022 1.058355 2.086534 1.881612 0.958706 0.597729 0.575323 0.931778 1.655276 1.652511 3.186750 2.893731 1.631734 2.386961 2.385825 1.847552 4.177535 4.442878 5.008820 5.047938 3.947962 5.725938 4.331825 5.132147 5.692959 5.166942 6.228108 4.631973 4.539259 3.340651 2.118898 3.910529 3.405021 4.377808 5.531552 3.854952 4.267021 3.143447 2.260900 2.676445 3.332635 3.790120 2.411555 1.828857 2.595040 2.702069 3.498810 3.149020 2.352698 1.584977 3.070288 4.355714 3.640210 2.886755 1.707042 1.213039 2.764884 1.761196 2.625045 2.223085 1.525212 0.967667 0.445466 -0.061359 2.912811 2.538163 1.653453 0.475513 -0.926014 -0.046539 0.474255 1.974053 0.399970 0.879451 0.277644 0.281366 0.213024 -0.149936 0.973898 1.420591 0.325316 0.864699 -0.669155 1.146520 0.701680 0.646888 1.958344 0.497058 -0.083010 1.582498 2.362637 2.932812 1.762544 1.400372 0.207711 1.082550 2.032888 2.078800 0.935831 -0.055768 0.572440 0.224024 -1.082061 -0.616057 -2.014785 -3.662082 -2.850563 -1.698145 -0.672109 -2.556796 -3.107475 -3.264776 -5.769245 -5.677047 -3.486677 -3.519952 -4.348276 -5.532474 -5.099039 -4.697118 -4.070300 -4.143515 -4.138285 -4.751334 -6.451584 -6.102523 -4.864422 -6.314614 -4.354751 -5.306103 -6.420219 -6.510135 -8.341508 -7.537034 -6.103888 -4.316283 -3.265470 -4.730733 -5.974172 -5.189126 -5.011518 -4.665667 -6.042809 -5.335002 -4.840775 -4.541426 -3.769535 -5.331842 -4.549657 -4.325755 -4.374201 -3.598165 -2.721315 -1.970296 -2.674207 -3.295542 -2.265621 -0.982276 -0.435528 1.137940 0.447682 -0.842050 -0.841649 0.461214 -0.036320 0.009340 1.546203 2.916900 2.144609 1.390696 0.772923 1.111649 0.791161 4.017600 4.225774 4.041011 3.223686 1.859799 1.173166 1.009401 1.111863 2.084608 1.653073 1.042791 3.642665 2.527995 2.325237 1.492185 1.204424 1.460759 2.017226 0.805808 2.260030 1.659563 0.770090 0.313255 0.801889 0.651441 -1.044509 -1.104223 1.254810 1.227447 1.444690 -0.247887 0.541381 0.725126 0.366247 0.792733 0.067526 0.466196 1.647460 2.563928 0.704558 0.854907 0.946697 0.937751 1.232458 0.329373 0.052773 0.694882 1.374843 1.840843 1.489243 -1.019585 -1.187410 -0.511270 0.594692 1.921327 1.006033 1.050636 -0.305143 0.486792 -0.514491 0.149710 1.199867 1.041249 1.726100 0.992267 -1.137716 0.816595 3.471781 4.028777 2.081041 2.661379 3.212785 3.515143 4.566320 6.065604 5.201208 4.995158 6.022208 6.169560 6.074279 4.465349 4.718959 5.376576 3.474742 1.785011 3.272163 3.943826 2.817523 1.659719 2.927411 2.393351 0.942791 2.236140 2.686155 2.574172 2.266822 0.388166 -0.155412 -0.549183 1.610064 1.992104 1.741072 0.144622 0.898509 1.301347 -0.183611 0.293563 -0.714416 -0.772462 0.991763 -1.447653 -1.227163 -1.990944 -1.932252 -1.963018 -2.738528 -3.274566 -2.745468 -1.838796 -2.166516 -1.220280 -3.003052 -4.226447 -3.198812 -2.793535 -2.396427 -1.899317 -2.770653 -3.039457 -1.728039 -1.547249 -1.481465 -2.222694 -0.118955 -0.042152 -2.358949 -3.098859 -3.837182 -5.719578 -4.467603 -4.174241 -4.644854 -5.759395 -6.761351 -9.036183 -7.663207 -8.021369 -5.927885 -5.700904 -5.073622 -5.849505 -8.296387 -7.230966 -4.945506 -2.608729 -2.394670 -4.103952 -1.841528 -0.399727 -1.248275 0.385928 1.563015 3.224844 3.149812 3.568555 3.867644 3.774050 3.148863 2.317371 2.830134 1.486646 1.867228 -1.815194 -0.537197 0.161702 -0.073008 1.611454 0.976866 0.784196 -1.033283 1.973443 4.549644 3.697685 2.669088 3.676868 7.238407 7.138571 7.011883 7.932557 5.873398 7.072941 12.222895 10.102458 9.728406 8.944804 9.626612 10.856779 11.913155 11.394365 11.675104 13.013683 14.308331 13.243300 14.346584 14.709308 14.350301 15.722911 18.207056 17.031656 14.938938 15.763201 18.713322 19.966500 15.796659 16.996503 17.276998 15.098181 16.064055 14.004320 13.658753 14.104651 11.614665 10.910091 9.895492 8.536275 7.418689 7.845979 7.558058 7.682430 4.143237 1.315460 3.240817 2.526225 3.903797 4.320386 2.567429 2.944013 2.064803 1.547641 -0.350088 0.029096 -0.432211 -1.619914 -3.327755 -5.611207 -7.663664 -7.483566 -6.860407 -8.515344 -10.222176 -10.012075 -10.441059 -9.026206 -9.159578 -9.339558 -7.600368 -7.820856 -9.347857 -9.030363 -9.352539 -9.933832 -8.892109 -10.159286 -10.268844 -11.358206 -11.606631 -11.115540 -9.076086 -7.977568 -8.576426 -9.726147 -9.567601 -7.915522 -5.902518 -6.858666 -5.908953 -5.395371 -7.812576 -7.213150 -6.454354 -6.052378 -3.543102 -4.602207 -4.296003 -5.419121 -6.953886 -3.950853 -1.738754 -2.737674 -3.574146 -3.403763 -2.573243 -1.466543 -1.001677 -2.152970 -1.905230 -2.382378 -2.399145 -0.547284 0.743028 0.295092 -1.963903 -3.782359 -2.817148 -1.234418 -2.358003 -4.250175 -3.728258 -1.095041 -0.978458 -2.473460 -2.130319 -1.248516 0.279118 1.264196 1.868173 0.866479 0.116557 0.320318 -0.941208 -0.173784 -1.449194 1.195595 1.815496 0.700810 -1.639546 -1.974727 -0.802449 0.048754 0.901493 2.110095 -1.216365 0.099629 -0.284760 -0.606265 -1.943836 -2.359081 -1.688332 -1.103707 -1.447523 -0.764591 -2.449414 -3.289803 -2.427273 -1.599352 -0.482479 -0.975250 -1.532084 -2.199961 -1.890968 -0.403370 0.930440 2.058219 0.775437 0.033244 -1.124093 0.211730 1.643502 0.857007 0.213618 0.414902 1.238060 0.012550 0.541227 2.352586 2.989103 2.447223 2.142826 1.924870 2.917052 2.607872 4.015167 3.913941 3.143739 2.922793 2.815039 1.426650 0.794146 3.850920 5.536159 6.872401 4.865583 4.489985 4.144733 5.652908 5.036810 5.929572 6.522226 6.121480 4.779360 3.932362 2.129142 3.147521 4.371877 4.762075 3.666829 2.749985 2.724744 3.879296 5.200926 4.309496 4.409617 5.557434 4.509573 4.102202 4.050219 4.257827 5.230718 5.076493 4.153499 4.456363 3.750043 1.982285 2.130020 2.407891 4.066995 2.866723 1.356590 0.376452 0.573587 2.659816 1.905772 1.811216 2.905121 3.952555 4.044819 2.943621 4.657176 6.126185 6.415900 6.717306 6.830983 5.633754 5.751849 7.031164 6.946138 8.042451 8.375307 7.497448 6.459651 6.779846 7.800027 9.010331 10.050338 8.842579 8.029236 7.181492 7.036982 9.102779 8.910955 9.141262 7.557819 6.301353 6.525372 4.112841 4.657850 6.014338 6.619434 7.400056 6.820550 3.629484 2.418307 3.518895 5.590122 6.263202 6.355141 6.944466 4.653140 4.047483 4.886985 3.987131 4.475205 5.286465 6.349047 4.912364 0.884441 1.300280 3.803471 1.400328 1.202663 -1.169492 0.561199 -0.544186 -1.771871 -0.459853 -2.033699 0.144453 0.131780 -2.389721 -1.718419 -0.902519 0.231364 1.152825 1.015680 -0.224809 -1.124254 0.515445 1.084772 0.206984 -0.502255 0.142993 -0.991101 1.894125 0.501463 0.623798 -1.092958 1.533416 2.700016 2.000306 1.251298 1.145328 1.303822 1.642918 2.208377 1.292890 -0.851873 -1.528003 -0.186321 0.594976 0.177442 -0.330690 0.266336 -0.912290 -0.639129 0.131266 -0.212045 -2.049504 -0.744929 -1.277234 -0.571298 -0.405150 -2.413146 -3.921005 -3.818775 -3.334349 -0.509070 -1.521661 -2.563182 -3.549313 -4.890578 -5.523280 -5.693007 -5.019754 -3.277335 -3.478203 -3.367909 -5.785375 -5.257889 -4.649233 -5.156228 -5.717828 -4.599091 -3.920279 -2.615878 -3.384012 -6.283544 -6.620067 -6.062470 -6.357186 -5.661801 -5.105955 -4.164524 -5.087518 -6.845396 -7.709455 -5.297554 -2.944011 -4.665438 -5.108510 -4.907458 -3.855948 -3.907227 -3.660744 -2.076854 -2.418843 -2.156478 -3.110563 -2.749501 -3.496215 -2.718802 -1.733121 -3.584336 -2.325774 -2.311522 -4.438495 -2.675384 -3.448666 -2.820971 -1.632305 -1.656738 -1.809591 -3.210064 -4.400564 -3.362290 -3.079971 -3.192386 -4.395422 -3.837178 -3.438775 -2.020327 -2.849720 -1.870444 -2.221699 -1.728100 -0.714149 -0.264537 -2.305068 -1.884602 -1.379339 -1.280737 -0.111456 -0.631701 -1.909392 -1.514466 -2.011236 -1.610428 -2.250712 -1.176911 -1.058367 -1.080751 -0.215673 -1.519552 -1.390394 -3.289604 -3.447505 -1.771024 -3.326723 -2.641108 -1.749798 -2.757403 -2.321035 -3.213230 -1.491791 -1.702322 -3.230635 -4.673093 -2.993452 -0.193613 4.355504 2.600194 -0.810634 -2.152824 0.050627 0.825189 1.629240 2.626530 1.068680 1.742185 0.636944 0.649554 1.502991 1.243140 0.239838 1.141144 2.673310 3.462464 3.238821 4.685565 3.353683 1.832302 1.680194 3.061921 5.512467 4.248281 3.678702 2.226272 3.469920 4.219251 3.982791 1.901746 1.464803 2.666000 5.523778 6.413939 3.762530 2.252968 2.442404 5.385876 4.149303 4.933763 6.086215 5.762771 4.954738 5.165262 3.629769 5.377898 7.853052 5.718356 6.516183 7.208902 5.036349 5.295754 4.422860 5.500690 6.834453 6.198213 6.238936 5.843439 7.171567 6.089843 6.014927 5.232577 4.737059 6.601721 6.988234 6.748529 7.135911 6.084220 5.270521 5.014823 5.387589 5.139134 4.610742 4.203903 6.287815 5.402716 3.353234 2.791505 3.596242 2.817648 2.055798 3.427003 4.215599 3.010928 2.917909 3.998723 3.224131 1.721940 2.280235 4.725969 6.496300 4.163370 3.602219 3.316412 3.955167 5.602188 5.235584 5.800822 5.988679 4.928173 4.184017 4.637122 2.995071 3.523646 5.482345 5.116559 4.426259 2.897217 2.479500 3.859799 4.205744 4.615759 3.065323 4.355558 4.800280 2.823858 3.703279 1.957446 2.586145 5.657065 4.699955 4.243657 4.487298 2.526093 1.525559 3.458431 6.595002 6.892762 4.024177 2.736267 3.936125 3.882133 2.988468 4.352799 4.981487 3.015784 3.311276 3.888067 2.609496 3.425561 6.364672 4.841515 3.394700 3.067676 3.660385 5.085694 6.617662 6.616435 5.469014 2.127273 2.869821 3.494457 4.855309 7.059297 6.414057 3.190444 1.713735 3.500894 4.511152 4.271264 4.807004 3.326277 3.900302 1.888738 1.605759 2.363690 5.142479 5.970435 3.665024 3.439103 1.881999 2.907709 5.132551 3.907013 4.156241 2.858438 2.081086 3.081953 2.197055 0.465933 1.120754 -0.912907 1.158610 1.557750 2.245542 -0.130981 -1.440865 -0.734773 -1.789415 -2.449322 -2.516425 -1.488268 -2.640058 -1.409251 -0.903632 -3.013673 -3.634089 -2.615568 -2.133438 -1.183630 -2.789653 -3.423433 -2.950754 -4.655179 -3.093079 -3.012762 -2.241439 -1.405497 -3.385376 -3.634006 -3.169327 -1.953474 -3.280371 -2.435054 -2.171185 -1.312569 -2.420594 -5.185376 -4.122313 -3.183625 -3.157983 -1.419083 -1.230221 -3.454878 -4.800552 -2.348970 -1.931166 -0.044948 0.783782 -0.819971 -3.686450 -1.099476 0.828716 1.975546 1.949762 0.889428 -0.716159 -0.675182 1.544708 0.804158 -1.510627 -0.860570 -0.408929 0.288807 0.844484 0.219959 -0.652750 -2.754605 -0.729682 0.416813 1.666002 2.253398 1.008868 -0.950869 -1.708090 -3.725358 -2.692725 -2.273413 -1.280585 -2.164433 -3.786587 -4.294538 -4.229064 -3.166816 -3.781541 -1.963251 -1.299832 -0.961032 -1.938542 -2.759694 -0.674028 0.429363 0.503590 1.476168 0.087837 1.320889 0.658387 0.259664 0.811393 1.419133 2.670189 2.828808 0.805563 2.552808 0.568505 0.226244 1.691996 0.437351 0.662419 0.346958 0.598620 -0.415013 1.167992 2.092068 2.716428 0.012905 -1.343952 0.194269 1.004735 0.974405 -0.134066 0.214396 1.485860 0.522962 -1.339194 -1.167972 -0.384592 -0.770824 0.366706 0.201003 1.249785 -0.679464 -2.209032 -0.983738 -1.272859 -0.675401 -0.435195 -2.472511 -1.634354 0.194367 -0.458072 -1.035764 -3.712694 -4.517277 -3.302285 -3.210793 -2.488046 -2.856065 -3.847539 -4.112547 -4.358056 -3.909550 -2.620275 -2.765475 -2.908901 -1.244727 -3.537745 -3.312259 -4.133075 -4.943165 -4.739812 -4.725548 -5.405517 -6.242256 -5.540324 -4.727255 -6.432429 -6.413705 -5.076838 -3.321008 -3.519345 -4.736275 -5.557026 -6.508558 -6.007572 -4.719338 -3.008098 -5.136446 -5.472518 -5.692593 -5.050111 -4.081902 -3.884727 -2.670385 -2.075058 -3.772213 -4.120318 -4.034339 -3.674204 -2.851900 -3.671338 -2.769212 -3.099473 -3.017010 -5.564503 -5.443806 -2.681796 -3.300454 -4.159569 -3.046750 -4.081519 -2.962865 -5.001237 -5.832779 -3.769245 -3.372862 -3.229310 -2.687787 -2.779692 -3.135559 -2.744875 -2.709927 -5.580664 -2.222417 -2.341205 -2.682724 -1.114275 -0.420582 -1.018158 -3.483152 -4.186232 -2.796947 -1.823023 0.104797 0.479209 -1.621343 -2.176453 -1.745726 -1.002245 -0.452971 -1.114508 -1.265782 -2.970444 -1.687364 1.102105 1.616216 0.588543 -4.098578 -4.126719 -2.565589 -3.046372 -0.879893 -2.327943 -3.936578 -4.630867 -5.389906 -3.082521 -4.633333 -2.737134 -0.854693 -2.601237 -2.166988 -2.525508 -3.763679 -3.936742 -3.563082 -0.472262 0.183249 -2.359542 -3.425158 -4.199471 -3.220615 -2.179876 -1.235342 0.044961 -0.034780 -1.922378 -2.557100 -2.220814 0.774016 1.422862 0.097295 -0.446353 1.022468 0.540513 0.858025 0.547053 2.041004 0.517576 0.642778 0.711826 1.171722 0.669342 -2.383437 -2.084187 0.268045 0.663722 1.357363 -0.616089 -0.546163 0.196748 -0.337608 0.112745 0.307370 0.264266 0.190081 0.450842 -0.053939 -2.214182 -2.437100 -2.081014 -3.606022 -3.087747 -3.707996 -4.399882 -5.694671 -6.019422 -4.723005 -4.528109 -5.651702 -5.219325 -4.041808 -4.922754 -5.531292 -5.335996 -5.061616 -6.519831 -6.136281 -6.322847 -5.381633 -5.129539 -5.564640 -5.461947 -5.410030 -6.674488 -6.801246 -9.025247 -6.016305 -4.279250 -4.955906 -4.734147 -5.843735 -5.882868 -6.002807 -6.001296 -3.265239 -3.240298 -2.988274 -3.583095 -5.834794 -6.361151 -3.997276 -4.208930 -4.222123 -3.739741 -4.405534 -2.244128 -2.755695 -3.888887 -4.276881 -4.689992 -4.019460 -2.432976 -2.970778 -2.893772 -3.208280 -3.477532 -3.166092 -2.867170 -4.019459 -1.970635 -0.777227 -0.637785 -0.672544 -0.134396 -0.912961 -0.531996 0.044645 1.450440 1.262084 -0.956136 -0.965135 -0.496348 1.764633 -0.271440 -1.559623 -1.285295 -3.073331 -1.265277 -1.079354 -0.836785 -0.414813 -0.486101 -0.406130 -0.563347 -1.097466 -0.794203 -1.369728 0.678702 0.124935 -0.959482 -1.400680 -0.902407 -1.071568 -2.305154 -0.424579 1.050444 0.928327 0.115367 -1.874509 -0.438536 0.650811 0.831880 2.622794 0.501955 0.041842 1.194286 1.641645 1.586399 2.608296 5.045294 5.479074 3.434149 3.002859 6.116079 4.884187 4.298640 5.498309 5.807374 7.367160 6.668508 3.888126 4.766176 5.351595 6.037585 4.658845 6.501589 7.345889 6.688000 6.405025 7.370582 6.840120 5.592514 3.707989 5.047335 7.268220 5.914237 6.791377 7.259051 6.965505 5.807412 3.622148 3.937144 4.602157 5.235293 5.362696 5.906192 5.062740 4.802954 3.550889 3.959141 3.482068 3.912795 5.348415 6.444710 6.527501 3.789723 2.337012 3.494680 4.874067 3.189781 3.158887 4.316939 5.245924 2.998564 1.574710 2.722700 1.943017 1.152365 1.836321 1.918635 3.245670 2.361770 -0.636602 -0.038580 -0.064770 0.847074 2.220947 2.079401 1.334442 0.566635 0.452125 -0.466930 -0.303966 0.126091 0.006868 1.246507 -1.033142 -1.632578 -1.320320 -0.666386 -0.560798 -1.991533 -1.637993 -1.908247 -1.758351 -1.344064 -2.397253 -1.206903 -2.326760 -3.930760 -4.934439 -5.567044 -4.568602 -3.037371 -2.966480 -3.406637 -3.197854 -5.078164 -4.826171 -2.946062 -1.964250 -2.261262 -1.514005 -0.089411 -1.083763 -2.012133 -4.120839 -3.167360 -2.033710 -0.756931 -0.099835 0.729682 -0.484959 -1.111229 0.135048 -0.043999 0.795738 3.933840 3.513460 2.160063 2.862134 1.432851 2.561651 3.260787 4.893163 4.517746 3.047473 2.293498 3.131890 3.689310 3.927295 3.796167 2.848443 2.106363 3.689134 4.432257 4.576457 2.843346 2.812304 3.587258 5.403238 4.838899 3.235087 2.730296 3.479357 3.179743 1.970130 2.778226 3.391844 3.798625 3.920548 4.608359 1.486366 2.136871 5.345026 4.341310 5.721720 3.894552 3.442433 3.429871 1.573775 5.086467 5.719420 3.977257 3.610925 1.462692 2.975545 4.766155 3.502795 2.180067 1.872021 1.295503 3.411360 2.572977 3.242328 1.595440 1.605714 1.234426 2.280845 3.306743 4.893521 3.880280 2.263469 2.617442 2.804249 1.957126 2.542644 2.584190 3.296857 1.423804 0.915759 1.367266 3.651245 1.792982 1.799208 1.108889 0.539506 3.231660 3.500496 1.540456 0.635207 3.148709 3.813181 3.775808 4.060872 2.791415 2.497589 1.750451 1.754872 2.999201 4.183931 3.759209 2.002604 2.724471 -0.206390 1.486397 2.587555 3.071147 2.920366 1.589113 2.394774 3.030392 1.183342 1.735639 2.039259 3.055124 2.575506 4.279991 1.575202 1.182138 0.420848 1.442797 3.413226 1.679290 1.291377 2.291200 -0.153962 0.034955 1.009558 2.557797 1.556646 -0.696630 -0.286281 1.113470 -0.179673 -0.228128 0.711984 1.844409 3.680255 1.137979 -0.052801 2.100597 0.110237 0.110349 2.637469 2.675748 1.427288 -1.016326 -0.784102 0.252696 0.768445 -0.318942 0.517322 0.251574 0.536057 -0.513456 -2.067671 -1.478517 -1.860395 -0.916478 -1.153203 -1.449237 -1.215719 -2.439883 -1.804123 -1.078853 -2.436348 -2.827336 -3.043122 -2.126486 -1.865646 -0.875818 -3.498401 -2.921265 -2.590262 -3.471880 -4.966365 -4.409608 -1.938831 -1.965656 -4.007916 -5.385041 -5.869022 -5.548830 -7.148826 -7.868163 -6.622355 -5.750997 -4.350032 -6.598307 -8.768148 -8.762377 -7.502615 -7.852616 -6.922735 -6.528109 -5.259940 -6.612282 -8.530748 -7.776885 -6.902121 -6.538364 -5.483483 -2.932716 -3.155654 -4.100104 -3.878467 -3.094617 -2.881950 -2.894206 -3.417098 -2.001321 -1.684318 -2.021093 -3.853865 -3.319745 -3.198755 -4.135693 -4.497826 -2.154197 -2.551000 -2.760563 -1.230916 -3.378060 -3.748874 -4.071039 -3.285955 -1.393219 -1.771426 -0.378598 -1.343694 -3.333872 -3.168365 -2.802473 -1.295972 -0.071835 -0.850933 -1.395225 -2.626497 -1.334766 -0.122451 -0.768565 1.359924 1.728607 0.718590 2.243524 0.810098 2.132675 3.973815 3.499279 4.457329 5.974531 6.864572 5.933525 4.313700 4.694383 5.481611 5.694736 5.526152 7.517754 8.117411 7.577717 8.301521 6.674127 4.031990 5.163649 7.998092 8.480680 9.676430 7.315196 5.025910 4.521173 3.767289 5.155246 6.349589 6.036932 7.374352 5.695279 4.832748 5.261550 4.043543 4.800114 5.297278 5.888388 6.954219 6.507985 5.550507 3.617047 3.769371 2.417792 4.649352 2.924158 3.094163 3.678792 4.328402 3.444167 1.670866 -0.225787 1.456769 1.537534 2.210391 2.884583 2.665408 0.551374 -0.518530 -1.272583 -1.036319 2.154668 2.693594 2.797600 0.356354 -0.310879 0.942185 2.227333 3.136460 3.294243 2.147431 1.721058 1.555143 1.892938 1.183449 0.668122 1.175824 1.309191 1.779151 0.313156 -1.419436 -0.931352 0.272936 1.670277 1.900426 2.288297 1.161187 -0.337261 0.551847 1.579854 2.047159 1.863437 -0.230921 -0.386815 -1.990196 -2.181460 -1.036372 -0.407653 0.424629 -0.495788 -1.138167 -0.619915 -1.783651 -1.769769 -1.436171 -2.180213 -2.792140 -4.442519 -3.875499 -3.608717 -2.764313 -5.432178 -6.456420 -5.902206 -7.146138 -8.386164 -8.237432 -7.495301 -7.449532 -9.530461 -9.663886 -9.478964 -11.151285 -11.821702 -10.874562 -12.679263 -14.026641 -12.320413 -12.284112 -13.023306 -14.768338 -13.116954 -14.655668 -16.404335 -14.609121 -13.521556 -11.836224 -12.360428 -15.519088 -15.385298 -14.372037 -13.315654 -12.936870 -14.307380 -14.042255 -13.067371 -12.117519 -12.980266 -13.650115 -14.257002 -14.296978 -13.235005 -13.660075 -13.463758 -13.503406 -13.308759 -12.901607 -13.019234 -12.737225 -13.125775 -12.430596 -13.187367 -13.821710 -12.941120 -12.038428 -11.010937 -12.658460 -12.219520 -11.961204 -12.147305 -11.569334 -10.524604 -8.114203 -7.991152 -8.551555 -8.127218 -10.979716 -9.477864 -10.349562 -8.989534 -6.314046 -8.229088 -9.302951 -8.996152 -7.801437 -7.799280 -9.392242 -7.610557 -7.192389 -6.863384 -6.679596 -5.280557 -5.900794 -6.914135 -5.861973 -6.424970 -7.594993 -4.700972 -3.206996 -2.227083 -4.023112 -4.980883 -4.157811 -5.300648 -4.715187 -4.658957 -3.804519 -1.784946 -2.680475 -5.661106 -4.581922 -3.144703 -2.228540 -1.983848 -1.191673 -0.344148 0.509150 0.100971 0.448447 -0.727631 -1.220016 0.692371 2.339958 2.513918 1.268613 -1.947406 -1.286895 0.550863 0.510239 0.204994 1.130810 1.648174 0.800648 0.171388 -0.113638 0.094463 -0.547384 1.410777 4.224766 2.197509 2.997192 2.482077 3.054608 2.800898 1.416138 1.925718 3.539709 1.385383 2.304736 0.924929 -1.039898 0.676816 0.615916 0.494066 -1.071477 1.528302 1.044811 -0.667412 0.118476 -0.893802 1.075358 1.922531 0.700382 0.802252 -0.797999 -0.767158 -0.326385 1.047580 0.488548 -1.515562 -0.764860 -0.890270 -0.363577 -0.916204 -3.148898 -1.266313 0.351070 -0.027737 -0.293521 -1.553796 -2.285675 -1.559746 -2.773677 -3.994173 -3.166743 -2.377062 -1.607014 -4.345847 -5.316449 -5.450038 -4.092428 -3.719212 -3.265273 -1.307418 -2.271837 -2.376756 -3.204775 -3.622121 -3.563516 -2.473552 -1.566989 -1.073624 -1.401027 -2.451306 -2.862793 -1.700124 -0.876122 -1.088735 0.082064 1.738955 1.477771 1.137363 2.075471 2.327261 4.070010 4.237028 3.514126 2.651264 2.931953 2.846846 2.503622 3.609571 4.122984 3.725326 2.552679 4.470194 4.687825 5.019742 4.204226 3.799394 3.459906 3.799186 5.662742 4.729342 4.000424 3.259686 2.632076 2.248577 1.772089 1.192087 0.734151 0.101228 1.287293 -0.088961 0.216009 0.602917 0.573609 -1.542457 -1.038472 -1.420623 -0.990853 -1.703895 -0.899401 -1.222776 -2.194890 -3.504519 -2.992741 -5.764665 -6.433395 -5.487267 -5.264227 -4.204262 -5.200277 -6.168090 -6.879831 -7.492222 -5.092176 -6.263873 -8.970857 -9.016902 -7.453429 -6.709537 -6.664006 -7.823898 -8.298379 -10.778451 -10.919180 -10.637423 -9.984990 -9.145903 -10.347382 -10.658986 -11.553029 -13.071289 -13.038239 -11.459930 -11.178109 -10.850610 -12.509242 -12.561923 -11.257703 -10.846084 -12.960564 -12.514313 -12.654629 -12.813909 -11.467594 -11.020223 -11.790852 -11.634740 -12.329491 -11.167596 -12.098440 -10.364417 -7.976627 -9.266356 -10.079521 -10.855300 -11.648157 -12.242687 -10.547390 -10.053014 -11.772042 -13.145109 -13.682450 -15.215548 -14.538348 -14.011837 -13.891873 -14.371905 -14.986414 -14.110031 -14.370352 -15.585353 -14.761954 -14.277055 -13.323710 -13.821459 -14.439835 -13.534586 -13.195122 -13.015220 -12.792802 -11.901847 -13.538533 -14.660221 -12.917738 -11.937591 -10.317863 -11.631467 -11.907471 -11.175744 -10.324127 -10.730106 -10.232319 -8.786908 -7.232166 -7.653802 -8.806104 -9.034706 -7.800180 -5.626170 -5.364587 -4.170240 -2.538563 -2.744356 -4.054365 -3.384246 -1.187530 -0.690981 -1.077819 -1.977061 -2.465482 -1.850012 -2.616402 -1.409212 -1.623422 -2.362135 -0.705320 -3.153718 -3.509766 -2.068624 -0.896216 0.739558 1.270354 1.546228 1.197601 1.716588 0.740312 2.099203 2.663234 3.180464 1.998070 -0.245825 -0.970524 -1.994626 -2.923000 -3.275950 -2.565269 -3.144565 -3.627068 -5.246161 -6.062800 -3.395884 -2.779750 -3.695065 -5.654712 -6.686105 -4.615090 -3.207311 -2.211841 -5.253493 -7.409186 -6.566908 -4.324509 -4.649388 -4.878784 -4.057598 -6.126173 -5.086373 -3.752716 -3.302511 -3.640777 -3.731579 -3.617488 -4.419212 -3.356786 -1.422605 -1.813559 -5.617267 -6.749957 -5.243468 -3.153881 -3.435762 -5.266385 -3.716342 -5.145851 -4.680199 -2.542299 -3.394205 -3.479291 -3.746929 -4.341708 -4.919295 -5.120727 -5.553420 -5.454915 -4.278398 -3.982090 -3.325913 -6.318518 -7.647973 -6.023299 -6.820125 -6.405720 -4.924992 -7.282150 -8.898192 -9.962127 -10.805200 -9.293752 -8.347292 -8.950698 -10.256920 -10.508356 -11.372257 -9.316468 -9.688710 -11.167366 -10.786157 -11.721343 -11.257221 -9.382660 -10.734433 -9.681084 -11.689242 -11.148682 -8.863715 -8.435561 -8.757443 -6.790802 -6.432429 -6.172959 -7.684239 -7.919583 -6.370702 -6.594962 -7.115502 -8.062160 -8.291076 -8.951066 -9.086957 -11.275960 -11.096785 -8.986382 -8.446282 -10.999474 -12.501967 -10.897300 -7.922573 -7.137411 -8.695488 -8.612216 -7.127387 -6.320855 -7.206728 -6.798441 -6.839645 -6.315435 -7.696606 -8.655176 -5.541236 -7.526816 -9.464097 -8.901163 -9.552603 -9.379088 -9.147682 -8.959391 -8.649578 -11.005887 -10.232977 -9.930928 -7.929819 -8.266380 -8.384949 -9.429357 -10.130507 -8.137663 -6.949984 -6.914711 -6.889962 -8.915845 -10.114540 -9.666031 -8.253513 -7.683134 -9.879902 -10.528812 -10.395578 -12.148523 -13.743280 -13.501661 -12.421852 -10.812085 -11.681487 -13.281628 -14.576322 -15.679419 -14.679836 -16.273312 -15.987728 -14.836623 -16.180738 -17.195616 -16.417765 -17.336703 -18.567319 -18.388250 -17.566043 -18.756285 -19.125815 -17.508797 -17.493192 -19.154016 -18.416629 -18.243952 -19.060668 -19.512754 -16.942874 -14.474239 -16.651575 -17.247563 -15.710539 -16.363402 -14.190772 -14.512113 -13.238075 -12.257416 -13.527746 -14.865935 -13.035924 -12.436204 -12.246458 -12.599779 -11.157803 -10.988472 -12.254623 -14.257598 -12.075761 -9.019757 -9.755551 -9.914332 -8.874858 -9.847892 -10.024339 -9.826284 -8.200883 -6.542930 -5.841226 -7.057359 -7.778761 -6.928131 -6.770102 -7.398981 -5.291662 -3.301573 -2.020908 -2.753187 -3.871816 -3.396057 -4.236236 -3.489269 -3.261527 -3.042177 -2.263120 -2.773444 -3.244914 -3.507313 -4.352339 -2.594724 -2.328323 -1.528901 -0.888197 -1.746502 -0.243658 -0.107182 -1.078768 -0.222563 -2.333995 -2.358741 -0.468381 -0.091945 0.721344 0.339703 -2.290516 -3.762470 -3.250062 -3.011754 -2.314997 -2.698702 -1.103023 -1.282327 -2.385495 -4.658282 -3.711806 -2.183616 -4.843891 -3.173282 -1.106091 -1.162780 -2.284157 -4.427507 -3.378312 -2.464816 -2.446383 -1.830674 -0.374022 -0.492210 -0.997043 -1.738403 -3.356313 -0.488283 -0.373438 -0.385787 -0.105353 0.040763 -0.838181 -0.084323 0.061006 -0.383281 -1.574505 -2.807385 -1.519637 -0.099603 -0.413405 -1.553618 -2.585043 -1.768431 -1.026766 -1.489903 -2.314948 -1.819362 -0.573142 -0.279098 -2.035030 -3.802792 -2.672314 -2.661669 -3.100641 -1.752589 -2.141687 -1.826791 -2.537168 -2.843351 -2.087982 -1.180381 -2.863907 -0.664228 0.698154 1.552518 1.159345 -0.992252 0.489688 1.178930 1.054507 2.460469 0.859849 0.859598 0.878473 0.573497 1.683578 -0.722047 -1.956226 -0.314086 -1.393485 0.340849 0.966851 0.585689 0.760726 0.396196 0.340111 -0.045379 0.513053 3.826059 3.343830 2.233883 1.912595 3.604480 3.340446 1.901173 0.238421 1.388727 3.661525 3.321315 3.205364 1.517066 -0.375089 0.376163 1.697047 1.863417 1.340597 1.486200 3.397450 3.274840 2.084490 2.048801 0.972278 1.459431 1.274190 1.610858 3.394647 0.900890 0.823753 1.337054 0.474941 1.488529 0.915672 0.922625 2.018318 1.966681 2.301303 1.367572 1.612034 1.510151 0.340392 0.026305 2.363840 3.472099 3.985611 2.407337 2.546039 1.915226 1.681704 3.133227 4.634376 5.674798 3.238805 2.295315 2.893681 3.017476 3.436922 3.305597 2.475016 1.962304 2.290440 1.983934 0.697516 1.598976 2.973573 2.556900 1.105018 0.582827 1.789673 4.031697 0.861611 -0.219235 -1.515514 -3.266975 -0.485461 -1.364189 -1.170000 -2.810430 -4.091848 -2.382401 -2.822215 -4.344759 -4.653259 -4.821384 -2.921140 -3.417355 -4.284648 -4.677211 -5.893983 -6.267610 -5.336422 -6.453220 -7.129352 -9.217825 -7.130845 -7.305443 -7.120570 -8.305525 -7.892484 -8.548255 -8.400524 -10.898223 -11.241724 -9.395568 -7.199180 -7.769699 -7.260867 -9.412423 -10.919628 -11.709477 -9.734597 -8.959274 -8.036377 -8.921287 -9.045224 -9.117102 -9.168515 -10.291220 -9.746708 -9.116729 -9.533376 -10.104307 -8.839492 -9.078600 -8.098714 -8.532133 -8.771994 -8.348758 -8.166902 -9.141360 -10.307603 -7.619673 -5.942318 -6.327991 -5.249915 -6.368417 -5.739587 -6.454020 -5.776133 -4.939311 -3.752131 -3.778150 -3.611121 -2.854601 -4.122127 -2.439402 -3.312327 -3.410902 -3.176337 -2.932365 -1.281683 -1.923561 -2.678661 -4.180650 -3.707184 -3.380490 -3.942989 -3.995573 -2.837585 -1.490985 