0.000000 0.000000 0.000000 0.000000 0.000000 0.000000 0.000000 0.000000 0.000000 0.125950 1.576659 1.904070 -0.156937 -2.220445 -0.826181 3.596656 3.055519 2.268409 -0.198320 -1.192053 -3.041284 -0.936665 0.384607 0.634086 -0.752373 -1.272865 0.049590 -0.117142 0.964208 0.796706 0.877886 0.861703 2.409232 2.312545 3.451056 2.574747 1.591601 2.755819 2.877857 0.989926 1.017819 1.452755 0.708163 -0.266641 0.843506 -1.467677 -1.363683 -1.176757 -2.306161 -1.779894 -1.179204 -2.697830 -1.117051 -1.184610 -2.482628 -3.959481 -3.595445 -2.776909 -3.059086 -3.901812 -4.813787 -6.072579 -6.512568 -4.409735 -2.757126 -2.390632 -2.886591 -5.158380 -5.687355 -4.124896 -2.486284 -1.495403 1.613166 -1.260966 -5.865797 -4.878394 -3.612318 -2.227678 -1.267651 -0.290536 -2.903218 -6.279031 -6.508172 -3.305582 -3.301781 -3.080589 -4.350617 -5.112274 -6.896808 -7.053098 -8.547670 -7.892296 -6.240574 -7.474348 -6.937417 -5.862007 -7.345575 -7.664915 -10.187085 -8.050086 -7.225608 -6.586131 -5.391174 -7.116533 -5.525995 -6.747931 -7.224552 -7.039193 -7.398723 -8.629263 -8.010090 -5.638786 -5.454758 -6.659573 -7.067553 -8.068177 -9.712301 -10.765100 -9.277307 -6.689891 -5.343708 -7.298529 -7.731539 -8.056420 -8.835168 -11.873293 -9.039149 -6.293704 -4.719359 -5.348058 -6.216537 -8.114637 -6.109598 -6.473011 -5.525277 -3.570400 -3.199596 -3.872501 -7.293386 -3.919004 -0.210481 -0.239632 -0.764491 -1.525680 -2.988001 -2.511454 -1.388047 0.449150 1.400342 2.227233 0.317744 0.039600 0.362454 1.197752 1.199195 1.653039 3.006727 3.249113 1.067912 -0.410570 0.204735 1.828489 3.311406 2.668737 3.133697 1.745876 2.921024 0.840941 -1.124169 -1.775963 0.674331 1.307042 4.129588 2.617942 0.527442 0.250419 0.306770 -1.005811 -1.101397 -0.371290 0.033196 1.027468 -0.247757 -0.038135 -0.023980 -1.740687 -0.630738 -0.756556 -0.335066 0.415998 -0.178710 -1.125180 -1.730757 0.172147 3.251345 0.843593 1.532427 0.946525 -1.155020 -1.273496 -0.893822 1.708020 0.043131 1.745678 2.415702 1.131969 -1.095646 -1.973596 -0.119924 1.150086 2.417579 3.094504 -0.190488 -1.138872 -0.113410 0.117172 -0.794333 -1.252237 0.646453 -0.289369 -1.263338 -0.238720 -0.717083 -0.645625 -2.400979 -1.457275 -1.951616 -0.272512 0.320811 -1.318605 -1.747432 -3.431095 -3.260689 -3.896373 -2.821778 0.405427 0.130430 -0.938577 -4.331031 -4.461308 -4.764630 -4.258277 -3.634717 -2.155936 -1.787744 -2.283569 -3.200459 -3.185658 -4.244081 -4.289769 -3.794432 -1.090256 -1.084922 -0.513691 -0.610855 -3.431960 -3.933905 -2.331473 -0.984704 1.056032 1.476352 0.570212 -1.689781 -2.323789 -0.391486 0.716391 2.165763 2.770151 2.383452 -0.212674 0.952831 0.136257 3.112948 4.013183 3.759983 2.608660 1.464884 1.125822 0.591140 1.505807 -0.408363 -0.909899 -0.511800 0.852887 -0.586884 0.540059 -0.217390 -0.633731 -2.319971 -2.550399 -1.465731 -0.755309 -0.594315 0.339277 0.168035 -2.142847 -2.514767 -2.118319 -2.374133 -3.863461 -3.110290 -1.700566 -1.761406 -1.411780 -1.012419 -3.199623 -2.492886 -3.417487 -4.031680 -3.479984 -1.628449 -0.229620 -2.452003 -2.686859 -4.440378 -4.536969 -3.312881 -3.812391 -5.460595 -2.480714 -1.296665 -1.251285 -2.132536 -3.420959 -3.328611 -4.191638 -6.136304 -2.530479 -3.116762 -1.850775 -3.543036 -3.040764 -3.337582 -2.753696 -3.350340 -4.549799 -5.553555 -4.924555 -3.762292 -0.331033 -1.163220 -4.235951 -4.424878 -3.751857 -4.096147 -5.177641 -4.678637 -2.609515 -0.914786 -2.195273 -2.747070 -3.408495 -4.389389 -4.729105 -4.902605 -3.319058 -4.127992 -4.212524 -2.434635 -3.811764 -5.151051 -5.642124 -3.395694 -3.435009 -4.518550 -5.547646 -3.795503 -2.596195 -2.828804 -2.199852 -2.735096 -3.529145 -4.939524 -5.657004 -5.331577 -1.413588 -2.983096 -2.309520 -4.696578 -4.226379 -3.793217 -2.809573 -4.048256 -2.454509 -3.246773 -2.125557 -2.364856 -2.530764 -1.104647 -2.597143 -3.274251 -4.160893 -2.333036 -2.479866 -0.950785 0.319925 -0.954731 -2.670168 -1.765802 -2.633672 -1.825690 -1.332513 -0.412675 0.893251 -0.858035 -1.539515 -1.068422 0.349731 -1.810316 -1.924885 -1.432075 -0.918689 0.160371 2.155174 1.797147 2.634674 0.873219 0.911262 -1.890221 0.031391 2.362886 4.226883 2.077894 2.014721 1.213872 0.051900 0.243133 0.650506 0.737075 3.148333 1.142549 2.102609 1.158888 0.293179 -0.419006 -2.169712 -1.429310 1.835767 0.612085 0.658810 0.756650 -0.901378 -1.190582 -2.798127 -1.261102 1.200867 0.004899 0.259341 0.992637 -0.759889 -1.795699 -3.986548 -2.843641 1.303007 -0.196109 0.608755 -0.630415 -1.204418 -3.797369 -3.163407 -2.715924 -0.369680 -0.556770 -0.213540 -1.219945 -2.588566 -3.337912 -3.027587 -3.584204 -3.464232 -1.749791 -2.102246 -1.933700 -2.288547 -2.169380 -3.494262 -2.874161 -3.907751 -2.108773 -1.671662 -0.128924 -2.210555 -3.093760 -3.500062 -2.196443 -3.859580 -2.041225 -1.566223 -1.542134 -2.541738 -4.286838 -2.996927 -3.246557 -4.299758 -2.593369 -1.802253 0.947379 0.420298 0.082808 -2.808598 -3.783072 -1.447010 -0.194618 1.903903 1.761529 -0.120082 -0.717754 -0.781912 -0.066920 0.334934 0.465859 0.682355 3.080992 4.219101 4.680168 1.498294 2.599741 2.588868 1.287058 1.913844 4.127046 5.197431 3.591490 3.464215 2.849714 1.057104 1.356910 2.649011 5.171402 5.792530 3.753365 5.553364 6.340171 4.973527 4.422627 4.147450 4.539667 6.111315 6.122744 5.323327 3.886937 4.226705 2.525677 2.599613 5.060794 6.277207 3.543534 2.319263 4.401845 3.498195 2.672842 5.089007 4.587750 3.219288 2.435571 4.069472 5.384650 3.392179 3.796992 4.074786 1.935499 3.080256 5.140393 7.135499 5.062680 4.883280 4.361318 4.165534 5.087631 5.700495 5.627709 7.148972 6.620360 7.271861 6.207088 4.399837 4.558265 1.168783 3.247091 4.296251 4.508240 4.406674 4.827801 5.397408 3.369236 1.398730 2.045148 2.634586 4.123205 6.012326 5.632647 5.603968 3.015723 2.278575 4.212411 5.716576 6.162444 5.941903 4.802313 5.254445 5.326605 3.257544 5.459723 4.546081 7.961028 6.687559 6.303077 4.690942 3.355406 2.757863 3.703969 4.942187 5.733040 5.759154 3.549629 2.261918 3.762323 5.018078 7.257869 5.236373 4.350556 4.854256 4.520563 4.737859 6.294530 6.954184 6.637405 3.698436 4.131311 4.519206 4.626239 2.705654 3.128756 4.083108 3.250086 4.185291 3.083636 3.297443 0.013430 1.034532 2.982615 4.043155 4.567739 3.002436 1.686573 2.288596 -0.026882 0.736256 0.245584 1.211713 -0.093397 -0.048728 -0.103224 -1.404488 -2.749803 -3.567778 -2.004061 -2.170209 -4.384817 -3.443124 -2.900351 -2.077952 -1.193238 -2.549549 -4.188674 -4.268808 -4.468236 -2.979826 -1.550150 -0.761468 -1.363375 -4.188848 -3.967191 -2.399275 -2.523601 -3.472217 -3.761535 -5.825103 -5.039666 -5.682283 -1.567843 -0.720473 -2.080750 -3.497131 -4.438302 -3.508994 -3.094586 -0.478772 0.199859 -1.294529 -3.430645 -1.862738 -3.069509 -3.470930 -1.911135 -1.690514 -1.914620 -3.223466 -2.351232 -1.053871 -1.750574 -2.685362 -2.669535 -2.596249 -0.374203 -1.553305 -0.906494 -1.021909 -0.271552 -1.302169 -3.265439 -4.762722 -1.926501 1.941931 0.621835 0.084816 -0.149997 -1.338446 -3.187483 -2.515808 -0.946115 -1.722670 -2.983494 -1.084641 0.198864 -1.089474 -3.034474 -1.605677 -1.762224 -0.911225 -2.025050 -1.723622 -2.004294 0.837709 1.047097 1.111379 1.351277 -0.117481 -2.254314 -3.272804 -0.632596 2.671984 3.176908 3.743690 2.525303 1.412842 0.261494 1.827609 1.587731 0.777344 3.137074 2.497573 3.240015 2.193348 1.908526 2.173411 0.346644 0.963269 -1.114492 -0.165352 2.506806 2.452782 2.623045 1.552735 0.791370 0.468612 0.667578 0.819855 4.737471 6.020889 3.376448 2.356730 0.991363 0.773494 1.715221 1.162018 3.919425 3.857220 3.191746 1.440009 2.640316 0.681079 -0.976121 -0.480980 2.202610 3.372147 1.394639 0.282354 0.688656 0.350579 -0.499177 -0.330401 -0.015180 1.767650 0.025455 1.488523 0.150060 1.482385 0.653975 -0.000583 -0.363245 0.089927 0.873882 2.391431 0.599274 -0.110774 -0.841399 -1.720722 -2.963815 -2.078577 0.562487 0.067478 -2.151837 -2.973302 -3.112040 -4.303936 -2.518813 -3.008914 -2.459297 -3.100185 0.815505 -1.788709 -3.131465 -1.682848 -3.716516 -3.489663 -2.329987 -2.974507 -3.176634 -2.016259 -1.885656 -2.728113 -5.601357 -6.633524 -6.437842 -4.898908 -3.746963 -3.754397 -3.583163 -3.829770 -4.424646 -4.267596 -4.405385 -3.325637 -2.722850 -5.090822 -4.145953 -4.429479 -1.591023 -2.066006 -2.290857 -2.779456 -4.002363 -5.616778 -6.157747 -4.034454 0.254340 1.087528 0.611526 -3.003578 -3.513727 -2.209256 -2.429786 1.012870 2.775860 0.790231 -1.201419 -1.644578 -0.875894 -0.823686 -1.658911 -2.446460 -1.638276 0.425434 0.284105 -0.450735 -1.783475 0.690784 -2.228095 -2.904490 -3.344508 -0.876346 0.145456 -0.432981 -0.283578 -0.332973 -0.447915 -2.053146 -2.238445 -0.573113 0.313124 2.178073 3.154229 3.274431 2.823558 1.613576 0.812620 1.127391 1.867222 1.559478 2.887438 6.189968 2.169174 1.317452 2.299711 3.624639 4.311418 3.321474 2.619772 1.881333 4.281210 5.483734 4.505409 4.563153 5.760311 4.561096 3.241004 3.540936 4.291012 5.884259 7.637653 6.562510 7.369499 6.553333 5.517196 2.317959 4.052479 6.483494 7.138289 8.302671 8.022069 7.748920 4.168245 3.287578 6.120299 7.001707 5.053725 4.238727 6.758731 6.573636 6.386957 3.781928 1.079766 0.240758 1.751573 6.844789 8.643597 5.102074 3.613850 0.994059 -0.079516 0.514395 2.138541 1.870170 2.248392 0.806040 0.034641 0.588192 1.220570 0.248307 -0.380739 -1.995896 -1.156379 1.043775 1.672057 0.559111 1.408016 0.855676 2.236553 0.716833 -0.856994 -0.700755 -0.342675 1.039437 1.642783 2.509701 2.500925 0.580180 -1.048528 -1.758733 -0.627224 1.250311 1.946339 1.842953 2.202895 0.042130 -0.024714 -0.523346 -0.791827 0.899794 0.904188 1.665270 0.532712 -0.075220 -0.259792 -0.365070 -0.150355 1.299493 2.519904 3.007177 1.724917 4.314991 5.718599 6.352599 8.503735 6.382499 5.472013 4.476904 3.541264 3.581724 3.619074 4.586515 3.992671 1.364477 0.171839 -0.730411 0.800257 -1.165578 -0.974568 -0.743874 0.490876 -0.564328 0.296742 2.695129 1.685117 0.308956 -3.258329 -3.126661 -1.700629 -0.631213 2.429883 0.272619 -1.975446 -1.492031 -0.832203 -1.922884 -0.287328 0.114089 1.238662 -1.279456 1.732364 1.220887 0.590716 0.006037 -1.000903 -0.974373 -1.491329 -2.507656 -0.877990 0.288095 -0.333903 -2.351460 -1.171612 -2.895725 -3.868474 -3.595582 -4.032610 -2.875671 -1.506095 -0.731683 -1.088018 -2.754894 -1.819978 -2.143546 -0.695656 -2.889755 -2.457029 -3.924041 -3.826764 -2.011649 -0.608075 -0.828614 -0.544876 -1.719939 -2.580688 -4.738372 -4.126845 -2.939230 -2.280100 -1.061030 1.211883 -0.617378 -2.086058 -1.668361 -2.416216 -2.682389 -5.036908 -2.210445 -1.185013 -1.332044 -0.982215 -2.868317 -3.553121 -4.761553 -5.757868 -5.463130 -5.413823 -4.527826 -4.666566 -5.424056 -6.906554 -9.043186 -8.961189 -7.603067 -8.069996 -5.788172 -6.259232 -7.072607 -8.211422 -8.034005 -6.725459 -6.224482 -4.125291 -4.170570 -5.097109 -6.604318 -6.898842 -5.935820 -4.293404 -3.918028 -4.215255 -3.253188 -3.057803 -2.460056 -3.123249 -3.016398 -2.069579 -3.440088 -2.930966 -2.404457 -2.341394 -1.034924 -0.916782 0.756522 -0.177827 0.983049 -0.222519 0.434068 1.026007 2.114326 1.257328 3.116975 3.648809 1.812330 1.162509 2.637420 4.066073 5.051944 4.514617 3.458688 3.538300 4.994038 2.507142 3.497583 4.482563 2.107435 1.024939 -0.571839 0.186820 0.577540 -1.374886 -2.005630 -1.891961 -3.759971 -1.480985 0.520225 0.085226 -1.916512 -2.390320 2.506075 -0.992017 2.487218 1.222794 -2.027468 -4.505438 0.494898 2.199870 0.086880 -3.002300 -1.857939 -2.839238 -2.736556 -1.561617 -1.569191 -0.757154 -0.496928 0.003023 0.282479 0.584571 -1.173045 -1.785793 -2.445540 -1.022295 -0.960429 -0.204201 0.357311 -2.078776 -3.936511 -3.514113 -1.102707 0.752565 0.083425 -2.450844 -1.908105 -1.688722 0.858459 -1.024645 0.165207 -1.015743 -1.865298 -0.659164 0.704630 -1.362949 -2.845917 -1.704790 -0.585452 0.944244 -0.340654 0.031728 0.295587 0.553103 1.868907 0.846211 0.332378 3.062962 3.200831 3.292551 2.047976 1.792186 1.433222 2.172095 4.095680 3.935135 3.808296 2.718652 0.333703 0.521728 -0.546256 2.277042 3.087290 3.102888 3.257177 1.958544 1.295411 0.483670 -0.210712 1.394449 2.988387 4.618484 3.831451 0.996424 -0.167475 -1.280852 -0.166884 4.700586 2.839085 0.915644 0.342251 -2.046597 -1.233468 -2.194203 1.383250 0.107644 -1.512786 -2.112587 -3.066054 -2.979608 -5.178037 -4.232243 -2.513718 -2.355497 -0.943081 -2.477553 -3.399123 -5.796241 -6.224431 -6.251394 -4.942226 -5.489350 -5.029413 -4.983604 -7.112854 -6.847667 -8.379857 -7.864072 -7.681072 -7.248020 -6.104458 -5.815925 -6.045150 -6.004661 -7.197980 -7.171319 -6.060521 -5.252862 -5.010610 -5.258971 -3.455878 -5.855359 -5.131562 -6.335278 -6.224245 -6.612952 -6.189429 -5.152690 -2.095711 -5.512860 -5.169346 -4.497005 -5.183008 -5.012599 -3.190012 -2.700453 -0.329848 -2.802007 -3.955594 -3.006943 -1.932907 -3.212505 -2.128017 -0.345290 0.256591 -1.029568 -0.857302 -0.328243 -1.483327 -2.634045 1.776161 2.700988 1.496291 2.351461 2.235590 0.857992 1.112341 2.437333 3.437932 2.850757 3.919705 2.540998 1.331169 1.121718 0.741383 0.251073 3.064035 3.245965 3.481390 1.752390 2.545100 0.729752 2.311592 0.799669 1.715255 3.427428 3.700834 3.809422 4.695767 3.002244 4.065288 2.460089 2.991534 1.187391 2.752209 2.741852 3.431192 2.994591 4.020402 4.353517 3.510230 1.080815 2.722962 1.809992 2.867396 4.190124 4.287430 3.466113 1.623883 2.167088 2.711696 0.724636 0.236608 2.086312 1.703507 3.046989 1.444962 1.977273 0.592292 0.335111 -0.219942 -0.844222 1.673890 4.933976 1.490586 -0.456904 -1.135336 0.290554 -0.440130 -1.047101 1.261556 1.529450 2.448366 0.130691 -0.664375 -0.928480 -2.565782 -2.005916 -0.939979 1.381010 1.524922 -0.415696 -2.240342 -1.927508 -3.448156 -0.465634 1.038471 2.821211 1.354968 -0.313633 -0.845399 -0.383057 1.147578 4.489876 4.412176 1.874782 1.303288 0.761391 1.972367 3.674306 3.941018 2.470124 2.125990 0.352263 0.923710 0.195833 1.492905 5.356659 4.529509 0.543619 -0.286774 1.172560 1.409934 3.254780 2.991808 4.582851 2.666542 1.248616 0.144368 1.167865 0.737584 -1.287593 -0.630037 0.235088 -0.327358 -1.309765 -0.563681 -2.324011 -5.597982 -6.524493 -4.690345 -5.148063 -5.721400 -6.172482 -5.784879 -5.749587 -7.840992 -7.573559 -7.291298 -10.075956 -9.269753 -11.129026 -10.557742 -9.006958 -9.318404 -9.119679 -8.877834 -11.861685 -12.165257 -11.259862 -11.451914 -9.994626 -11.366783 -8.670010 -9.339233 -9.849506 -8.938291 -12.216396 -11.892628 -9.949091 -7.798385 -8.183491 -8.022626 -7.926091 -10.139797 -10.422051 -7.960650 -8.665849 -8.518995 -5.492547 -5.890335 -7.186509 -5.847182 -5.162997 -5.450773 -4.615313 -2.972086 -0.537231 -4.074666 -3.988658 -4.505075 -3.376917 -1.961001 -0.070342 0.158517 -2.377724 -4.188774 -4.856973 -5.658340 -3.455421 -0.215813 1.547529 -1.994908 -3.125468 -5.038575 -4.418591 -4.581042 -4.397253 -2.680720 -1.494056 -2.919048 -1.912431 -2.673203 -3.760102 -3.654214 -4.499271 -5.198710 -3.642883 -3.534853 -1.797860 -2.052467 -4.145980 -4.617254 -5.789116 -4.598391 -5.794060 -3.285061 -3.043078 -3.611048 -4.569563 -3.275821 -4.990811 -4.639521 -3.296216 -0.994604 -1.069295 -1.075471 -1.054071 -3.934118 -3.155971 -4.574554 0.158407 -0.144156 -0.575235 -0.905198 -0.799354 -2.278595 -2.383302 -1.991114 -0.877992 -0.424047 -1.778196 0.502537 2.114715 0.651577 -2.440455 -4.118646 -1.111585 -1.555411 0.001188 -0.031809 -1.698380 -1.792158 -3.319943 -0.591584 0.765848 1.036738 0.834312 -0.311021 -1.392290 -1.260456 1.149673 0.940474 2.962014 1.576324 0.760823 0.699611 -0.503959 0.138964 2.633208 2.782197 4.490328 1.556542 3.710995 3.546913 1.847156 1.427379 1.142545 1.922198 3.144503 2.345800 2.937574 1.190515 1.256625 -0.594790 -2.003164 -2.135292 -0.837279 0.351006 1.591102 0.429801 -0.526586 -0.486321 -0.899077 -1.681854 0.469509 0.890748 2.608544 3.778184 1.632741 1.136891 0.146602 0.563113 0.917096 3.293294 4.430185 1.940676 1.074249 2.489528 1.073537 1.390108 3.115376 4.180192 3.547788 3.209081 1.696115 1.829896 2.034606 4.868294 4.696266 4.257045 4.669520 2.919071 2.965908 1.824459 1.866316 3.830838 3.610424 4.103235 2.881486 3.087580 4.042756 1.421596 0.655889 -0.058210 0.865142 1.201655 1.241383 3.013485 4.051429 2.495898 3.724723 2.638516 1.705466 1.465165 3.581937 4.884382 5.013643 5.724614 4.000320 3.369658 2.465661 4.696377 3.626417 4.086526 5.099237 4.684640 2.781736 2.488551 1.730265 2.579728 3.604742 4.455161 4.066334 2.302716 2.540249 1.874771 2.814682 5.561511 6.794639 5.601602 6.791981 5.688879 3.532991 4.742685 5.739546 7.065424 6.866704 6.896977 7.411049 5.897428 2.523657 3.628698 3.528406 4.808091 4.750830 5.835490 6.562610 4.092282 3.810993 4.590684 5.068460 5.399439 6.795400 6.560472 4.106275 2.865432 5.221862 5.248568 4.830213 4.481039 3.349721 3.046309 4.985940 5.390291 5.185463 4.612489 4.793711 3.809336 2.758872 3.108386 1.523384 2.372404 5.771290 4.951472 4.311533 2.639608 2.244762 1.965702 1.618441 1.503639 2.440411 2.390405 2.389170 2.727250 3.851605 3.838629 2.338933 0.967721 0.076271 -0.913915 1.143327 2.431916 4.467728 5.260152 0.053880 -0.796030 -0.399873 -1.103913 -1.421470 -0.977784 1.317046 0.935580 -0.160425 -1.174212 -1.085633 -1.185818 -0.665299 -0.201795 0.411520 0.306133 0.144703 1.107904 -0.162789 -1.901146 -2.513389 -1.314186 -0.938945 -1.042367 0.582206 2.809189 -0.153044 -1.619040 -3.405303 -3.173311 -1.957969 0.350529 1.262700 1.557546 0.530461 -1.921957 -4.148484 -3.053665 0.198733 0.472906 1.037876 1.045304 -0.396851 -2.551923 -3.587452 -2.065581 -0.231058 2.060649 0.714775 -0.662725 -1.634052 -2.582359 -2.736493 -0.955735 -1.811974 -0.729033 0.103606 -0.321279 -0.318370 -1.177838 -1.179891 -0.256505 1.472212 1.738035 1.410139 1.207453 1.519353 0.485792 0.552522 1.004526 4.054841 2.913489 3.137612 0.057483 1.049632 2.448013 4.732126 3.499291 5.971169 4.486511 1.051571 0.345731 3.074975 5.244710 5.387791 5.097641 5.862976 2.151773 1.685320 1.772432 1.566347 1.226485 0.328245 0.772268 0.453674 -0.316519 -0.744737 -1.386076 -1.790410 -2.878868 -3.227894 -3.901894 -4.161828 -4.278452 -2.326563 -0.852992 0.156716 -0.129456 -2.283648 -3.170434 -3.599864 -2.782747 0.133459 0.516240 0.986990 0.341527 -0.199794 -0.555295 -2.442709 -0.726340 -1.467895 -0.989813 -0.780794 0.385170 -1.683854 -1.892584 -1.975867 -1.522523 -4.940286 -3.829570 -1.192652 -0.206385 -0.939654 -1.979214 -1.627509 -2.666372 -3.787918 -3.134169 -1.464755 0.786125 1.253914 1.893195 -0.013774 -2.108596 -3.570566 -1.022828 2.709056 4.222884 1.898667 1.382238 -0.052243 0.710034 1.552485 1.923573 1.706376 2.166939 3.244643 2.784526 0.310747 0.561251 0.860555 1.984644 -0.386501 -2.166478 -2.111070 -0.202587 1.228697 0.727267 0.876313 -0.443543 -0.494301 -1.744420 -2.161475 -1.904940 0.405538 1.058451 2.957502 4.041562 0.241132 -1.277156 -3.790262 0.349560 -0.381391 1.396732 0.702979 1.838642 0.021979 0.701901 0.781083 0.664585 -1.125710 0.068775 2.753990 3.110585 2.515287 2.346666 2.183058 0.859574 2.703326 6.181147 6.474966 4.568713 3.973408 5.182703 4.887589 5.086202 5.931779 7.192999 7.916648 7.121378 5.796120 3.367985 3.479633 4.099187 6.617590 6.495085 5.817609 5.582155 6.414015 6.666291 4.298630 4.568901 3.414581 2.980517 3.071693 3.702663 4.319123 5.635487 7.386109 5.831684 3.423093 4.013685 4.239927 2.865491 3.072235 3.052636 2.666476 3.538783 5.968738 6.328151 4.151891 1.926541 1.558360 0.021658 0.363449 2.422931 4.370871 4.123057 5.152282 3.266985 1.114767 0.144996 0.075173 1.490084 0.368899 2.833445 6.446529 4.075995 3.079285 1.041251 -0.153709 -1.374718 0.172990 0.945367 2.515687 1.964086 2.494326 0.553945 -1.178957 -1.689517 -1.148131 -2.600773 0.168444 0.346981 2.955455 0.035142 -0.247112 -2.418863 -2.779456 -2.733522 0.394497 1.223240 1.205674 -0.988335 -0.637548 0.273929 -0.744540 -0.028819 0.813975 1.071335 -1.188518 1.044941 -0.416595 -1.429009 -1.344125 0.689949 0.784820 0.344621 0.113771 -0.727951 -1.717880 -2.188702 -2.768237 -0.993026 -0.211433 1.638881 0.742872 -1.949360 -3.294109 -3.299807 -2.581207 -1.786317 0.479344 0.219230 0.901002 -0.135149 -1.116927 -1.582254 -2.929016 -3.946485 -2.892862 -0.276318 0.590684 -0.347156 -2.251385 -3.217480 -3.769315 -2.230342 -1.853856 -2.593851 -3.276577 -2.453767 -2.220445 -2.148135 -3.160701 -2.684948 -3.809592 -3.182129 -5.576488 -7.265428 -7.064763 -3.614090 -2.619242 -2.828184 -4.695121 -4.642915 -6.002131 -6.602600 -5.875808 -3.872269 -2.554874 -3.430842 -1.268490 -1.342476 -1.972497 -2.427758 -2.592481 -2.303347 -2.820975 1.274142 1.377335 1.399907 -0.967911 -1.620287 -2.103892 -1.571408 -1.038402 1.460808 1.555527 1.218333 -0.615718 -1.845173 -0.139935 0.135441 1.462240 2.036256 3.016733 0.916204 1.821205 4.616466 4.320294 5.305906 6.291799 5.932356 4.435079 4.425278 5.589405 6.956676 6.232158 5.195922 5.094234 5.945670 4.217379 3.356086 5.243648 6.219337 5.785738 5.593809 7.006035 5.339744 4.388911 4.892744 6.829008 6.218887 7.822540 10.375265 9.160166 6.685209 5.329972 4.696684 5.800685 4.822113 5.874627 5.692489 6.717463 5.498419 4.621217 4.123287 5.262309 3.593935 3.492653 1.899648 1.746834 1.332274 5.443365 4.869694 6.611569 3.394488 3.205065 1.872213 1.759533 2.289291 2.412980 -0.934006 0.713854 2.964954 3.863336 2.636470 1.884258 0.498217 -0.360648 0.116575 -0.058304 -0.217486 2.579432 3.804523 3.428801 2.622673 2.518229 0.257758 -1.493670 -0.922164 0.247092 2.175351 2.685261 3.239588 -0.349685 0.641172 -0.421517 -2.214446 -1.861488 2.409855 1.814641 1.540785 2.091573 2.006513 -1.313816 0.869650 0.320657 -0.004362 0.221003 3.388732 3.877390 1.229320 0.113426 -0.698965 -0.393255 1.510126 3.845264 4.364437 2.681198 0.595964 -0.733348 0.281586 2.521370 1.625760 1.699027 2.365890 4.314428 0.651419 1.111513 0.093232 -0.034758 0.471552 -0.039843 0.448029 1.148259 2.865885 1.529997 -0.762115 -0.313860 -0.545002 1.141081 0.639165 1.623935 0.592579 0.761708 -1.059017 -2.398928 -1.007163 1.095821 1.147717 0.869710 0.502309 0.274460 -1.111606 -1.894789 0.634197 0.903978 0.633582 -0.749497 -1.148435 -3.525438 -2.612334 -3.760462 -2.131058 -2.279037 -2.372321 -3.249694 -5.495153 -6.417846 -4.179024 -4.067789 -2.963861 -2.981004 -3.052000 -1.747451 -4.102016 -3.660958 -5.968856 -4.630771 -6.704093 -6.351829 -6.362458 -5.367902 -7.318908 -6.293302 -7.376420 -8.683589 -7.937329 -7.466852 -7.395408 -10.349460 -9.234122 -7.353045 -7.876789 -7.583009 -6.185704 -6.239111 -6.893834 -9.012698 -7.863236 -9.147339 -10.419240 -11.485168 -7.597466 -6.408561 -6.932977 -9.210880 -8.947465 -11.260538 -12.732599 -12.336117 -8.939830 -10.207689 -9.409993 -9.378902 -7.532241 -8.832896 -10.074416 -10.203414 -9.558555 -9.243195 -9.363541 -9.346110 -9.272598 -8.824883 -7.867431 -7.538294 -8.762599 -9.494499 -10.610158 -8.638181 -10.329925 -10.774319 -8.121206 -6.871569 -9.281674 -8.700829 -8.918173 -8.120015 -11.393600 -8.560026 -8.832521 -7.517907 -7.433959 -7.698089 -7.745625 -8.503880 -5.959799 -6.286032 -4.862900 -4.008291 -3.677976 -1.973058 -2.580474 -4.718830 -2.190621 -2.565852 -0.442865 -0.981474 0.196788 1.019654 -0.160278 -2.502241 -1.811420 -2.299423 -2.937688 -1.585735 -1.390091 -0.073712 -1.499942 -3.153625 -2.940698 -2.656690 -2.248950 -2.824628 -2.090479 -1.533296 -1.840373 -1.057428 -0.364839 -1.385061 -2.023500 -0.977885 -2.003385 -2.640247 -3.560799 -3.550455 -1.079912 0.840554 0.204893 0.044784 -0.259736 -1.034020 -1.222136 -0.048375 0.305134 -2.893293 -2.265846 -1.383601 0.506555 -0.597920 -0.313790 -0.901606 -2.501582 -2.205174 -1.805935 -1.457655 -1.183403 0.879638 0.818023 -0.728792 -0.591276 0.016191 0.926713 0.430497 0.522727 2.529263 1.107372 0.389672 1.477544 1.415226 0.069420 0.354416 0.170624 -1.115477 -1.342718 0.155656 -0.525505 -2.656864 -1.501039 -3.638567 -3.182708 -1.763390 -0.498875 -0.002525 -3.067741 -2.273165 -1.606385 -0.268861 -1.275478 -1.674276 -1.947708 -1.998644 -1.437278 0.486072 -0.151802 0.920920 -0.975015 -1.465490 -1.578266 -0.804635 1.586203 0.562844 -0.253897 -1.610650 -0.360193 -0.618373 -2.654713 -3.565373 -3.553894 -1.190959 -0.297204 -1.273383 -3.110032 -3.328058 -3.239638 -1.662253 -3.501520 -3.939833 -1.673940 -1.548879 -1.056337 0.134124 -0.308078 -1.254020 -2.758923 -3.057950 -2.649167 -1.484973 -0.643151 1.121112 -0.777899 -1.976864 -1.847767 -4.123625 -2.972531 -0.899602 -3.650816 -3.666390 -2.721728 -1.829192 -2.544369 -1.030513 -3.678568 -4.721818 -4.101903 -4.068355 -4.733365 -2.882886 -1.819278 -1.352597 -2.110026 -1.670566 -0.916205 -1.621020 -2.179488 -3.803590 -3.106855 -3.312420 0.438532 1.736726 0.656537 -0.232656 -0.420957 -1.345364 -1.150665 -0.158429 2.111387 3.291312 1.667638 2.850456 2.242815 1.979795 0.863370 3.008106 6.080725 5.034785 3.816334 2.898014 3.539200 2.988528 3.235963 2.900238 3.510243 5.934624 4.031360 3.491082 2.411020 2.174774 -0.052498 0.578033 2.575012 6.165186 4.301207 4.274806 1.779734 1.088415 0.920731 3.209524 4.454077 4.755453 3.932261 4.600215 4.444982 1.717152 0.742684 2.015425 4.781361 6.508945 5.903655 5.136864 4.280536 2.944055 3.286452 3.385642 1.941654 1.022636 3.557033 4.653324 5.106526 3.482188 2.649397 2.826025 1.439556 1.721321 1.667519 3.704259 2.440891 2.476814 3.421743 4.777276 3.342486 3.796098 2.280623 2.016287 -0.157306 3.033640 4.578374 4.891004 3.055621 2.365109 3.575949 3.432468 3.402456 2.078663 1.405272 3.080976 2.114721 2.650166 2.868331 1.604454 1.416685 -1.520938 -1.247058 0.966521 2.765941 4.036115 2.919944 0.190617 0.026088 1.402713 3.235594 4.070766 5.284415 5.458122 4.792325 4.555769 3.334675 5.895673 6.249246 8.439903 7.074866 6.507247 7.026197 7.631334 9.809224 9.364366 8.704309 9.478821 6.913364 5.132645 6.014676 6.087642 5.634323 7.562671 8.560625 8.775538 6.686022 6.404186 3.674742 3.969181 5.312240 6.756886 6.561649 6.329475 7.484239 4.556080 3.790672 4.202769 3.805217 2.299224 3.034450 2.736571 5.181663 3.485580 3.990326 3.525341 0.584842 1.216069 2.401388 2.248867 0.918473 1.057235 1.475027 2.901620 3.117528 1.680191 1.273204 0.380715 -0.496754 -1.445127 -0.215191 -0.435933 0.609764 0.559577 1.475415 1.815922 -1.055026 -1.308425 -0.625302 -0.675178 -2.444608 -1.980306 -1.381579 0.228939 -0.016486 0.017777 -2.770438 -5.168420 -6.725839 -3.321189 -2.537960 -1.422188 -1.972133 -0.607926 -2.829829 -3.654793 -3.342125 -4.058272 -3.813497 -2.984533 -2.463211 -1.806039 -3.150341 -2.851651 -3.063187 -4.114519 -3.302518 -3.706359 -3.702892 -3.730924 -3.608307 -2.480122 -2.302183 -3.409696 -1.958215 -1.394950 -2.061002 -2.527957 -2.115823 -4.554835 -4.767863 -3.233175 -0.057952 -1.848298 -1.266685 -2.097671 -0.746604 -2.505905 -3.050964 -5.870544 -3.470128 -3.341586 -0.947943 0.085545 0.405235 -2.046459 -5.146196 -3.847798 -3.791694 -3.779882 -3.338283 -2.020104 -2.288151 -0.122797 -0.363348 -1.540158 -1.808123 -3.771577 -4.213569 -3.671505 -1.558596 0.107734 0.755386 0.491348 -0.170928 -2.010202 -2.018697 -1.392361 -1.387806 -1.204616 0.924893 1.623143 0.277848 -1.760655 -2.242629 -2.312592 -1.272295 0.543108 1.296347 0.675707 -1.009520 -0.598579 -0.935799 0.289578 0.115347 2.086650 4.482226 6.240524 4.348780 2.621808 5.159138 5.248905 5.319377 6.107108 7.052444 4.669642 4.192663 5.715150 6.609667 5.681430 3.433602 5.310467 6.033803 7.175401 4.768521 4.936390 6.972532 6.165908 7.445902 6.916622 6.422015 7.604139 8.321077 7.029700 6.162537 3.937227 4.469911 5.331898 7.368314 7.744846 5.890112 2.556135 3.357542 4.178476 2.284948 -0.708254 3.334919 5.046829 3.571596 4.084467 2.192705 0.309286 -0.757184 0.647298 1.030664 -1.539350 0.278863 1.128209 2.336700 1.521087 1.052052 0.393058 -0.681703 -1.566956 -1.714710 -0.565299 -0.850875 -2.595799 -2.590747 -1.716697 -1.057340 -4.321668 -3.864101 -5.248743 -4.933279 -4.781121 -4.786101 -3.243720 -1.909815 -1.918528 -1.056123 -2.922122 -3.259893 -5.195148 -5.137281 -2.358140 -2.965254 -1.020481 -1.661619 -2.611976 -3.638058 -2.756597 -3.809462 -5.074230 -5.482144 -3.629044 -3.510568 -4.581306 -4.304005 -3.447352 -1.848449 -3.309627 -3.832631 -2.823970 -2.054462 -4.693103 -4.191790 -3.217643 0.135156 -1.445218 -1.089735 -1.267011 -3.514852 -4.932333 -2.293015 0.413006 0.223245 1.083130 -0.135344 1.799092 1.496011 0.408773 1.049011 0.964079 0.015822 -0.266395 -0.160693 3.077898 2.305543 1.369149 -0.206020 0.080126 -0.646767 -0.423492 0.149691 2.815619 3.115470 1.948390 2.112797 3.601440 2.087498 2.493006 3.368677 5.233682 3.373459 3.665741 5.207631 4.817439 2.982717 2.812870 3.984184 3.362545 3.655914 2.285193 2.468145 2.025684 2.105695 3.009956 2.482865 0.854172 1.108146 2.321047 0.246687 0.921203 1.604895 3.907920 3.852668 1.055970 -0.106404 -0.327459 -0.106675 1.597155 1.368702 2.972302 -0.325369 -1.284068 0.708093 2.120373 0.193187 -1.654511 -2.101845 -1.909278 -0.284758 1.159563 1.355845 0.253913 -1.549977 -1.119786 -0.375030 1.407787 0.295621 -1.460097 -1.178355 1.283302 1.166177 0.922718 0.588476 1.395883 0.148238 -0.908977 -1.642065 0.381304 0.941396 1.095146 0.803328 0.655515 0.976815 2.076801 -0.070314 0.275725 -0.405506 0.719476 1.973945 2.821241 2.816530 1.234617 1.177095 0.837370 -1.147859 -2.506951 -0.607282 1.154383 1.288891 1.580452 0.550322 -1.677539 -1.724429 0.364769 0.936309 3.742604 9.822146 12.039406 10.507583 9.990768 7.335937 8.961830 11.266299 16.288420 17.955487 19.437531 18.130352 16.064296 13.069519 11.616990 11.671822 13.643836 15.419654 13.600372 13.395107 9.758640 5.748059 5.052233 6.202863 5.661651 4.697400 5.907424 4.179028 1.912803 1.191255 -0.242634 0.605700 -0.739383 -0.012641 1.846025 4.195332 6.534107 2.928215 2.101664 1.770424 3.353419 1.950025 3.305585 6.001286 4.725545 4.517566 4.022202 3.634919 2.943423 1.861196 3.160568 3.844919 1.902351 4.154476 5.000724 3.298896 1.886611 1.944626 1.449712 2.784377 0.822985 1.362830 1.702885 4.855519 1.842294 1.103533 1.040090 0.797263 0.829213 0.228518 0.256178 -0.141116 1.106135 1.969120 2.726052 1.600707 0.149986 -2.718157 -0.952175 0.636181 -2.267564 -0.286279 0.990483 -0.222833 -0.027587 1.746412 2.645029 -0.034520 -0.743121 0.647025 3.075301 0.409990 1.664179 2.100025 1.194219 0.792116 -0.574162 -1.096514 -1.607507 -3.921427 -4.322417 -3.702527 -2.455408 -6.408425 -6.944622 -6.656548 -6.578705 -4.528181 -3.934092 -4.087629 -4.987007 -4.172099 -2.829786 -1.223243 0.946440 2.204398 1.035275 0.903639 1.491093 2.316647 -0.078576 -0.645511 0.422279 0.873795 0.366371 0.007266 -0.433916 0.685110 -2.139189 -2.860518 -0.807136 0.597025 0.687998 -0.316468 1.590338 -0.620983 -1.141879 0.587718 4.137310 3.736230 5.202168 4.840601 2.913129 1.671296 3.943756 6.581804 6.595494 6.188061 5.191100 3.244255 4.434818 5.859852 3.606146 4.063563 1.515892 2.441828 1.537450 2.840954 2.128551 0.293288 0.063480 -0.284456 -0.893242 0.387625 0.848189 -0.142459 -0.070268 -0.598033 -1.538861 -1.102917 -0.078683 0.446539 0.274219 -0.624609 -0.837479 -0.036743 -1.142821 -1.333495 -1.251439 -2.736185 -3.590087 -2.648976 -0.759059 -0.484188 -1.037565 -1.089576 -2.163086 -5.463898 -2.883513 -0.661082 -0.637700 -1.428190 -2.378346 -2.051637 -3.232297 -1.385155 -1.797155 -1.591801 -3.788391 -3.299368 -3.146277 -2.560501 -2.767886 -1.733332 -3.919887 -3.933019 -4.108886 -4.546322 -4.301342 -4.024390 -3.070606 -3.236846 -3.768960 -2.942705 -3.823132 -4.363961 -3.307625 -2.673727 -1.648770 -1.583633 -1.656862 -2.982375 -2.773925 -2.310899 -2.951319 -2.571987 -1.247861 -2.098994 -4.099853 -3.008510 -3.091707 -2.750960 -2.872175 -3.437360 -3.320500 -2.495765 -1.945983 -1.821977 -2.131277 -2.986783 -1.647358 -1.819561 -1.545935 -1.708260 -2.627818 -1.295788 -2.637731 -1.275965 0.339208 -2.218737 -1.909383 -1.337205 -1.725276 -1.202534 -2.717278 -2.819088 -2.402374 -2.119973 -1.740650 -2.183098 -2.480508 -1.738087 -1.765430 -3.329578 -2.900285 -1.456562 -2.613841 -1.485006 -0.599108 -2.099106 -2.646406 -0.460016 -2.804233 -4.527550 -2.984167 -2.152078 -3.075650 -3.636094 -3.128049 -4.642045 -6.028114 -6.571171 -3.600164 -3.805855 -3.128187 -3.376180 -4.372786 -4.214322 -5.558332 -7.596978 -3.951784 -2.226727 -3.836306 -4.686163 -2.701085 -2.050343 -5.805180 -5.774646 -3.401207 -3.962832 -3.788264 -3.877169 -4.024186 -5.117717 -5.651661 -5.380147 -3.538038 -2.154741 -5.818630 -6.199774 -5.694586 -6.091983 -3.887008 -4.275175 -2.743036 -5.235769 -5.473262 -5.024620 -5.730288 -5.173925 -3.476549 -3.405254 -2.645592 -1.904496 -4.280557 -5.771735 -5.872079 -3.902113 -1.376330 -1.480761 -2.036842 -4.028852 -4.202715 -2.726406 -2.686286 -1.629717 -3.166019 -2.343779 -1.028885 -1.267338 -2.585961 -1.147110 2.439022 1.799148 0.787971 2.112202 0.962193 1.907502 3.145401 4.676239 4.593320 4.012353 3.065209 3.583302 5.819565 7.306437 7.089369 5.787886 4.413284 3.966126 4.360170 7.235714 9.389481 8.500266 6.318179 5.213773 6.162121 5.060573 6.850680 7.122099 9.762495 7.959230 7.142747 6.749397 6.170172 6.657883 4.747586 6.865693 6.076038 6.952844 4.982820 5.225747 3.877213 3.584946 2.101422 2.363455 3.909189 4.869559 3.349571 2.595420 0.272109 -1.526450 -1.040273 -0.866678 0.123250 0.724372 2.478080 1.375851 -0.827312 -1.455283 -1.839451 -1.757625 -1.870741 -1.428490 0.548212 0.725123 1.169555 -1.011557 -2.081788 -1.367781 -1.507505 -1.231132 -1.657395 -0.884370 -0.805350 -1.175643 -2.182121 -1.582179 -1.579532 -1.527109 -1.667280 -2.278821 -2.711127 -1.853553 -1.278905 0.014037 -1.689770 -2.513380 -2.866896 -3.604574 -3.702056 -1.424709 -1.495268 -0.274689 -2.387903 -2.017544 -3.040567 -2.981513 -2.578433 -3.769125 -2.605483 -0.789760 -0.567371 -0.926411 -2.319692 -1.803679 -5.455059 -5.682694 -3.628011 -2.391249 -1.925348 -2.085209 -0.669763 -2.612695 -3.984619 -4.462660 -1.926616 -3.669798 -4.150319 -2.310164 -1.094303 -1.911186 -3.360378 -4.779543 -4.358325 -6.370353 -5.468406 -4.762705 -4.685740 -3.440747 -2.225486 -3.963561 -4.090534 -4.918843 -5.371057 -7.483442 -6.437149 -3.395955 -2.635758 -1.497203 -3.169707 -4.616476 -4.463032 -4.487345 -3.765366 -2.011042 -3.976412 -3.136054 -2.053199 -1.953565 -1.679081 -0.629200 -2.900546 -2.421230 -2.837973 -2.768742 0.594433 2.434540 2.931806 0.153021 -0.797435 0.723392 0.609360 -0.797199 1.383716 3.000519 5.040148 2.049553 0.978185 1.616845 1.147785 0.026902 0.621236 0.307671 1.695838 3.501726 3.570226 2.783686 1.050731 1.671542 1.313987 0.791705 1.349184 3.757112 5.194565 5.363547 5.910132 3.304290 3.794301 2.666193 3.269605 5.807324 7.271123 7.142930 8.403820 5.793849 5.836737 5.713775 7.919113 7.854386 8.667782 8.147562 7.833325 9.034401 9.464594 11.249875 10.916643 9.727953 7.238114 8.626953 9.085847 12.405399 12.250798 13.107288 9.296562 8.770558 9.011950 12.214458 10.320604 8.824979 9.598683 10.378959 10.823539 12.279664 11.916665 10.136402 8.801641 9.424459 8.468775 9.990600 12.074117 11.591370 10.178760 8.721479 6.403943 6.303655 6.883074 6.864868 7.059908 6.802293 7.298031 7.691978 5.870131 4.279697 5.656775 2.989739 3.989903 2.757856 4.778718 5.590384 4.492202 3.500668 2.082303 0.141702 0.103139 0.342222 0.189578 0.591100 -0.624937 0.538721 -1.488981 1.459166 0.665624 -1.757855 -3.189873 -4.419445 -4.782063 -3.493905 -0.822298 -0.928939 -1.912839 -4.682824 -5.732672 -6.228685 -5.291915 -4.559639 -3.276606 -4.231739 -3.015094 -4.959119 -4.535757 -4.406678 -5.827552 -4.630095 -2.660712 -0.947046 -2.701105 -3.913865 -4.844482 -5.102323 -4.026282 -0.609516 1.379801 -1.637515 -2.806569 -4.617966 -1.950933 -3.277280 -3.176697 -1.333782 0.356917 -0.170416 -1.409544 -2.921485 -3.073726 -4.403272 -1.967840 1.562415 1.621576 0.465588 0.626656 -1.881740 -1.864036 -1.961654 0.225303 -0.300451 -0.877983 -1.252534 1.296428 -0.242756 -1.824221 0.163487 -1.066731 -1.229965 -1.896615 -3.056255 -2.839924 -1.022686 0.140731 -0.005480 -1.131544 -1.233971 -1.772416 -2.623101 -2.958558 -1.712152 0.760552 1.640611 1.428405 0.059807 -1.523589 -1.198999 -1.256326 -0.581382 -0.233766 0.663186 1.523550 1.395076 -0.808204 -0.651723 -0.418826 -0.830081 -1.950103 0.111125 0.057232 0.231403 -1.115884 -2.162934 -2.149584 -3.905083 -2.477055 -1.546094 -0.492191 0.355837 -0.674446 -3.283255 -2.139268 -1.058554 -0.892198 -1.249116 -2.791017 -1.736879 -0.721593 -0.136849 0.909221 -0.112277 -2.838378 -2.969112 -3.164000 -1.334450 0.164290 2.687264 1.087224 0.427301 -1.696214 -1.745777 -3.582416 -2.227099 -1.337654 0.849879 0.670569 0.274277 -2.800569 -2.896216 -1.648441 -2.183331 -3.492180 -3.496211 -3.469402 -1.940927 -0.556386 0.086392 0.374500 -1.057591 -3.354083 -2.764444 -1.294361 -1.936471 -1.583213 -0.217590 1.128895 0.502859 0.020936 -1.882640 -2.907940 -3.912580 -2.232420 -2.317732 1.461073 -0.464453 -1.123985 -2.072409 -0.597338 -3.238149 -3.816532 -2.494926 -2.147198 -2.324648 -1.877407 -0.929362 -2.285697 -1.491961 -1.579942 -3.462661 -3.507216 -4.411995 -1.791232 -0.679254 0.621686 1.479566 0.199960 -2.643869 -3.258644 -3.636967 -3.630206 -0.904951 -0.393290 -0.160467 -1.355218 -1.943728 -3.381855 -3.879698 -4.325498 -3.806277 -3.934532 -1.705837 -0.258161 -1.248155 -1.418942 -3.288315 -4.965692 -5.147923 -3.149446 -0.009496 -0.282400 -1.251990 -2.964974 -2.998326 -4.614428 -3.687511 -2.767307 -1.251601 -0.601109 0.524693 -0.419543 0.018612 0.172757 -0.907747 -1.246640 -1.426809 -2.007231 1.460594 1.958519 0.638745 -0.125301 -1.210520 -2.651814 -2.264396 -0.001383 -1.586692 0.403022 2.570790 4.400342 1.846856 -0.690462 -0.077513 0.839691 -0.336347 0.200474 2.266953 3.629583 0.847079 1.279898 1.054972 1.582566 -0.513909 -1.279344 0.839423 1.905781 3.798039 4.604110 3.425100 2.500398 1.135117 0.457488 3.942608 4.857072 5.053292 5.167717 4.370920 3.719075 3.440984 3.179988 2.489060 1.865421 4.037508 4.860346 5.399290 4.312735 3.621305 1.111034 2.561878 4.009088 5.070112 3.863029 5.389806 3.723104 2.837615 1.529958 2.086995 4.832591 4.058483 5.171499 5.461518 4.236999 3.425174 2.698369 1.305786 2.077514 1.496524 1.693768 4.830449 3.949995 3.528590 1.564201 -0.658245 0.589430 0.852762 0.742999 0.646055 2.163170 2.775687 2.062867 0.598666 1.481751 0.466857 -0.670458 -0.611222 1.099386 1.452603 1.163303 0.773390 -0.306913 0.709861 -1.550138 -2.221721 -1.310144 -2.425678 -3.444708 -1.921035 -0.082258 -0.045411 -2.160755 -2.546422 -3.561414 -2.988126 -2.793166 -3.113688 -1.644040 -1.101498 -1.426248 -0.995869 -2.631358 -2.405676 -3.382583 -3.073884 -3.595922 -1.832156 -1.100715 -1.169221 -1.000862 -1.501680 -3.124637 -4.560971 -4.423220 -2.697874 -0.218782 -0.413676 -0.196008 -3.721443 -4.173592 -4.949754 -5.226430 -4.159126 0.501179 -0.263768 0.212938 -2.277218 -1.557373 -3.577734 -3.322225 -3.157169 -2.410785 -0.935150 -0.083942 0.151027 -0.141823 -0.763814 -1.971510 -3.156582 -1.824213 -1.451237 -0.470448 0.884838 2.192405 1.019810 -1.872080 -1.828788 -0.017616 -2.033993 0.176130 0.549351 2.316841 1.786701 0.840553 0.509599 -0.478484 -0.692127 -0.759885 -0.774284 0.511698 0.585910 0.965207 0.802257 1.381670 -1.470365 -0.709130 -0.635581 0.970566 2.271698 2.247374 1.640940 2.177998 0.462259 -0.760334 -1.207615 2.448838 3.675847 1.405048 1.067497 1.137897 -1.203258 -2.032089 -1.203938 1.646930 1.801936 1.336289 1.027460 0.553667 -0.843535 -0.843668 -2.129917 -0.220922 2.378465 1.413098 0.065612 -0.586067 -0.683839 -1.908027 -2.086844 1.712942 3.017570 0.445990 0.171543 -1.344282 -0.924209 -0.599290 -1.393713 -0.836007 0.867687 0.340595 0.520581 -1.691833 -1.155864 -0.289478 -1.482370 -1.631585 -0.414725 0.049302 -0.137737 0.428533 1.194953 0.047709 -1.845411 -0.853691 1.065079 2.732628 1.284920 2.501302 -0.085797 -1.219948 -0.400011 1.202621 -1.447627 -1.050571 -0.805283 1.287120 0.849646 1.134071 -0.088652 -0.870817 -0.954286 -2.696993 -1.332319 -0.082552 0.123515 1.214324 1.547246 -1.712340 -0.842108 -2.782375 -2.727510 -1.110952 1.590769 1.112647 0.718376 -0.436826 0.452388 -2.823886 -4.093693 -2.062146 1.046719 1.528750 0.022124 -1.250604 -1.944659 -1.723021 -1.833713 -3.118797 -1.862922 -1.483824 -2.732750 -2.745622 -2.542230 -2.893550 -3.999274 -5.282560 -5.475372 -5.012233 -3.888073 -3.621801 -1.282470 -1.691741 -1.584373 -3.956485 -3.278240 