0.00000000000000000255 -0.00000000000000005442 -0.00000000000000002041 
0.00000000000000001710 0.00000000000000000000 -0.00000000000000008503 
0.00000000000000000072 -0.00000000000000021768 -0.00000000000000004422 
-0.00000000000000007105 -0.00000000000000005442 -0.00000000000000004082 
-0.00000000000000007583 -0.00000000000000005442 -0.00000000000000001701 
-0.00000000000000008246 0.00000000000000000000 -0.00000000000000006462 
-0.00000000000000009851 -0.00000000000000010884 -0.00000000000000009183 
-0.00000000000000001720 -0.00000000000000005442 0.00000000000000004422 
-0.00000000000000008391 -0.00000000000000016326 -0.00000000000000001020 
-0.00000000000000008889 -0.00000000000000016326 0.00000000000000003401 
-0.00000000000000003573 0.00000000000000005442 -0.00000000000000000680 
-0.00000000000000002091 -0.00000000000000010884 -0.00000000000000005442 
-0.00000000000000013050 -0.00000000000000010884 -0.00000000000000007483 
-0.00000000000000007206 -0.00000000000000021768 -0.00000000000000006122 
-0.00000000000000010713 -0.00000000000000010884 -0.00000000000000013775 
0.00000000000000010089 0.00000000000000000000 -0.00000000000000004422 
-0.00000000000000004389 0.00000000000000010884 0.00000000000000002211 
0.00000000000000002830 -0.00000000000000021768 -0.00000000000000002211 
-0.00000000000000006995 -0.00000000000000005442 -0.00000000000000015476 
0.00000000000000007280 0.00000000000000005442 -0.00000000000000011734 
0.00000000000000001404 0.00000000000000005442 -0.00000000000000009353 
-0.00000000000000004278 0.00000000000000000000 -0.00000000000000003231 
-0.00000000000000002465 -0.00000000000000010884 -0.00000000000000014455 
-0.00000000000000000510 -0.00000000000000010884 -0.00000000000000003911 
0.00000000000000001415 -0.00000000000000005442 -0.00000000000000003571 
-0.00000000000000002393 0.00000000000000005442 -0.00000000000000004762 
0.00000000000000003129 0.00000000000000000000 -0.00000000000000008503 
0.00000000000000001510 0.00000000000000000000 -0.00000000000000001190 
-0.00000000000000005913 0.00000000000000005442 -0.00000000000000010204 
-0.00000000000000001994 0.00000000000000005442 0.00000000000000001020 
-0.00000000000000003223 0.00000000000000000000 -0.00000000000000004422 
0.00000000000000006761 0.00000000000000010884 -0.00000000000000004932 
0.00000000000000003785 0.00000000000000000000 -0.00000000000000006462 
0.00000000000000005144 -0.00000000000000010884 -0.00000000000000012330 
-0.00000000000000002041 -0.00000000000000005442 -0.00000000000000012330 
0.00000000000000000457 0.00000000000000000000 -0.00000000000000007908 
0.00000000000000000326 0.00000000000000005442 -0.00000000000000014285 
-0.00000000000000013442 0.00000000000000000000 -0.00000000000000008333 
-0.00000000000000007628 -0.00000000000000010884 -0.00000000000000008333 
-0.00000000000000002635 -0.00000000000000005442 -0.00000000000000004422 
-0.00000000000000000537 -0.00000000000000005442 -0.00000000000000004762 
-0.00000000000000007110 0.00000000000000000000 0.00000000000000000170 
-0.00000000000000004275 -0.00000000000000010884 -0.00000000000000008163 
-0.00000000000000006690 0.00000000000000005442 -0.00000000000000001531 
-0.00000000000000000428 0.00000000000000000000 -0.00000000000000003571 
-0.00000000000000006776 0.00000000000000000000 -0.00000000000000009013 
-0.00000000000000002598 0.00000000000000000000 -0.00000000000000016326 
-0.00000000000000001375 0.00000000000000005442 -0.00000000000000009864 
0.00000000000000000063 0.00000000000000005442 -0.00000000000000014115 
0.00000000000000002762 -0.00000000000000016326 -0.00000000000000003231 
-0.00000000000000003390 -0.00000000000000010884 -0.00000000000000006207 
-0.00000000000000007683 0.00000000000000000000 -0.00000000000000005357 
0.00000000000000004747 0.00000000000000000000 -0.00000000000000004889 
-0.00000000000000000588 -0.00000000000000010884 -0.00000000000000004932 
-0.00000000000000008130 0.00000000000000000000 -0.00000000000000005952 
-0.00000000000000004368 -0.00000000000000005442 -0.00000000000000003869 
0.00000000000000001832 -0.00000000000000005442 -0.00000000000000005059 
-0.00000000000000007670 0.00000000000000005442 -0.00000000000000005527 
-0.00000000000000000974 -0.00000000000000005442 -0.00000000000000011564 
0.00000000000000002785 0.00000000000000016326 -0.00000000000000009183 
-0.00000000000000003887 0.00000000000000000000 -0.00000000000000005400 
-0.00000000000000007949 0.00000000000000005442 -0.00000000000000008078 
-0.00000000000000003656 0.00000000000000005442 -0.00000000000000004039 
-0.00000000000000000645 -0.00000000000000016326 0.00000000000000005314 
-0.00000000000000008019 0.00000000000000010884 0.00000000000000001275 
0.00000000000000006333 0.00000000000000000000 -0.00000000000000007206 
-0.00000000000000005655 -0.00000000000000010884 0.00000000000000000085 
-0.00000000000000011677 -0.00000000000000010884 -0.00000000000000013286 
0.00000000000000007410 0.00000000000000000000 -0.00000000000000003401 
0.00000000000000001123 0.00000000000000000000 -0.00000000000000009991 
-0.00000000000000005826 0.00000000000000000000 -0.00000000000000007929 
-0.00000000000000009726 0.00000000000000000000 0.00000000000000003316 
-0.00000000000000008892 0.00000000000000005442 -0.00000000000000005400 
-0.00000000000000002035 -0.00000000000000005442 -0.00000000000000006845 
-0.00000000000000016761 0.00000000000000000000 0.00000000000000000340 
-0.00000000000000012896 -0.00000000000000005442 -0.00000000000000006016 
-0.00000000000000004405 0.00000000000000005442 -0.00000000000000009056 
-0.00000000000000000774 0.00000000000000005442 -0.00000000000000009906 
-0.00000000000000000941 -0.00000000000000010884 -0.00000000000000003423 
0.00000000000000009598 0.00000000000000000000 -0.00000000000000009439 
-0.00000000000000000051 0.00000000000000010884 -0.00000000000000004539 
0.00000000000000005262 -0.00000000000000010884 -0.00000000000000006080 
-0.00000000000000005724 0.00000000000000005442 -0.00000000000000013318 
-0.00000000000000001841 -0.00000000000000005442 -0.00000000000000007621 
0.00000000000000004938 0.00000000000000010884 -0.00000000000000008928 
-0.00000000000000001567 0.00000000000000005442 -0.00000000000000004432 
0.00000000000000000488 -0.00000000000000005442 -0.00000000000000005176 
0.00000000000000001597 -0.00000000000000005442 -0.00000000000000007993 
0.00000000000000003999 0.00000000000000000000 0.00000000000000002551 
-0.00000000000000005441 -0.00000000000000010884 -0.00000000000000009141 
-0.00000000000000008045 -0.00000000000000005442 -0.00000000000000007961 
-0.00000000000000005939 0.00000000000000016326 -0.00000000000000002827 
0.00000000000000001445 0.00000000000000010884 -0.00000000000000009290 
0.00000000000000001829 0.00000000000000000000 0.00000000000000003444 
-0.00000000000000002859 0.00000000000000000000 0.00000000000000002546 
0.00000000000000001832 -0.00000000000000010884 -0.00000000000000005272 
-0.00000000000000001913 0.00000000000000010884 0.00000000000000004092 
0.00000000000000005919 0.00000000000000000000 -0.00000000000000007281 
0.00000000000000000190 0.00000000000000010884 -0.00000000000000009045 
-0.00000000000000004830 -0.00000000000000010884 -0.00000000000000014668 
0.00000000000000000348 0.00000000000000005442 -0.00000000000000009497 
0.00000000000000007004 -0.00000000000000005442 -0.00000000000000007105 
-0.00000000000000001519 0.00000000000000005442 0.00000000000000000393 
0.00000000000000001128 0.00000000000000000000 -0.00000000000000014296 
-0.00000000000000004185 0.00000000002093749650 -0.00000000000000010358 
0.00000000000000003942 0.00000001685637633413 -0.00000000000000006122 
-0.00000000000000005299 0.00000033634540484856 -0.00000000000000005113 
-0.00000000000000004131 0.00000233428472430248 -0.00000000000000006407 
0.00000000000000006291 0.00000969893327371810 -0.00000000000000011753 
0.00000000000000005312 0.00002972148175435639 -0.00000000000000011317 
0.00000000000000000850 0.00007443049110404194 -0.00000000000000009893 
0.00000000000000011161 0.00016144253056437320 -0.00000000000000008171 
0.00000000000000005187 0.00031447024276989443 -0.00000000000000003967 
0.00000000000000007961 0.00056347701317892827 0.00000000000000001594 
-0.00000000000000003784 0.00094449930095475592 -0.00000000000000004448 
-0.00000000000000001860 0.00149917746657555356 -0.00000000000000005546 
0.00000000000000004923 0.00227404675185011390 -0.00000000000000006279 
0.00000000000000001758 0.00331964440246165738 -0.00000000000000006994 
-0.00000000000000003891 0.00468948869844447360 0.00000000000000002947 
-0.00000000000000008738 0.00643898236037200502 -0.00000000000000001844 
0.00000000000000008373 0.00862428756110635714 -0.00000000000000007228 
0.00000000000000001854 0.01130121344454044184 -0.00000000000000005742 
-0.00000000000000005455 0.01452415025944753593 -0.00000000000000010135 
0.00000000000000001224 0.01834507740721057212 -0.00000000000000008750 
-0.00000000000000005026 0.02281266618787175515 -0.00000000000000014665 
-0.00000000000000000704 0.02797149201411082420 -0.00000000000000008548 
-0.00000000000000000683 0.03386136547076884495 0.00000000000000000990 
0.00000000000000004670 0.04051678689075510070 -0.00000000000000005880 
-0.00000000000000001835 0.04796652511420659848 0.00000000000000002552 
0.00000000000000018115 0.05623331778211731330 -0.00000000000000000765 
0.00000000000000000485 0.06533368785179390070 -0.00000000000000003062 
-0.00000000000000006420 0.07527786895847846105 -0.00000000000000009219 
0.00000000000000005466 0.08606983072599845574 -0.00000000000000014091 
0.00000000000000003135 0.09770739408601447629 -0.00000000000000019751 
0.00000000000000005553 0.11018242603633127130 -0.00000000000000010743 
0.00000000000000004469 0.12348110299144744728 -0.00000000000000006777 
-0.00000000000000000547 0.13758423189403237719 -0.00000000000000006522 
-0.00000000000000001205 0.15246761850960896534 -0.00000000000000018591 
-0.00000000000000012001 0.16810247276875023292 -0.00000000000000003506 
-0.00000000000000012057 0.18445584160714381672 -0.00000000000000013796 
0.00000000000000002338 0.20149106044492773315 -0.00000000000000018334 
-0.00000000000000001172 0.21916821520892929009 -0.00000000000000018787 
0.00000000000000010706 0.23744460760599475635 -0.00000000000000010470 
-0.00000000000000004991 0.25627521717828799508 -0.00000000000000011396 
-0.00000000000000002946 0.27561315449229817354 -0.00000000000000006869 
-0.00000000000000002141 0.29541010061620148752 -0.00000000000000007546 
-0.00000000000000006356 0.31561672881251023881 -0.00000000000000007789 
-0.00000000000000003282 0.33618310510488630394 -0.00000000000000018894 
-0.00000000000000002760 0.35705906506258572319 -0.00000000000000009252 
0.00000000000000001711 0.37819456477836543851 -0.00000000000000007283 
-0.00000000000000006044 0.39954000459294553016 -0.00000000000000006246 
0.00000000000000003233 0.42104652463993463840 -0.00000000000000007481 
0.00000000000000003255 0.44266627174946837631 -0.00000000000000010966 
-0.00000000000000004541 0.46435263765772000211 -0.00000000000000012907 
-0.00000000000000006033 0.48606046882476389159 -0.00000000000000011864 
-0.00000000000000006928 0.50774624846751192919 -0.00000000000000011928 
-0.00000000000000006680 0.52936825167055423513 -0.00000000000000013967 
0.00000000000000002690 0.55088667464901353021 -0.00000000000000009564 
-0.00000000000000007784 0.57226373940743147095 -0.00000000000000001804 
0.00000000000000001473 0.59346377517088721998 -0.00000000000000005009 
0.00000000000000002891 0.61445327806254035341 -0.00000000000000003263 
0.00000000000000008203 0.63520095056923531196 -0.00000000000000009349 
-0.00000000000000010178 0.65567772237710220118 -0.00000000000000005719 
-0.00000000000000004504 0.67585675417558954692 -0.00000000000000007546 
0.00000000000000001726 0.69571342602358043905 -0.00000000000000008163 
-0.00000000000000003520 0.71522530464108091675 -0.00000000000000002507 
-0.00000000000000002865 0.73437193447715709560 -0.00000000000000002290 
0.00000000000000001999 0.75313408542068638329 -0.00000000000000006259 
-0.00000000000000003231 0.77149252334989038005 -0.00000000000000007168 
0.00000000000000003268 0.78942664555694952444 -0.00000000000000008738 
-0.00000000000000017698 0.80691322932775899623 -0.00000000000000011292 
0.00000000000000004979 0.82392543950143504183 -0.00000000000000015928 
-0.00000000000000012231 0.84043216684624799662 -0.00000000000000002806 
0.00000000000000000783 0.85639771728100810844 -0.00000000000000014539 
0.00000000000000000094 0.87178183714112766900 -0.00000000000000007956 
0.00000000000000003452 0.88654003768315792211 -0.00000000000000010803 
0.00000000000000002435 0.90062416954581314688 -0.00000000000000004641 
0.00000000000000000651 0.91398319234465674743 -0.00000000000000002472 
-0.00000000000000012501 0.92656408394559319763 -0.00000000000000001160 
-0.00000000000000012961 0.93831283667259857140 -0.00000000000000000233 
-0.00000000000000000498 0.94917549256094113641 -0.00000000000000004232 
-0.00000000000000006658 0.95909917666320854135 -0.00000000000000009144 
-0.00000000000000009049 0.96803315556261759767 0.00000000000000003195 
-0.00000000000000004938 0.97593022817003216574 -0.00000000000000003760 
-0.00000000000000001798 0.98274859072261944171 -0.00000000000000003810 
0.00000000000000003703 0.98845385764236404214 -0.00000000000000004590 
0.00000000000000000914 0.99302093323535212122 0.00000000000000001753 
-0.00000000000000008109 0.99643554700000314117 -0.00000000000000004324 
-0.00000000000000009063 0.99869535393238828558 -0.00000000000000009402 
-0.00000000000000004149 0.99981056454023342628 -0.00000000000000002823 
-0.00000000000000004613 0.99980411302183103128 -0.00000000000000006332 
-0.00000000000000004901 0.99871140082951415096 0.00000000000000002288 
0.00000000000000000957 0.99657967029589811236 -0.00000000000000001739 
-0.00000000000000000206 0.99346707207567264142 -0.00000000000000004311 
-0.00000000000000010704 0.98944149315017970725 0.00000000000000000099 
-0.00000000000000008143 0.98457921085805288897 -0.00000000000000002633 
-0.00000000000000008112 0.97896343424779141973 -0.00000000000000007711 
0.00000000000000006253 0.97268278806446573093 -0.00000000000000008184 
-0.00000000000000003462 0.96582978768705107786 -0.00000000000000010917 
0.00000000000000002702 0.95849934592022056901 -0.00000000000000002570 
0.00000000000000002955 0.95078734514421858748 -0.00000000000000006098 
0.00000000000000003935 0.94278930123836590660 -0.00000000000000004377 
-0.00000000000000003334 0.93459913911681735676 0.00000000000000002148 
-0.00000000000000004932 0.92630809377107958813 -0.00000000000000016599 
0.00000000000000004895 0.91800374546587582003 -0.00000000000000017090 
-0.00000000000000008493 0.90976919320334115326 -0.00000000000000009391 
-0.00000000000000007621 0.90168236674408031028 -0.00000000000000001048 
-0.00000000000000000935 0.89381547431933616732 -0.00000000000000005920 
0.00000000000000001467 0.88623458063894267056 -0.00000000000000000401 
0.00000000000000006973 0.87899930783861768280 -0.00000000000000002856 
-0.00000000000000011224 0.87216265055669195405 -0.00000000000000006866 
-0.00000000000000006888 0.86577089532255535609 -0.00000000000000003012 
-0.00000000000000002041 0.85986363381587660459 -0.00000000000000004562 
-0.00000000000000004082 0.85447385925873176049 -0.00000000000000001240 
-0.00000000000000001531 0.84962813517764956828 -0.00000000000000008765 
-0.00000000000000008843 0.84534682596919064057 -0.00000000000000001422 
0.00000000000000005272 0.84164437907587452692 -0.00000000000000007812 
-0.00000000000000006462 0.83852964908883631523 -0.00000000000000008202 
-0.00000000000000017346 0.83600625470422973429 0.00000000000000004071 
-0.00000000000000006803 0.83407296014155463126 -0.00000000000000007306 
-0.00000000000000008503 0.83272407335764253578 -0.00000000000000003745 
0.00000000000000005442 0.83194985413802713392 -0.00000000000000002198 
-0.00000000000000012925 0.83173692589963643673 -0.00000000000000006837 
-0.00000000000000010884 0.83206868578036374817 -0.00000000000000000187 
-0.00000000000000004762 0.83292570831030920964 -0.00000000000000005397 
-0.00000000000000005442 0.83428613864719813886 -0.00000000000000010109 
-0.00000000000000016326 0.83612607200786537298 -0.00000000000000011786 
-0.00000000000000002721 0.83841991653390091077 -0.00000000000000003886 
0.00000000000000001361 0.84114073738945938086 -0.00000000000000006923 
-0.00000000000000002721 0.84426058040110529834 0.00000000000000001093 
0.00000000000000000000 0.84775077401287657342 -0.00000000000000006519 
-0.00000000000000005442 0.85158220874487799978 0.00000000000000000583 
0.00000000000000002721 0.85572559371188261501 -0.00000000000000002932 
0.00000000000000001361 0.86015169008134373385 -0.00000000000000000810 
-0.00000000000000002721 0.86483152163016452363 0.00000000000000000417 
-0.00000000000000002721 0.86973656279905087185 -0.00000000000000004917 
-0.00000000000000013605 0.87483890484506399154 -0.00000000000000002645 
0.00000000000000010884 0.88011140085997119353 0.00000000000000000104 
-0.00000000000000005442 0.88552779055711805523 -0.00000000000000002249 
-0.00000000000000002721 0.89106280583575681042 -0.00000000000000006652 
0.00000000000000005442 0.89669225821193743187 -0.00000000000000007922 
-0.00000000000000002721 0.90239310909005332473 -0.00000000000000004600 
-0.00000000000000002721 0.90814348997675720110 -0.00000000000000005368 
-0.00000000000000005442 0.91392239193513624684 -0.00000000000000008601 
0.00000000000000008163 0.91970876319259342591 0.00000000000000007487 
0.00000000000000005442 0.92548026384182557891 -0.00000000000000004339 
-0.00000000000000005442 0.93121199557486644682 -0.00000000000000007103 
-0.00000000000000005442 0.93687540983165229491 -0.00000000000000000432 
-0.00000000000000005442 0.94243750747101251442 -0.00000000000000015242 
0.00000000000000016326 0.94786037869257566690 -0.00000000000000002306 
-0.00000000000000010884 0.95310108751466549037 0.00000000000000005376 
0.00000000000000000000 0.95811187588831325801 0.00000000000000000662 
-0.00000000000000010884 0.96284064471217323256 -0.00000000000000014352 
-0.00000000000000005442 0.96723165961027268711 -0.00000000000000004554 
-0.00000000000000005442 0.97122642599149344722 0.00000000000000000329 
-0.00000000000000005442 0.97476467879631822910 0.00000000000000004800 
-0.00000000000000010884 0.97778543604413514778 0.00000000000000001886 
0.00000000000000005442 0.98022807075360984808 0.00000000000000002315 
0.00000000000000000000 0.98203336942613872473 -0.00000000000000000921 
0.00000000000000000000 0.98314470153181265921 -0.00000000000000005284 
-0.00000000000000005442 0.98350964309161126309 -0.00000000000000009042 
0.00000000000000000000 0.98308197043908862600 -0.00000000000000004917 
-0.00000000000000005442 0.98182367018792837676 -0.00000000000000002588 
-0.00000000000000005442 0.97970671032839218295 0.00000000000000009831 
-0.00000000000000005442 0.97671442427789068041 -0.00000000000000009815 
0.00000000000000005442 0.97284243744333342985 -0.00000000000000010418 
-0.00000000000000005442 0.96809912072358383917 0.00000000000000001641 
-0.00000000000000010884 0.96250559263293855583 -0.00000000000000005066 
-0.00000000000000005442 0.95609531556833626809 -0.00000000000000005763 
0.00000000000000005442 0.94891334553003114927 -0.00000000000000004120 
-0.00000000000000005442 0.94101530099670893659 0.00000000000000003422 
0.00000000000000000000 0.93246611774192245115 0.00000000000000002000 
-0.00000000000000005442 0.92333865378796875500 0.00000000000000001545 
-0.00000000000000005442 0.91371220368115979582 0.00000000000000003071 
-0.00000000000000010884 0.90367097479385527503 0.00000000000000008430 
0.00000000000000000000 0.89330257112842081924 0.00000000000000001358 
0.00000000000000000000 0.88269652264050746382 0.00000000000000003276 
-0.00000000000000010884 0.87194289078746101129 0.00000000000000008288 
0.00000000000000000000 0.86113097409852379371 0.00000000000000001734 
0.00000000000000000000 0.85034813122238461780 0.00000000000000003593 
0.00000000000000010884 0.83967873323089425863 -0.00000000000000001763 
0.00000000000000010884 0.82920325198991473581 -0.00000000000000005619 
-0.00000000000000021768 0.81899748715560161116 0.00000000000000000042 
0.00000000000000010884 0.80913193079612655279 -0.00000000000000009833 
0.00000000000000000000 0.79967126573532132383 -0.00000000000000004190 
0.00000000000000000000 0.79067399141446703670 0.00000000000000004549 
-0.00000000000000010884 0.78219216931291524197 0.00000000000000001980 
0.00000000000000005442 0.77427127869581502395 0.00000000000000009479 
0.00000000000000005442 0.76695017260607845078 0.00000000000000001779 
0.00000000000000005442 0.76026112352772112768 -0.00000000000000001121 
-0.00000000000000005442 0.75422994796198628009 -0.00000000000000002508 
0.00000000000000005442 0.74887619922343362511 0.00000000000000007584 
0.00000000000000021768 0.74421341803226448430 0.00000000000000000422 
0.00000000000000005442 0.74024943090845751748 0.00000000000000001166 
-0.00000000000000005442 0.73698668692448221496 0.00000000000000000940 
-0.00000000000000005442 0.73442262401313029851 0.00000000000000009751 
0.00000000000000016326 0.73255005672655293392 0.00000000000000000300 
0.00000000000000010884 0.73135757807753387638 -0.00000000000000000156 
-0.00000000000000005442 0.73082996884389939130 0.00000000000000008566 
0.00000000000000000000 0.73094860846497022866 -0.00000000000000006842 
-0.00000000000000005442 0.73169188239150662056 0.00000000000000004512 
-0.00000000000000010884 0.73303558145702552018 -0.00000000000000004857 
-0.00000000000000010884 0.73495328951043825683 -0.00000000000000000280 
0.00000000000000010884 0.73741675618174806761 -0.00000000000000000338 
0.00000000000000000000 0.74039625223984606439 -0.00000000000000006557 
0.00000000000000000000 0.74386090554178119216 -0.00000000000000004258 
0.00000000000000005442 0.74777901606493923925 0.00000000000000003330 
0.00000000000000000000 0.75211834895727647243 -0.00000000000000001865 
0.00000000000000016326 0.75684640493678190243 0.00000000000000000248 
-0.00000000000000005442 0.76193066772114426133 -0.00000000000000006501 
-0.00000000000000016326 0.76733882847411671868 -0.00000000000000003886 
0.00000000000000000000 0.77303898751866528816 0.00000000000000003071 
0.00000000000000010884 0.77899983379127535343 -0.00000000000000006527 
0.00000000000000027210 0.78519080269960239704 -0.00000000000000008921 
0.00000000000000000000 0.79158221319989507947 0.00000000000000011597 
0.00000000000000010884 0.79814538503422283178 0.00000000000000002603 
0.00000000000000005442 0.80485273716344030159 -0.00000000000000001904 
0.00000000000000005442 0.81167786850285639222 0.00000000000000000688 
0.00000000000000005442 0.81859561945455427967 0.00000000000000001372 
-0.00000000000000005442 0.82558201218706184221 0.00000000000000009471 
0.00000000000000010884 0.83261370322582128889 -0.00000000000000004793 
0.00000000000000005442 0.83966689969254781900 0.00000000000000001398 
-0.00000000000000005442 0.84671607261101611286 0.00000000000000009232 
0.00000000000000000000 0.85373273932546167586 -0.00000000000000005255 
0.00000000000000010884 0.86068447875636644451 0.00000000000000002890 
0.00000000000000010884 0.86753426410094114374 -0.00000000000000002753 
-0.00000000000000005442 0.87424014183042675352 -0.00000000000000007987 
-0.00000000000000010884 0.88075524800513882440 0.00000000000000005652 
0.00000000000000010884 0.88702812867426839016 -0.00000000000000001157 
0.00000000000000010884 0.89300331699816193343 -0.00000000000000008800 
0.00000000000000005442 0.89862211300289218663 0.00000000000000003933 
0.00000000000000010884 0.90382351042017761156 -0.00000000000000004782 
0.00000000000000000000 0.90854521722957692909 -0.00000000000000010833 
0.00000000000000005442 0.91272472104030000217 0.00000000000000005427 
0.00000000000000005442 0.91630035716788205136 -0.00000000000000004180 
-0.00000000000000005442 0.91921240534475068262 0.00000000000000000986 
0.00000000000000005442 0.92140452094365543623 0.00000000000000009726 
0.00000000000000016326 0.92282564150784462953 0.00000000000000005881 
0.00000000000000000000 0.92343204923099819759 -0.00000000000000000741 
-0.00000000000000005442 0.92318928348177686782 -0.00000000000000001220 
0.00000000000000021768 0.92207371539324667342 0.00000000000000000370 
0.00000000000000000000 0.92007368529635613630 -0.00000000000000006456 
0.00000000000000016326 0.91719016723401458613 -0.00000000000000001365 
0.00000000000000005442 0.91343696866194934447 0.00000000000000010618 
0.00000000000000016326 0.90884050231951019061 0.00000000000000011136 
-0.00000000000000010884 0.90343918481297103007 -0.00000000000000009579 
-0.00000000000000010884 0.89728252561596810732 0.00000000000000003828 
-0.00000000000000005442 0.89042997326048001216 0.00000000000000005980 
0.00000000000000005442 0.88294958426936009932 0.00000000000000005168 
0.00000000000000010884 0.87491657626373320333 0.00000000000000009335 
0.00000000000000000000 0.86641182073360789584 0.00000000000000000234 
0.00000000000000010884 0.85752032399328637080 0.00000000000000007679 
0.00000000000000000000 0.84832973745065565208 0.00000000000000004574 
0.00000000000000005442 0.83892893093184539577 -0.00000000000000005558 
0.00000000000000000000 0.82940665572076466283 0.00000000000000000072 
0.00000000000000000000 0.81985031739671543338 0.00000000000000000093 
0.00000000000000016326 0.81034487260525589480 0.00000000000000004942 
-0.00000000000000010884 0.80097185864200970418 -0.00000000000000004090 
0.00000000000000000000 0.79180856018705614296 -0.00000000000000000848 
0.00000000000000010884 0.78292731368844881157 0.00000000000000012273 
0.00000000000000016326 0.77439494672491349103 0.00000000000000006992 
0.00000000000000000000 0.76627234713291847434 0.00000000000000000005 
0.00000000000000005442 0.75861415470629589564 0.00000000000000002069 
0.00000000000000010884 0.75146856680702467379 -0.00000000000000000467 
0.00000000000000010884 0.74487724820189271657 0.00000000000000002493 
0.00000000000000000000 0.73887533480083400494 -0.00000000000000005500 
0.00000000000000000000 0.73349152066061773514 0.00000000000000004602 
0.00000000000000021768 0.72874821757793617483 0.00000000000000000751 
0.00000000000000010884 0.72466177677885323938 -0.00000000000000003594 
0.00000000000000000000 0.72124276257198072226 0.00000000000000000621 
0.00000000000000000000 0.71849626833043001017 0.00000000000000008420 
0.00000000000000010884 0.71642226576736156574 0.00000000000000009899 
0.00000000000000010884 0.71501597914117498433 -0.00000000000000006705 
0.00000000000000010884 0.71426827674302928450 -0.00000000000000003011 
-0.00000000000000016326 0.71416607275936383470 0.00000000000000004690 
0.00000000000000005442 0.71469273334724825464 0.00000000000000006166 
0.00000000000000010884 0.71582848149581312924 -0.00000000000000007270 
0.00000000000000005442 0.71755079596088044980 -0.00000000000000003445 
0.00000000000000000000 0.71983480024305834810 0.00000000000000010562 
0.00000000000000005442 0.72265363822507788782 -0.00000000000000000517 
0.00000000000000000000 0.72597883368718474362 0.00000000000000004047 
0.00000000000000000000 0.72978063147672467270 -0.00000000000000009258 
0.00000000000000000000 0.73402831861793460533 -0.00000000000000000816 
0.00000000000000010884 0.73869052410974522793 0.00000000000000000629 
0.00000000000000010884 0.74373549657350279674 0.00000000000000004529 
0.00000000000000010884 0.74913135928002572150 -0.00000000000000000766 
-0.00000000000000005442 0.75484634240806358640 -0.00000000000000006911 
-0.00000000000000005442 0.76084899266620131808 0.00000000000000005015 
0.00000000000000000000 0.76710836065003629169 -0.00000000000000000913 
0.00000000000000000000 0.77359416650877610433 -0.00000000000000009707 
0.00000000000000005442 0.78027694466313590738 -0.00000000000000006751 
0.00000000000000010884 0.78712816845243527286 0.00000000000000010633 
0.00000000000000021768 0.79412035569604133567 -0.00000000000000001226 
0.00000000000000010884 0.80122715623563511844 -0.00000000000000002045 
-0.00000000000000005442 0.80842342241097386868 0.00000000000000004189 
0.00000000000000010884 0.81568522955076872005 -0.00000000000000000405 
0.00000000000000000000 0.82298956575777326705 0.00000000000000004010 
0.00000000000000000000 0.83031342988412093487 -0.00000000000000003135 
-0.00000000000000005442 0.83763258662025641410 0.00000000000000002091 
0.00000000000000005442 0.84492029662274326096 -0.00000000000000010488 
0.00000000000000005442 0.85214622504908343892 -0.00000000000000008718 
0.00000000000000016326 0.85927564159544822520 -0.00000000000000013775 
0.00000000000000016326 0.86626896075509696171 -0.00000000000000005554 
0.00000000000000010884 0.87308162659310861731 -0.00000000000000006738 
0.00000000000000005442 0.87966431710929504639 0.00000000000000011301 
0.00000000000000000000 0.88596342544699047128 -0.00000000000000010173 
0.00000000000000005442 0.89192176580364601612 -0.00000000000000000408 
0.00000000000000010884 0.89747944855716887957 0.00000000000000011112 
0.00000000000000010884 0.90257487000956915235 0.00000000000000007196 
0.00000000000000005442 0.90714576585814687970 -0.00000000000000006784 
-0.00000000000000016326 0.91113028296388265392 0.00000000000000001869 
0.00000000000000000000 0.91446803039670354618 0.00000000000000003388 
0.00000000000000000000 0.91710107751138414400 -0.00000000000000001183 
0.00000000000000000000 0.91897487352794204885 -0.00000000000000000876 
-0.00000000000000005442 0.92003906946920921417 -0.00000000000000009044 
0.00000000000000000000 0.92024822915959492153 -0.00000000000000003545 
0.00000000000000010884 0.91956242120334286128 -0.00000000000000000506 
0.00000000000000000000 0.91794768838564877456 -0.00000000000000014178 
0.00000000000000010884 0.91537639476562837615 0.00000000000000007433 
0.00000000000000000000 0.91182745387593722164 0.00000000000000000496 
0.00000000000000000000 0.90728644394978430476 0.00000000000000004947 
0.00000000000000005442 0.90174561801515429327 -0.00000000000000006080 
0.00000000000000000000 0.89520381808861648754 0.00000000000000001129 
0.00000000000000000000 0.88766630363080811783 0.00000000000000000758 
0.00000000000000000000 0.87914450495625751092 -0.00000000000000003006 
0.00000000000000010884 0.86965571248339490484 -0.00000000000000006226 
0.00000000000000000000 0.85922271262449034790 0.00000000000000000219 
0.00000000000000005442 0.84787338080350282965 0.00000000000000000797 
0.00000000000000000000 0.83564024160091376903 -0.00000000000000006251 
0.00000000000000000000 0.82256000540177287572 -0.00000000000000008202 
-0.00000000000000016326 0.80867309020425548471 -0.00000000000000008486 
0.00000000000000005442 0.79402313646370137334 -0.00000000000000003884 
0.00000000000000000000 0.77865652202915947022 -0.00000000000000004819 
-0.00000000000000005442 0.76262188339908409951 -0.00000000000000008242 
0.00000000000000010884 0.74596964869911153162 -0.00000000000000004515 
0.00000000000000000000 0.72875158698302378024 0.00000000000000003477 
0.00000000000000010884 0.71102037769008208379 0.00000000000000006122 
0.00000000000000000000 0.69282920336689035601 -0.00000000000000016913 
-0.00000000000000010884 0.67423136808631911610 -0.00000000000000000995 
0.00000000000000010884 0.65527994337412331927 -0.00000000000000006814 
0.00000000000000016326 0.63602744288818502394 0.00000000000064696327 
0.00000000000000010884 0.61652552658679693476 0.00000000721348026229 
-0.00000000000000005442 0.59682473467077057361 0.00000020716576792870 
-0.00000000000000005442 0.57697425118814149592 0.00000166731981137006 
0.00000000000000005442 0.55702169684776070557 0.00000750843791908741 
0.00000000000000005442 0.53701295029647244661 0.00002420301659442301 
-0.00000000000000005442 0.51699199687077246335 0.00006275379633956699 
0.00000000000000000000 0.49700080363442816767 0.00013960773107100260 
0.00000000000000010884 0.47707921935496594434 0.00027723470832762221 
-0.00000000000000010884 0.45726489795054431342 0.00050435203667546313 
0.00000000000000000000 0.43759324385087067233 0.00085581046364059535 
0.00000000000000000000 0.41809737765793303366 0.00137217941048300832 
0.00000000000000000000 0.39880812046088987000 0.00209908150479212611 
-0.00000000000000005442 0.37975399515122437721 0.00308633195358916802 
0.00000000000000005442 0.36096209772481230305 0.00438693885507658327 
0.00000000000000000000 0.34245606995325877930 0.00605601776332927340 
0.00000000000000010884 0.32425711163291620620 0.00814966889423033962 
0.00000000000000005442 0.30638485332751724810 0.01072385919415953966 
0.00000000000000000000 0.28885683259248418064 0.01383334475165158214 
0.00000000000000005442 0.27168856427846616031 0.01753066219730230538 
0.00000000000000000000 0.25489361736501697786 0.02186521114450416109 
0.00000000000000000000 0.23848369710561395651 0.02688244359670901099 
-0.00000000000000010884 0.22246873134944133987 0.03262317072367759696 
0.00000000000000005442 0.20685695999083478225 0.03912299256271493247 
0.00000000000000016326 0.19165502658289595983 0.04641185205664836999 
0.00000000000000010884 0.17686807123658157548 0.05451371138933937266 
0.00000000000000005442 0.16249982400976731300 0.06344634578900047728 
-0.00000000000000005442 0.14855269807170659591 0.07322124779096066127 
0.00000000000000016326 0.13502788200639675997 0.08384363332672721547 
-0.00000000000000005442 0.12192543069322443750 0.09531253987239929337 
-0.00000000000000005442 0.10924435427450049363 0.10762100618261628837 
0.00000000000000005442 0.09698270478691647933 0.12075632279342288222 
0.00000000000000016326 0.08513766009734367868 0.13470034243890513515 
0.00000000000000000000 0.07370560484265589740 0.14942983973657170127 
0.00000000000000000000 0.06268220812835829936 0.16491690990451751686 
0.00000000000000000000 0.05206249779171089748 0.18112939683393852741 
0.00000000000000005442 0.04184093108181906329 0.19803134151349341407 
-0.00000000000000010884 0.03201146165189418247 0.21558344255245343035 
-0.00000000000000010884 0.02256760279766525934 0.23374352134775713830 
-0.00000000000000005442 0.01350248691088963386 0.25246698526087896219 
0.00000000000000005442 0.00480892114821757956 0.27170728299304341968 
0.00000000000000000000 -0.00352056065653071851 0.29141634715494918462 
0.00000000000000005442 -0.01149364978412436081 0.31154501980642668180 
-0.00000000000000005442 -0.01911821805181430564 0.33204345748212238387 
0.00000000000000000000 -0.02640227677304678167 0.35286151291380446482 
0.00000000000000005442 -0.03335393914702091539 0.37394909130299469613 
0.00000000000000010884 -0.03998138595702387110 0.39525647958605608645 
0.00000000000000000000 -0.04629283444574215645 0.41673464766601653331 
0.00000000000000005442 -0.05229651022720243486 0.43833552106099282764 
0.00000000000000005442 -0.05800062208844943695 0.46001222483894449455 
-0.00000000000000005442 -0.06341333952934345708 0.48171929907435234730 
-0.00000000000000010884 -0.06854277288578851379 0.50341288637664183270 
0.00000000000000000000 -0.07339695588011900529 0.52505089230565782366 
0.00000000000000010884 -0.07798383044212216231 0.54659311970946411474 
0.00000000000000010884 -0.08231123364510721518 0.56800137819764273672 
0.00000000000000000000 -0.08638688660341430070 0.58923957010270522350 
0.00000000000000010884 -0.09021838518064569101 0.61027375438676334518 
0.00000000000000005442 -0.09381319236158718045 0.63107219002389514095 
0.00000000000000005442 -0.09717863214514389780 0.65160536043408034956 
0.00000000000000000000 -0.10032188482054384127 0.67184598056560040913 
0.00000000000000016326 -0.10324998349445431434 0.69176898822252530508 
-0.00000000000000010884 -0.10596981174243333412 0.71135151855346401284 
-0.00000000000000005442 -0.10848810226420572966 0.73057276001105853069 
0.00000000000000005442 -0.11081143642853859277 0.74941332564519158588 
0.00000000000000005442 -0.11294624459992917698 0.76785409131237281066 
0.00000000000000005442 -0.11489880714583713961 0.78587483441231620329 
0.00000000000000016326 -0.11667525602974691823 0.80345294534455458102 
0.00000000000000005442 -0.11828157690187302009 0.82056237551378730100 
-0.00000000000000005442 -0.11972361160579339523 0.83717290655641707353 
0.00000000000000000000 -0.12100706102564641464 0.85324976967057009070 
0.00000000000000000000 -0.12213748820476073853 0.86875360606938112351 
-0.00000000000000005442 -0.12312032167263049776 0.88364073529562936482 
0.00000000000000005442 -0.12396085892301511588 0.89786368398201454877 
0.00000000000000000000 -0.12466426999158181088 0.91137192089212748503 
0.00000000000000000000 -0.12523617409048623528 0.92411274260198661423 
0.00000000000000000000 -0.12568172767661731082 0.93603225633026854169 
0.00000000000000016326 -0.12600486012225231569 0.94707641093265726440 
0.00000000000000005442 -0.12621027200883747077 0.95719203298714072847 
0.00000000000000000000 -0.12630255418860175665 0.96632783416570633417 
-0.00000000000000005442 -0.12628619117194869736 0.97443546344822296046 
0.00000000000000010884 -0.12616556439002624135 0.98147094874063467440 
0.00000000000000010884 -0.12594495531690230727 0.98739656086463389872 
0.00000000000000000000 -0.12562854843906323676 0.99218275639579645020 
0.00000000000000000000 -0.12522043406296837209 0.99580992211468610797 
0.00000000000000000000 -0.12472461095416287336 0.99826975636783410462 
-0.00000000000000010884 -0.12414498880395583025 0.99956620526325212772 
0.00000000000000005442 -0.12348539052194341947 0.99971593022004101581 
0.00000000000000000000 -0.12274955435468760945 0.99874832343914632382 
-0.00000000000000005442 -0.12194113583267096601 0.99670511376659920444 
0.00000000000000010884 -0.12106370954923796612 0.99363962069749289796 
0.00000000000000016326 -0.12012077077662923486 0.98961572170638434365 
0.00000000000000010884 -0.11911432862193030435 0.98470659988195807788 
0.00000000000000010884 -0.11804921061050710485 0.97899333670209998104 
-0.00000000000000005442 -0.11692867801098170977 0.97256341003106971943 
0.00000000000000005442 -0.11575591796235885911 0.96550915106005230637 
0.00000000000000000000 -0.11453404437725474285 0.95792620670134476235 
0.00000000000000016326 -0.11326609873243910498 0.94991204644027116277 
-0.00000000000000005442 -0.11195505075671385864 0.94156454524530475148 
-0.00000000000000005442 -0.11060379902630733395 0.93298066711024940645 
0.00000000000000002721 -0.10921517147801561298 0.92425526733162188808 
0.00000000000000005442 -0.10779192585027635998 0.91548002581570087077 
0.00000000000000005442 -0.10633675006223451687 0.90674251861428201149 
-0.00000000000000002721 -0.10485226254065366236 0.89812543051693760621 
-0.00000000000000002721 -0.10334101250425106744 0.88970590786244296844 
0.00000000000000000000 -0.10180548021471358400 0.88155504773498294391 
0.00000000000000010884 -0.10024807720326152360 0.87373751733079918491 
-0.00000000000000002721 -0.09867114648121352860 0.86631129545940555037 
0.00000000000000008163 -0.09707696274254445923 0.85932752681816726437 
0.00000000000000010884 -0.09546773256594202894 0.85283047878709439260 
0.00000000000000008163 -0.09384559462336342084 0.84685758997087956512 
0.00000000000000002721 -0.09221261990156563726 0.84143959950939306580 
0.00000000000000008163 -0.09057081194255273138 0.83660074623195856969 
0.00000000000000005442 -0.08892210710833887977 0.83235902699541031158 
-0.00000000000000002721 -0.08726837487488763034 0.82872650397676761447 
0.00000000000000000000 -0.08561141815954687040 0.82570965124902073740 
0.00000000000000000000 -0.08395297368577080144 0.82330973161861065179 
-0.00000000000000001361 -0.08229471238839115854 0.82152319541601082076 
0.00000000000000008163 -0.08063823986219928464 0.82034209368119037631 
-0.00000000000000005442 -0.07898509685610063946 0.81975449895248730936 
0.00000000000000001361 -0.07733675981462756477 0.81974492763314876775 
0.00000000000000002721 -0.07569464146814500194 0.82029475866041745569 
0.00000000000000004082 -0.07406009147264215609 0.82138264392645277123 
0.00000000000000002721 -0.07243439709959162420 0.82298490659003042946 
0.00000000000000004082 -0.07081878397597393682 0.82507592406664453932 
0.00000000000000010884 -0.06921441687419084554 0.82762849308793318137 
0.00000000000000002041 -0.06762240055126036986 0.83061417477664978293 
-0.00000000000000005102 -0.06604378063636390239 0.83400361818927248869 
0.00000000000000005442 -0.06447954456553126046 0.83776686123466426181 
0.00000000000000011564 -0.06293062256198499183 0.84187360828457935558 
0.00000000000000003061 -0.06139788866042372728 0.84629348415175309484 
-0.00000000000000011054 -0.05988216177331148055 0.85099626442572684493 
0.00000000000000005357 -0.05838420679705317445 0.85595208242786458008 
0.00000000000000009279 -0.05690473575576460163 0.86113161327792353550 
0.00000000000000003826 -0.05544440898020789460 0.86650623575785690189 
-0.00000000000000005102 -0.05400383631933932532 0.87204817281731128453 
-0.00000000000000004592 -0.05258357838181711846 0.87773061169250155000 
0.00000000000000004422 -0.05118414780474134229 0.88352780470880065700 
0.00000000000000009524 -0.04980601054683215373 0.88941515191043485355 
0.00000000000000000680 -0.04844958720321924234 0.89536926591508270157 
-0.00000000000000003741 -0.04711525433898554327 0.90136795795275526100 
0.00000000000000008843 -0.04580334583860597164 0.90738981091513393196 
-0.00000000000000003741 -0.04451415426842480344 0.91341317693541579370 
-0.00000000000000002041 -0.04324793224934352781 0.91941490333902919918 
-0.00000000000000002721 -0.04200489383692030537 0.92536908293293074212 
-0.00000000000000004082 -0.04078521590613555514 0.93124601158205688733 
0.00000000000000005442 -0.03958903953813064369 0.93701145146389663854 
-0.00000000000000005442 -0.03841647140629888407 0.94262623843563353443 
-0.00000000000000002041 -0.03726758515918428272 0.94804623090924788897 
0.00000000000000000000 -0.03614242279772590660 0.95322257096033269352 
0.00000000000000002041 -0.03504099604448285277 0.95810221247883520235 
-0.00000000000000001361 -0.03396328770256488300 0.96262866314710782145 
0.00000000000000004762 -0.03291038605249375221 0.96674288466347346738 
0.00000000000000006122 -0.03188129925202639464 0.97038429717955310139 
0.00000000000000012925 -0.03087564416669334039 0.97349183805215688814 
-0.00000000000000002041 -0.02989330526561790810 0.97600503071498834196 
-0.00000000000000002721 -0.02893414445887730960 0.97786503320544215789 
0.00000000000000008163 -0.02799800236315670363 0.97901579214806322415 
-0.00000000000000007483 -0.02708469954382524900 0.97940564660061957269 
-0.00000000000000005442 -0.02619403773208419869 0.97898929906400822265 
-0.00000000000000005442 -0.02532580101594990654 0.97772980077878890448 
0.00000000000000001361 -0.02447975700395188525 0.97560029719186025510 
-0.00000000000000014285 -0.02365565796054005382 0.97258538623816948032 
-0.00000000000000012245 -0.02285324191230443322 0.96868201967592315604 
-0.00000000000000005442 -0.02207223372422220317 0.96389993245227789664 
0.00000000000000000000 -0.02131234614525559165 0.95826162220674693248 
-0.00000000000000005442 -0.02057328082272046055 0.95180192475071689895 
-0.00000000000000012245 -0.01985472928495764580 0.94456724505050837504 
-0.00000000000000004082 -0.01915580088836651637 0.93661450954754132958 
0.00000000000000000000 -0.01847593931079012652 0.92800990666257021644 
0.00000000000000013605 -0.01781569138622161180 0.91882747967968692038 
0.00000000000000000000 -0.01717471322856129606 0.90914763114427599167 
-0.00000000000000004082 -0.01655265547261658421 0.89905559139132329438 
0.00000000000000002721 -0.01594916405148091507 0.88863989656018316232 
0.00000000000000000000 -0.01536388094187240635 0.87799091397208839371 
0.00000000000000002721 -0.01479644487760906416 0.86719944541999327559 
-0.00000000000000006803 -0.01424649203146264101 0.85635543200207830949 
-0.00000000000000008163 -0.01371365666569896759 0.84554677778501097229 
0.00000000000000005442 -0.01319757175166099382 0.83485830390635440423 
-0.00000000000000005442 -0.01269786955881494796 0.82437083976106073635 
-0.00000000000000008163 -0.01221418221372206833 0.81416045367036693481 
-0.00000000000000009524 -0.01174614222944386430 0.80429782188119869346 
0.00000000000000000680 -0.01129338300593443062 0.79484773185025558995 
-0.00000000000000001361 -0.01085553930200599572 0.78586871347730524739 
-0.00000000000000008163 -0.01043224767948949631 0.77741279020793530030 
0.00000000000000004762 -0.01002314692024203029 0.76952534066516331546 
0.00000000000000000680 -0.00962787841668038581 0.76224506062976427057 
-0.00000000000000001361 -0.00924608653653864049 0.75560401471059757128 
-0.00000000000000005442 -0.00887741896257337321 0.74962776687155308064 
-0.00000000000000002721 -0.00852152700795369943 0.74433557905805869392 
-0.00000000000000012245 -0.00817806590808601089 0.73974066744518318650 
-0.00000000000000004082 -0.00784669508963543177 0.73585050626795989182 
-0.00000000000000008843 -0.00752707841751574635 0.73266716975437329307 
-0.00000000000000006803 -0.00721888442062199043 0.73018770332909199716 
-0.00000000000000006803 -0.00692178649708506850 0.72840451596271915680 
-0.00000000000000007483 -0.00663546309982724139 0.72730578628268693908 
-0.00000000000000002041 -0.00635959790319896509 0.72687587581748569487 
-0.00000000000000006803 -0.00609387995146894873 0.72709574349894057210 
-0.00000000000000006122 -0.00583800378994235071 0.72794335628416395600 
-0.00000000000000002721 -0.00559166957946435287 0.72939409146897993264 
-0.00000000000000004082 -0.00535458319506947229 0.73142112693988947658 
-0.00000000000000000680 -0.00512645630951833430 0.73399581624607890262 
0.00000000000000004082 -0.00490700646245721336 0.73708804596245958152 
0.00000000000000000680 -0.00469595711592069552 0.74066657335678753871 
-0.00000000000000003401 -0.00449303769688512520 0.74469934286733685536 
-0.00000000000000007483 -0.00429798362757011394 0.74915378034227442239 
-0.00000000000000006122 -0.00411053634415881140 0.75399706438860880642 
-0.00000000000000003401 -0.00393044330460579853 0.75919637452877297701 
-0.00000000000000009524 -0.00375745798617427773 0.76471911616859311600 
-0.00000000000000009524 -0.00359133987333026903 0.77053312264392415099 
-0.00000000000000008163 -0.00343185443660564641 0.77660683483731351995 
-0.00000000000000008163 -0.00327877310301823849 0.78290945904348552276 
-0.00000000000000008163 -0.00313187321862608455 0.78941110391618551922 
-0.00000000000000014285 -0.00299093800376591364 0.79608289745193405729 
-0.00000000000000006122 -0.00285575650151461769 0.80289708506146917344 
-0.00000000000000008163 -0.00272612351988608644 0.80982710984994465964 
-0.00000000000000005442 -0.00260183956826383995 0.81684767361316545919 
-0.00000000000000008163 -0.00248271078854415961 0.82393467651306473432 
-0.00000000000000005442 -0.00236854888144995496 0.83106466900757303140 
-0.00000000000000009524 -0.00225917102845469729 0.83821376738380748428 
-0.00000000000000016326 -0.00215439980973702828 0.84535636632215438446 
-0.00000000000000005442 -0.00205406311856849103 0.85246392054662267768 
-0.00000000000000014625 -0.00195799407251753864 0.85950395929463752065 
-0.00000000000000010544 -0.00186603092183733246 0.86643941822120018603 
-0.00000000000000018367 -0.00177801695538312341 0.87322831759639540916 
-0.00000000000000009524 -0.00169380040439170640 0.87982377782330689620 
-0.00000000000000014285 -0.00161323434443602946 0.88617433904879838735 
-0.00000000000000011564 -0.00153617659585095039 0.89222453750967845032 
-0.00000000000000006803 -0.00146277776215817269 0.89791568452823111723 
-0.00000000000000014285 -0.00139372085480010742 0.90318679261375844902 
-0.00000000000000008503 -0.00132769567200241275 0.90797559529012195068 
-0.00000000000000014285 -0.00126458216001675873 0.91221961178915855761 
-0.00000000000000016666 -0.00120426428419893611 0.91585721369243022760 
-0.00000000000000013945 -0.00114662993603825594 0.91882867390743505620 
-0.00000000000000004422 -0.00109157083983771786 0.92107738723886034560 
-0.00000000000000006803 -0.00103898245923964212 0.92255157275403310013 
-0.00000000000000012585 -0.00098876390378582822 0.92320627416184930514 
-0.00000000000000008163 -0.00094081783568125655 0.92300531344892211560 
-0.00000000000000006122 -0.00089505037692211330 0.92192296759006808760 
-0.00000000000000004422 -0.00085137101693784584 0.91994523862093857680 
-0.00000000000000009183 -0.00080969252088028756 0.91707065990701708280 
-0.00000000000000020067 -0.00076993083869219810 0.91331063227689068817 
-0.00000000000000014625 -0.00073200501506289959 0.90868931783149020642 
-0.00000000000000002041 -0.00069583710038354418 0.90324314071985167818 
-0.00000000000000008843 -0.00066135206279520852 0.89701995619181307262 
-0.00000000000000011564 -0.00062706939794372101 0.89007795433481007308 
-0.00000000000000001531 -0.00059440631677992056 0.88248436506541716451 
-0.00000000000000007653 -0.00056329181737275341 0.87431402772326827222 
-0.00000000000000016836 -0.00053365769257133057 0.86564788319442076414 
-0.00000000000000010204 -0.00050543843814977014 0.85657143977460004081 
-0.00000000000000008163 -0.00047857116292277858 0.84717325664201881263 
-0.00000000000000006122 -0.00045299550085544895 0.83754348133457079406 
-0.00000000000000006462 -0.00042865352518684928 0.82777247036393619695 
-0.00000000000000007143 -0.00040548966457399174 0.81794951528465431601 
-0.00000000000000017517 -0.00038345062127180518 0.80816169031880302764 
-0.00000000000000014115 -0.00036248529134541552 0.79849283210040244985 
-0.00000000000000006462 -0.00034254468691716412 0.78902265728313525361 
-0.00000000000000013435 -0.00032358186044195139 0.77982601964987841026 
-0.00000000000000012755 -0.00030555183100373874 0.77097230494703150594 
-0.00000000000000004762 -0.00028841151261884340 0.76252495889779259297 
-0.00000000000000000340 -0.00027211964453429847 0.75454114167257591017 
-0.00000000000000007313 -0.00025663672349946425 0.74707150045194736787 
-0.00000000000000017176 -0.00024192493799471792 0.74016005054555822351 
-0.00000000000000005272 -0.00022794810439125338 0.73384415476771291953 
-0.00000000000000013265 -0.00021467160501799002 0.72815459035661167508 
-0.00000000000000010204 -0.00020206232811041027 0.72311569260369823464 
-0.00000000000000000255 -0.00019008860961025042 0.71874556447987703045 
-0.00000000000000000340 -0.00017872017678841027 0.71505634185942323899 
-0.00000000000000009779 -0.00016792809365626530 0.71205450440792550371 
-0.00000000000000006718 -0.00015768470813876979 0.70974122278026774424 
-0.00000000000000004252 -0.00014796360096877291 0.70811273343605540820 
-0.00000000000000008333 -0.00013873953627184025 0.70716073309510973921 
-0.00000000000000009013 -0.00012998841380746639 0.70687278560116584281 
-0.00000000000000009353 -0.00012168722282712134 0.70723273471799719125 
-0.00000000000000005442 -0.00011381399751562518 0.70822111713278435019 
-0.00000000000000001531 -0.00010634777397711412 0.70981557067370604219 
-0.00000000000000006718 -0.00009926854873152486 0.71199123345230885818 
-0.00000000000000005867 -0.00009255723868009828 0.71472113030858130944 
-0.00000000000000005697 -0.00008619564250636431 0.71797654356220297345 
-0.00000000000000006718 -0.00008016640347339116 0.72172736565346595761 
0.00000000000000000595 -0.00007445297357991272 0.72594243178960560225 
-0.00000000000000004847 -0.00006903957903956548 0.73058983119580933607 
0.00000000000000005442 -0.00006391118704568313 0.73563719600505272922 
-0.00000000000000010459 -0.00005905347378329470 0.74105196720807553490 
-0.00000000000000004167 -0.00005445279365644162 0.74680163742583594022 
-0.00000000000000007483 -0.00005009614968939889 0.75285397056373193347 
-0.00000000000000016496 -0.00004597116507086873 0.75917719866222443947 
-0.00000000000000015306 -0.00004206605580416294 0.76574019647493463125 
-0.00000000000000009779 -0.00003836960442861742 0.77251263448567075720 
-0.00000000000000010246 -0.00003487113477873235 0.77946511122315542686 
-0.00000000000000016709 -0.00003156048774983886 0.78656926584937070235 
-0.00000000000000016794 -0.00002842799803207275 0.79379787208742424998 
-0.00000000000000006505 -0.00002546447178697569 0.80112491461977752838 
-0.00000000000000006760 -0.00002266116523068263 0.80852564192337894600 
-0.00000000000000006930 -0.00002000976409509412 0.81597644005715541660 
-0.00000000000000015943 -0.00001750236393505504 0.82345415999084248249 
-0.00000000000000010544 -0.00001513145125467694 0.83093496444693049074 
-0.00000000000000011139 -0.00001288988542086676 0.83839303611710946917 
0.00000000000000006590 -0.00001077088133951931 0.84579939540349158289 
-0.00000000000000006718 -0.00000876799286290434 0.85312097342058279548 
-0.00000000000000012819 -0.00000687509690467455 0.86032001204326935540 
-0.00000000000000001297 -0.00000508637823616069 0.86735381101192199349 
-0.00000000000000006718 -0.00000339631493679148 0.87417480730579055770 
-0.00000000000000009247 -0.00000179966447595946 0.88073095001688961325 
-0.00000000000000015561 -0.00000029145040154843 0.88696632150399945527 
-0.00000000000000004167 0.00000000000000013118 0.89282195008571640926 
-0.00000000000000010948 0.00000000000000006559 0.89823675891672316585 
-0.00000000000000004677 -0.00000000000000002721 0.90314859841635519722 
-0.00000000000000004762 -0.00000000000000001520 0.90749531448646902909 
-0.00000000000000020726 0.00000000000000012410 0.91121581086569825025 
0.00000000000000001297 0.00000000000000005465 0.91425107065351152169 
-0.00000000000000012138 0.00000000000000010400 0.91654510881947759415 
-0.00000000000000012223 0.00000000000000006657 0.91804583405519057937 
-0.00000000000000003529 0.00000000000000004959 0.91870580440498372798 
-0.00000000000000004698 0.00000000000000001652 0.91848286658920019754 
-0.00000000000000004475 0.00000000000000000199 0.91734067373731065231 
-0.00000000000000002083 -0.00000000000000005205 0.91524908035221874680 
-0.00000000000000007270 0.00000000000000002924 0.91218441674059180801 
-0.00000000000000008801 -0.00000000000000004527 0.90812964789985384240 
-0.00000000000000016230 -0.00000000000000004547 0.90307442399905180075 
-0.00000000000000017293 -0.00000000000000002733 0.89701503118621694899 
-0.00000000000000010236 0.00000000000000014141 0.88995425256177351780 
-0.00000000000000012106 -0.00000000000000007041 0.88190114984005885113 
-0.00000000000000009120 0.00000000000000008801 0.87287077654183042874 
-0.00000000000000007217 0.00000000000000003037 0.86288383357943099217 
-0.00000000000000009067 0.00000000000000010203 0.85196627786860723575 
-0.00000000000000015369 0.00000000000000001822 0.84014889417739724298 
-0.00000000000000009513 0.00000000000000014279 0.82746683984836821857 
-0.00000000000000011182 0.00000000000000000511 0.81395917134578710250 
-0.00000000000000011596 0.00000000000000004548 0.79966836081875070086 
0.00000000000000004602 0.00000000000000013175 0.78463981006461214207 
-0.00000000000000014827 0.00000000000000002013 0.76892136844916736393 
-0.00000000000000008684 -0.00000000000000006152 0.75256286051171950024 
-0.00000000000000009545 -0.00000000000000001946 0.73561562817100856204 
-0.00000000000000010746 0.00000000000000011703 0.71813209166536895456 
-0.00000000000000007329 0.00000000000000020912 0.70016533261745539374 
-0.00000000000000012154 0.00000000000000000717 0.68176870191796845599 
-0.00000000000000000436 0.00000000000000018733 0.66299545447911978346 
-0.00000000000000011118 0.00000000000000013288 0.64389841232030642360 
0.00000000079581124241 0.00000000000000019698 0.62452965691715656149 
0.00000006783503703313 0.00000000000000000148 0.60494025127092809768 
0.00000079354332789197 0.00000000000000009686 0.58517999173730306239 
0.00000432183450711106 0.00000000000000003705 0.56529718929012340300 
0.00001563218221820202 0.00000000000000010215 0.54533847958412895451 
0.00004378847683629328 0.00000000000000005702 0.52534866091833254398 
0.00010297087485795192 0.00000000000000014129 0.50537055898502847295 
0.00021319336253671335 0.00000000000000017589 0.48544491711505022291 
0.00040066966310969409 0.00000000000000010413 0.46561031059417362643 
0.00069783110257242483 0.00000000000000004704 0.44590308352481700105 
0.00114302666181766393 -0.00000000000000001596 0.42635730663782950289 
0.00177995130151231413 0.00000000000000011539 0.40700475441764688567 
0.00265685660858679595 0.00000000000000017726 0.38787547289060253508 
0.00382560011958900511 0.00000000000000001402 0.36899687484456522579 
0.00534058806548237067 0.00000000000000011641 0.35039299705761056680 
0.00725766209009630781 0.00000000000000015857 0.33208653299862106456 
0.00963297473206559292 0.00000000000000018013 0.31409799763299750541 
0.01252189188151481281 0.00000000000000021388 0.29644578643691948949 
0.01597795357764896645 0.00000000000000013136 0.27914624278061911378 
0.02005191779135357538 0.00000000000000011172 0.26221373234835793076 
0.02479090550287807795 0.00000000000000007984 0.24566072334315205983 
0.03023765960801385114 0.00000000000000008089 0.22949787130771992505 
0.03642992506360377691 0.00000000000000007624 0.21373410747828328060 
0.04339995325751120486 0.00000000000000001823 0.19837672967356795306 
0.05117412986270190173 0.00000000000000010353 0.18343149480660761452 
0.05977272238549970890 -0.00000000000000005442 0.16890271219090513544 
0.06920974120124899487 0.00000000000000006569 0.15479333689443031119 
0.07949290603165092006 0.00000000000000013085 0.14110506247424575710 
0.09062370849552785212 0.00000000000000014264 0.12783841250075431151 
0.10259756049479866469 0.00000000000000002254 0.11499283035331157865 
0.11540401771638057749 0.00000000000000015082 0.10256676683792810556 
0.12902706737744390475 0.00000000000000012011 0.09055776524281068662 
0.14344546945846087249 0.00000000000000017766 0.07896254350843065484 
0.15863314100314121480 0.00000000000000007321 0.06777707324556768442 
0.17455957356899795552 0.00000000000000007353 0.05699665538737199583 
0.19119027454473019878 0.00000000000000015813 0.04661599230991032849 
0.20848722377389572458 0.00000000000000007715 0.03662925630000046090 
0.22640933770670590430 0.00000000000000015844 0.02703015428948369811 
0.24491293411623776821 0.00000000000000022092 0.01781198881155708971 
0.26395219123949203999 0.00000000000000001936 0.00896771516752770288 
0.28347959601913230721 0.00000000000000000328 0.00048999482153914520 
0.30344637691375209165 0.00000000000000000331 -0.00762875493339608066 
0.32380291750166195763 0.00000000000000000330 -0.01539631497215001449 
0.34449914781692175803 0.00000000000000012011 -0.02282062191154313885 
0.36548491102048480395 0.00000000000000003198 -0.02990972915952657893 
0.38671030361992214663 -0.00000000000000003525 -0.03667177132319399124 
0.40812598800593818948 0.00000000000000016826 -0.04311493184769006615 
0.42968347657206834578 0.00000000000000001084 -0.04924741374869971711 
0.45133538712593257447 0.00000000000000016999 -0.05507741329387971785 
0.47303566968763871570 -0.00000000000000004645 -0.06061309648318057713 
0.49473980510548060119 0.00000000000000012011 -0.06586257817429301553 
0.51640497620369996135 0.00000000000000006413 -0.07083390369731618064 
0.53799021241483424571 0.00000000000000002992 -0.07553503280197942926 
0.55945650904349386590 0.00000000000000000754 -0.07997382578124119512 
0.58076692246278338594 -0.00000000000000008760 -0.08415803161667530230 
0.60188664266266178604 0.00000000000000005823 -0.08809527799360794553 
0.62278304465488687480 0.00000000000000010898 -0.09179306303735573769 
0.64342572029536271305 0.00000000000000009674 -0.09525874862602737303 
0.66378649211510321049 0.00000000000000002017 -0.09849955514007399660 
0.68383941075889931316 0.00000000000000003584 -0.10152255751399116845 
0.70356073744724134666 0.00000000000000010529 -0.10433468246122902523 
0.72292887894014945527 0.00000000000000004425 -0.10694270674932128407 
0.74192399461731717292 0.00000000000000010339 -0.10935325640846975392 
0.76052701484829265954 0.00000000000000008371 -0.11157280676320222024 
0.77871831980031580578 0.00000000000000010433 -0.11360768318322732318 
0.79647639678413251207 0.00000000000000006868 -0.11546406245616064323 
0.81377667963577970944 0.00000000000000000422 -0.11714797469134118069 
0.83059068331900098858 0.00000000000000014124 -0.11866530567046493228 
0.84688548251756690100 0.00000000000000006923 -0.12002179956717114184 
0.86262353853116180424 0.00000000000000006225 -0.12122306196399780520 
0.87776284953484806639 0.00000000000000010702 -0.12227456310125840722 
0.89225738142150079479 0.00000000000000011032 -0.12318164129832587239 
0.90605772702162234999 0.00000000000000012878 -0.12394979463279848231 
0.91911193813281866216 0.00000000000000000639 -0.12458492427732761887 
0.93136647566155161826 0.00000000000000005696 -0.12509081261867882606 
0.94276722687384217902 0.00000000000000012885 -0.12547231034906336511 
0.95326054421986605725 0.00000000000000012205 -0.12573415402373994132 
0.96279428328640426216 0.00000000000000015160 -0.12588096958205552411 
0.97131902627816069096 0.00000000000000007272 -0.12591727577088904222 
0.97878979847075608944 0.00000000000000010301 -0.12584748744992002578 
0.98516809128838545018 0.00000000000000013506 -0.12567591876180608801 
0.99042384492700075160 -0.00000000000000000774 -0.12540678615374450944 
0.99453715828884958761 0.00000000000000004090 -0.12504421124002171317 
0.99749959474607730048 -0.00000000000000000132 -0.12459222349801714336 
0.99931502507491343223 0.00000000000000021055 -0.12405476279274063600 
1.00000000000000000000 0.00000000000000003635 -0.12343568172734446786 
0.99958367917739376907 0.00000000000000001854 -0.12273874781917537558 
0.99810736514599096569 0.00000000000000002024 -0.12196764550283029083 
0.99562370299466240731 0.00000000000000005291 -0.12112597796335540512 
0.99219561176170301131 0.00000000000000000798 -0.12021698066494908297 
0.98789501389459255520 0.00000000000000001014 -0.11924328313300332216 
0.98280142599954367633 0.00000000000000005561 -0.11820943582887574741 
0.97700046879243407361 0.00000000000000009443 -0.11711872789724392385 
0.97058234752890537589 0.00000000000000005132 -0.11597437426742704392 
0.96364034691565902957 0.00000000000000010802 -0.11477951659196712619 
0.95626937707934323019 0.00000000000000016060 -0.11353722406862018501 
0.94856459994270680980 0.00000000000000010177 -0.11225049415571966560 
0.94062015856704794814 0.00000000000000006944 -0.11092225319105965264 
0.93252802581647331603 -0.00000000000000008503 -0.10955535692455194152 
0.92437698316865524184 0.00000000000000016061 -0.10815259097488891249 
0.91625173567521522866 0.00000000000000008710 -0.10671667122035780051 
0.90823216496339964632 0.00000000000000006113 -0.10525024413376275756 
0.90039271874468318480 0.00000000000000009728 -0.10375588707117716636 
0.89280193251346429140 0.00000000000000007580 -0.10223610852392688020 
0.88552207692721207621 0.00000000000000012444 -0.10069334834285272040 
0.87860892269931412102 0.00000000000000004507 -0.09912997794348663017 
0.87211161364585021438 -0.00000000000000003621 -0.09754830050033336253 
0.86607263774628084896 0.00000000000000014603 -0.09595055113797341939 
0.86052788564614624001 0.00000000000000004305 -0.09433889712619826506 
0.85550678589147366448 0.00000000000000007370 -0.09271543808587791313 
0.85103250628783499998 0.00000000000000009501 -0.09108220621171532472 
0.84712221107491292305 0.00000000000000014138 -0.08944116651751893299 
0.84378736405784837693 0.00000000000000016270 -0.08779421710906763765 
0.84103406840237537878 0.00000000000000005909 -0.08614318948910996976 
0.83886343444939448499 0.00000000000000014892 -0.08448984889849768531 
0.83727196760835309597 0.00000000000000014268 -0.08283589469693206087 
0.83625196912396215776 0.00000000000000011564 -0.08118296078628171875 
0.83579194325775574281 0.00000000000000011059 -0.07953261607892846141 
0.83587700516856910937 0.00000000000000004365 -0.07788636501311869964 
0.83648928450123360978 0.00000000000000006473 -0.07624564811682778276 
0.83760832039043864317 0.00000000000000001323 -0.07461184262120169886 
0.83921144424907234693 0.00000000000000005887 -0.07298626312421979678 
0.84127414733175487349 0.00000000000000012175 -0.07137016230481818546 
0.84377043064094037206 0.00000000000000015510 -0.06976473168734370622 
0.84667313527253795780 0.00000000000000011753 -0.06817110245585397688 
0.84995425177950223450 0.00000000000000012001 -0.06659034631745390509 
0.85358520756524247641 0.00000000000000016078 -0.06502347641356312491 
0.85753713170488177209 0.00000000000000012163 -0.06347144827772729925 
0.86178109693284543624 0.00000000000000012913 -0.06193516083834432751 
0.86628833883202149835 0.00000000000000008950 -0.06041545746444737519 
0.87103045251517607905 0.00000000000000007916 -0.05891312705248834269 
0.87597956730612358545 0.00000000000000007596 -0.05742890515188957962 
0.88110850010910646279 0.00000000000000005750 -0.05596347512698281873 
0.88639088830290568843 0.00000000000000003277 -0.05451746935281639311 
0.89180130311424166134 0.00000000000000022497 -0.05309147044221329548 
0.89731534451599337388 0.00000000000000011919 -0.05168601250136922037 
0.90290971876176462363 0.00000000000000008644 -0.05030158241121567009 
0.90856229250514064510 -0.00000000000000000693 -0.04893862113172291195 
0.91425196800202301883 -0.00000000000000004877 -0.04759752502628956938 
0.91995801196910909070 0.00000000000000017983 -0.04627864720334957244 
0.92565890405551165543 0.00000000000000014273 -0.04498229887233150953 
0.93133104677525013759 0.00000000000000007544 -0.04370875071112025750 
0.93694758503832287211 0.00000000000000002033 -0.04245823424220304676 
0.94247748100482453548 0.00000000000000016196 -0.04123094321472303703 
0.94788491603686619857 0.00000000000000008149 -0.04002703498971891399 
0.95312903974986296074 -0.00000000000000002912 -0.03884663192589234149 
0.95816405136571791701 0.00000000000000012092 -0.03768982276332133452 
0.96293957659232287671 0.00000000000000002285 -0.03655666400261357862 
0.96740129080200987222 0.00000000000000002037 -0.03544718127709506339 
0.97149173376163211469 0.00000000000000012827 -0.03436137071570698892 
0.97515126055288192664 -0.00000000000000003845 -0.03330060859787759703 
0.97831907604698520320 0.00000000000000006038 -0.03226334941799714057 
0.98093430516640744976 0.00000000000000012763 -0.03124951305159626852 
0.98293705807263898055 -0.00000000000000000474 -0.03025899496957103196 
0.98426951757446057290 0.00000000000000000252 -0.02929166753410064952 
0.98487735597927295039 0.00000000000000002583 -0.02834738127316247663 
0.98471162345598406418 0.00000000000000012876 -0.02742596613212457471 
0.98373078972103689122 0.00000000000000002552 -0.02652723270101046971 
0.98190263418318091126 0.00000000000000009485 -0.02565097341615181492 
0.97920579746988101189 0.00000000000000017859 -0.02479696373505372448 
0.97563089587706752770 0.00000000000000014834 -0.02396496328342149346 
0.97118116360524808783 0.00000000000000004561 -0.02315471697339799989 
0.96587263138656132000 0.00000000000000003331 -0.02236595609218437058 
0.95973387886698202642 0.00000000000000005035 -0.02159839936031416469 
0.95280541556194964237 0.00000000000000013959 -0.02085175395896394709 
0.94513875427326932144 0.00000000000000012225 -0.02012571652577934897 
0.93679524384410950422 0.00000000000000001691 -0.01941940111524244339 
0.92784472683914176461 0.00000000000000006511 -0.01873225570552236943 
0.91836408356335808012 0.00000000000000006272 -0.01806483104674578774 
0.90843571784312326933 -0.00000000000000001726 -0.01741678679837478996 
0.89814603299088380250 0.00000000000000002833 -0.01678777678385279595 
0.88758393895578724386 0.00000000000000007447 -0.01617744978161822847 
0.87683942425571215207 0.00000000000000001489 -0.01558545028403744530 
0.86600221919168063334 0.00000000000000008864 -0.01501141922440263690 
0.85516057026224734372 0.00000000000000011033 -0.01445499467221013183 
0.84440013974507455163 0.00000000000000005745 -0.01391581249699646271 
0.83380303915881404109 0.00000000000000005257 -0.01339350700107266694 
0.82344700078085153461 -0.00000000000000004132 -0.01288771152154527880 
0.81340468756423889296 0.00000000000000014952 -0.01239805900207215268 
0.80374313863730850738 0.00000000000000003835 -0.01192418253483827281 
0.79452334503458077464 -0.00000000000000003954 -0.01146571587329167467 
0.78579994834138777726 0.00000000000000009802 -0.01102229391620436483 
0.77762105347638521557 -0.00000000000000006288 -0.01059355316367166684 
0.77002814582377632213 0.00000000000000003717 -0.01017913214568551272 
0.76305610229957476776 0.00000000000000000780 -0.00977867182395006536 
0.75673328563535358082 0.00000000000000012002 -0.00939181596763005895 
0.75108171113405697294 -0.00000000000000006176 -0.00901821150374624951 
0.74611727534564997733 0.00000000000000004119 -0.00865750884294472223 
0.74185003648039127278 0.00000000000000004281 -0.00830936218139033400 
0.73828453688418638201 0.00000000000000006870 -0.00797342977953717502 
0.73542015850845876557 0.00000000000000005716 -0.00764937421854621196 
0.73325150298574881536 0.00000000000000008304 -0.00733686263512028317 
0.73176878864563243976 0.00000000000000007204 -0.00703556693553718249 
0.73095825755164278714 -0.00000000000000003411 -0.00674516398965731290 
0.73080258639036221879 0.00000000000000012725 -0.00646533580568655307 
0.73128129578400191679 0.00000000000000002071 -0.00619576968646925151 
0.73237115331571378540 -0.00000000000000002058 -0.00593615836808666659 
0.73404656624350939076 0.00000000000000008815 -0.00568620014152211323 
0.73627996052710653618 0.00000000000000001245 -0.00544559895815602789 
0.73904214339749241258 0.00000000000000006094 -0.00521406451983635021 
0.74230264725828298822 -0.00000000000000000357 -0.00499131235426512367 
0.74603005321939219741 0.00000000000000001519 -0.00477706387642592989 
0.75019229302649181879 -0.00000000000000002438 -0.00457104643676796256 
0.75475692856469833725 0.00000000000000012933 -0.00437299335684250470 
0.75969140848297600499 0.00000000000000012278 -0.00418264395308029242 
0.76496330180870220072 0.00000000000000007789 -0.00399974354937575587 
0.77054050870187962285 0.00000000000000006177 -0.00382404347913022167 
0.77639144873814813774 -0.00000000000000002334 -0.00365530107739086511 
0.78248522731178948852 0.00000000000000017143 -0.00349327966369971819 
0.78879178091722945698 -0.00000000000000002263 -0.00333774851625469240 
0.79528200220303024714 -0.00000000000000009870 -0.00318848283796234434 
0.80192784579900233677 0.00000000000000001208 -0.00304526371494126449 
0.80870241599769854268 0.00000000000000008631 -0.00290787806802615201 
0.81558003725701266884 0.00000000000000000822 -0.00277611859778799288 
0.82253627461876288596 -0.00000000000000006920 -0.00264978372358167305 
0.82954762333483422765 0.00000000000000011958 -0.00252867751710302534 
0.83659060660855744107 -0.00000000000000002010 -0.00241260963092301047 
0.84364053038550324004 -0.00000000000000010992 -0.00230139522244704508 
0.85067021312900348295 -0.00000000000000000210 -0.00219485487372691069 
0.85764889395775101288 0.00000000000000001948 -0.00209281450753504581 
0.86454143224982693550 0.00000000000000012070 -0.00199510530009426893 
0.87130784743862865760 0.00000000000000004389 -0.00190156359083522536 
0.87790320330328142084 0.00000000000000005178 -0.00181203078953670713 
0.88427781183168874257 0.00000000000000007996 -0.00172635328118603813 
0.89037771391951403555 0.00000000000000012990 -0.00164438232888323445 
0.89614538476602556560 0.00000000000000003305 -0.00156597397508858498 
0.90152060848513160263 0.00000000000000000148 -0.00149127708075074859 
0.90644146733702857244 0.00000000000000001705 -0.00142097295062892340 
0.91084539469401071266 -0.00000000000000000814 -0.00135374971263885245 
0.91467024631362914278 -0.00000000000000000572 -0.00128948567947802608 
0.91785535811021023989 0.00000000000000003869 -0.00122806321999024493 
0.92034271486551399999 -0.00000000000000003586 -0.00116936866639479791 
0.92207857297389017592 0.00000000000000002102 -0.00111329222108186082 
0.92301545330710699222 0.00000000000000009059 -0.00105972786317666849 
0.92311415022740683778 -0.00000000000000000407 -0.00100857325506483950 
0.92234550167419537825 0.00000000000000004137 -0.00095972964905442000 
0.92069177215218567234 -0.00000000000000003513 -0.00091310179433992320 
0.91814757818141035095 0.00000000000000000978 -0.00086859784442200642 
0.91472034064034135614 0.00000000000000018173 -0.00082612926512200268 
0.91043028568606898521 0.00000000000000010687 -0.00078561074332344192 
0.90531003977738022659 0.00000000000000007529 -0.00074696009656047486 
0.89940387811369193471 0.00000000000000005533 -0.00071009818356149211 
0.89276669219408910649 0.00000000000000006050 -0.00067494881584806389 
0.88546274328667029518 0.00000000000000003253 -0.00064058404169777146 
0.87756426600765202739 -0.00000000000000000286 -0.00060728180692926645 
0.86914998119753472672 0.00000000000000005241 -0.00057555621410660665 
0.86030357080302888306 -0.00000000000000004659 -0.00054533794929914657 
0.85111216024320879292 0.00000000000000006316 -0.00051656043800792702 
0.84166484628055215911 0.00000000000000011074 -0.00048915975449023653 
0.83205130110588476633 -0.00000000000000008726 -0.00046307453306954619 
0.82236047643703757970 -0.00000000000000002379 -0.00043824588145137768 
0.81267942508983581629 0.00000000000000013076 -0.00041461729605788610 
0.80309225180322274529 0.00000000000000013625 -0.00039213457939355140 
0.79367920013236625820 0.00000000000000006731 -0.00037074575944333235 
0.78451587797083999209 0.00000000000000007893 -0.00035040101110725191 
0.77567262070455356149 0.00000000000000013235 -0.00033105257966449634 
0.76721398809647789463 0.00000000000000007835 -0.00031265470626296976 
0.75919838870083389271 -0.00000000000000003766 -0.00029516355542179502 
0.75167782384974002330 0.00000000000000004604 -0.00027853714453320765 
0.74469774198280280775 0.00000000000000002742 -0.00026273527534692771 
0.73829699323882980178 -0.00000000000000001954 -0.00024771946741999185 
0.73250787373874892694 0.00000000000000007938 -0.00023345289350477704 
0.72735624880294447170 0.00000000000000009892 -0.00021990031685852656 
0.72286174441186445971 0.00000000000000001800 -0.00020702803044086608 
0.71903799648771671293 -0.00000000000000007669 -0.00019480379797799142 
0.71589294800424152498 0.00000000000000008317 -0.00018319679685866523 
0.71342918448261960496 -0.00000000000000008180 -0.00017217756283545788 
0.71164429907121184993 0.00000000000000008902 -0.00016171793649667870 
0.71053127910626212582 -0.00000000000000002652 -0.00015179101147510201 
0.71007890678550988905 0.00000000000000013035 -0.00014237108436240885 
0.71027216733641240776 0.00000000000000008718 -0.00013343360629149026 
0.71109265880856986630 0.00000000000000012610 -0.00012495513615185333 
0.71251899835238385883 0.00000000000000011776 -0.00011691329540204699 
0.71452722055228845566 0.00000000000000006203 -0.00010928672444280785 
0.71709116405487871582 0.00000000000000009415 -0.00010205504051345690 
0.72018284336393945111 0.00000000000000004543 -0.00009519879707389004 
0.72377280326159088020 0.00000000000000002752 -0.00008869944463662434 
0.72783045385500599878 0.00000000000000014681 -0.00008253929300934826 
0.73232438474014249774 -0.00000000000000000607 -0.00007670147491231355 
0.73722265721754798307 0.00000000000000002690 -0.00007116991093267713 
0.74249307389126051326 -0.00000000000000002388 -0.00006592927577923603 
0.74810342533155138600 -0.00000000000000003496 -0.00006096496580053806 
0.75402171378770987964 0.00000000000000000329 -0.00005626306772991699 
0.76021635420059785471 0.00000000000000011038 -0.00005181032862112356 
0.76665635298893874960 0.00000000000000006468 -0.00004759412694050193 
0.77331146527105643074 0.00000000000000010741 -0.00004360244477786986 
0.78015233133797623477 0.00000000000000014852 -0.00003982384114467269 
0.78715059331736181303 -0.00000000000000001950 -0.00003624742632111521 
0.79427899306361693377 0.00000000000000004670 -0.00003286283722355764 
0.80151145238048560060 0.00000000000000005711 -0.00002966021375489975 
0.80882313406941952483 0.00000000000000009038 -0.00002663017610854476 
0.81619038175371927402 0.00000000000000008761 -0.00002376380299178884 
0.82359017204117390687 -0.00000000000000001838 -0.00002105261073988873 
0.83099903036253508493 0.00000000000000011274 -0.00001848853328882561 
0.83839174390260717828 0.00000000000000007779 -0.00001606390297664257 
0.84574014366935812426 0.00000000000000007355 -0.00001377143214630733 
0.85301211942502208618 0.00000000000000005855 -0.00001160419551949694 
0.86017095208571547893 0.00000000000000005557 -0.00000955561331494255 
0.86717499244086948540 0.00000000000000001429 -0.00000761943508393739 
0.87397767721259511653 0.00000000000000006682 -0.00000578972423702400 
0.88052784922117932620 0.00000000000000004535 -0.00000406084323482010 
0.88677033429362273065 0.00000000000000006589 -0.00000242743942187332 
0.89264672082421347987 0.00000000000000005728 -0.00000088443147429394 
0.89809628643939365400 0.00000000000000001915 -0.00000000000000011394 
0.90305701838304475171 0.00000000000000000848 -0.00000000000000009757 
0.90746667875873743281 0.00000000000000007870 -0.00000000000000001063 
0.91126387168760181190 0.00000000000000001457 -0.00000000000000012989 
0.91438907605571906334 -0.00000000000000006730 -0.00000000000000002827 
0.91678561431913729862 0.00000000000000000586 -0.00000000000000007058 
0.91840053444605918020 0.00000000000000004959 0.00000000000000000298 
0.91918538826082452076 -0.00000000000000000182 -0.00000000000000003975 
0.91909689506009628612 0.00000000000000002171 -0.00000000000000002657 
0.91809748431358773058 0.00000000000000003781 -0.00000000000000008322 
0.91615571550606977880 -0.00000000000000012008 0.00000000000000001658 
0.91324657672719000701 -0.00000000000000002293 -0.00000000000000010831 
0.90935166649968535157 -0.00000000000000002393 -0.00000000000000012425 
0.90445926560070655231 0.00000000000000004574 -0.00000000000000009502 
0.89856430733183134674 0.00000000000000002737 0.00000000000000007281 
0.89166825589294185228 0.00000000000000006771 -0.00000000000000004422 
0.88377890327754327071 0.00000000000000008270 -0.00000000000000007557 
0.87491009549541687296 0.00000000000000002071 -0.00000000000000009258 
0.86508139900317893023 0.00000000000000001734 0.00000000000000002477 
0.85431771804074618792 -0.00000000000000002135 -0.00000000000000008907 
0.84264887318355063961 0.00000000000000003161 0.00000000000000000468 
0.83010915087295489290 -0.00000000000000000727 -0.00000000000000005198 
0.81673683302180188903 0.00000000000000002215 0.00000000000000002221 
0.80257371504409891205 -0.00000000000000000020 0.00000000000000002073 
0.78766461985822322500 -0.00000000000000002133 -0.00000000000000010193 
0.77205691458758118895 0.00000000000000003208 -0.00000000000000016284 
0.75580003585292288015 0.00000000000000000038 -0.00000000000000000218 
0.73894502873392853282 0.00000000000000000332 -0.00000000000000001100 
0.72154410368822696764 0.00000000000000010945 -0.00000000000000003927 
0.70365021496432866854 0.00000000000000001964 -0.00000000000000010204 
0.68531666333910912225 0.00000000000000009013 0.00000000000000005984 
0.66659672535596758980 0.00000000000000015641 -0.00000000000000000739 
0.64754331064022363496 0.00000000000000004885 -0.00000000000000005245 
0.62820864832549516699 0.00000000000000009839 0.00000000079581124555 
0.60864400313919087004 0.00000000000000000473 0.00000006783503701777 
0.58889942126611849460 0.00000000000000003100 0.00000079354332790493 
0.56902350573495730224 -0.00000000000000002538 0.00000432183450712137 
0.54906322075061564369 -0.00000000000000000036 0.00001563218221822558 
0.52906372412346469591 0.00000000000000009478 0.00004378847683636591 
0.50906822672085327852 -0.00000000000000009954 0.00010297087485801081 
0.48911787768373332641 -0.00000000000000006351 0.00021319336253661485 
0.46925167400799921991 0.00000000000000001164 0.00040066966310971095 
0.44950639298265709920 -0.00000000000000002341 0.00069783110257245692 
0.42991654590153910442 -0.00000000000000004097 0.00114302666181770535 
0.41051435141843345411 -0.00000000000000001522 0.00177995130151241865 
0.39132972689376738229 0.00000000000000006284 0.00265685660858689830 
0.37239029608116358538 0.00000000000000016467 0.00382560011958902680 
0.35372281982462949745 -0.00000000000000005689 0.00534058806548247736 
0.33534892828837570278 -0.00000000000000001348 0.00725766209009652205 
0.31728955386387341919 0.00000000000000004041 0.00963297473206567792 
0.29956349721208480608 0.00000000000000004324 0.01252189188151478332 
0.28218749305385193438 -0.00000000000000007468 0.01597795357764889360 
0.26517628325918374266 -0.00000000000000002315 0.02005191779135358926 
0.24854269596716649371 -0.00000000000000003575 0.02479090550287824102 
0.23229772955113914268 0.00000000000000008870 0.03023765960801398645 
0.21645064032865521386 -0.00000000000000005699 0.03642992506360381161 
0.20100903300143554975 -0.00000000000000007886 0.04339995325751117711 
0.18597895289590715695 -0.00000000000000001101 0.05117412986270191561 
0.17136497915919690627 0.00000000000000000183 0.05977272238549971584 
0.15717031814780696442 -0.00000000000000001589 0.06920974120124906426 
0.14339689632606877900 -0.00000000000000006067 0.07949290603165083680 
0.13004545206831927273 -0.00000000000000005309 0.09062370849552799090 
0.11711562583220105904 -0.00000000000000007197 0.10259756049479877571 
0.10460604824023292392 0.00000000000000003267 0.11540401771638054973 
0.09251442567262466166 -0.00000000000000004711 0.12902706737744398802 
0.08083762303606462085 -0.00000000000000002792 0.14344546945846087249 
0.06957174343081030943 -0.00000000000000002167 0.15863314100314121480 
0.05871220449182994183 -0.00000000000000009995 0.17455957356899801103 
0.04825381122900023606 -0.00000000000000006159 0.19119027454473008776 
0.03819082523651528421 -0.00000000000000001228 0.20848722377389578009 
0.02851703018279110394 0.00000000000000004337 0.22640933770670601533 
0.01922579352939129613 -0.00000000000000005820 0.24491293411623793475 
0.01031012446097828890 -0.00000000000000015948 0.26395219123949203999 
0.00176272803817506931 -0.00000000000000003378 0.28347959601913236272 
-0.00642394438831777725 -0.00000000000000010668 0.30344637691375198063 
-0.01425764844080343145 -0.00000000000000000459 0.32380291750166206866 
-0.02174630357316570395 -0.00000000000000000786 0.34449914781692175803 
-0.02889795342595949737 -0.00000000000000005163 0.36548491102048480395 
-0.03572072956442697012 0.00000000000000002651 0.38671030361992231317 
-0.04222281847372611613 -0.00000000000000007674 0.40812598800593835602 
-0.04841243167583115375 -0.00000000000000008347 0.42968347657206834578 
-0.05429777882484531498 -0.00000000000000004145 0.45133538712593268549 
-0.05988704363166978684 0.00000000000000002235 0.47303566968763860467 
-0.06518836246494193187 -0.00000000000000003047 0.49473980510548082323 
-0.07020980547269710381 -0.00000000000000014398 0.51640497620369996135 
-0.07495936006818589015 -0.00000000000000011097 0.53799021241483435674 
-0.07944491662352068384 0.00000000000000002341 0.55945650904349408794 
-0.08367425621620483422 -0.00000000000000012098 0.58076692246278360798 
-0.08765504027595458214 -0.00000000000000013854 0.60188664266266178604 
-0.09139480198245915343 -0.00000000000000010819 0.62278304465488687480 
-0.09490093926868983787 -0.00000000000000001904 0.64342572029536271305 
-0.09818070928897486283 -0.00000000000000007994 0.66378649211510332151 
-0.10124122421618320100 0.00000000000000000588 0.68383941075889953520 
-0.10408944823792244672 -0.00000000000000012035 0.70356073744724145769 
-0.10673219562756350309 -0.00000000000000000001 0.72292887894014956629 
-0.10917612977206828107 -0.00000000000000005672 0.74192399461731728394 
-0.11142776304495753681 -0.00000000000000009874 0.76052701484829254852 
-0.11349345741923280717 -0.00000000000000000552 0.77871831980031591680 
-0.11537942572161445642 0.00000000000000002084 0.79647639678413251207 
-0.11709173343600094708 0.00000000000000003854 0.81377667963577982047 
-0.11863630097057513424 -0.00000000000000011684 0.83059068331900109960 
-0.12001890630940795224 -0.00000000000000010835 0.84688548251756690100 
-0.12124518797572067519 0.00000000000000005548 0.86262353853116180424 
-0.12232064824013327842 -0.00000000000000005974 0.87776284953484817741 
-0.12325065651319520865 -0.00000000000000011361 0.89225738142150057275 
-0.12404045286728317132 -0.00000000000000015896 0.90605772702162234999 
-0.12469515163849691219 -0.00000000000000002878 0.91911193813281888421 
-0.12522087811489482356 -0.00000000000000000985 0.93136647566155172928 
-0.12562158523917610342 -0.00000000000000002226 0.94276722687384229005 
-0.12590174472133375261 -0.00000000000000014089 0.95326054419892858327 
-0.12606600816803642529 0.00000000000000003060 0.96279426909195753304 
-0.12611891908134356677 -0.00000000000000010522 0.97131881180085866134 
-0.12606491619372314772 -0.00000000000000016236 0.97878862899645102669 
-0.12590833667132392271 -0.00000000000000008650 0.98516412982265788578 
-0.12565341917129674298 -0.00000000000000010242 0.99041366467819758057 
-0.12530430674214831921 -0.00000000000000010643 0.99451531760020539519 
-0.12486504955901774061 0.00000000000000002415 0.99745833593263244499 
-0.12433960748843388144 -0.00000000000000008179 0.99924411386521028167 
-0.12373185247952094012 -0.00000000000000005888 0.99988670528493983625 
-0.12304557078079332577 -0.00000000000000009846 0.99941288167084652017 
-0.12228446498362105510 -0.00000000000000009693 0.99786177688491328741 
-0.12145215589516901444 -0.00000000000000015505 0.99528417618159847891 
-0.12055218424512294251 -0.00000000000000000914 0.99174151436285162831 
-0.11958715760304081122 -0.00000000000000000622 0.98730464993972499865 
-0.11856080951744812912 -0.00000000000000003868 0.98205248013833312815 
-0.11747703110589308162 -0.00000000000000010146 0.97607045692977723039 
-0.11633905267348863821 -0.00000000000000003846 0.96944905797958302873 
-0.11515003093058553962 0.00000000000000000972 0.96228225925960508835 
-0.11391304984331601657 -0.00000000000000009230 0.95466604860184500758 
-0.11263112137546159308 0.00000000000000000369 0.94669701209904344452 
-0.11130718613175592802 -0.00000000000000000737 0.93847101824761147704 
-0.10994411391285000001 -0.00000000000000012523 0.93008201826532255208 
-0.10854470419217329691 -0.00000000000000000758 0.92162097520696406594 
-0.10711168652484857888 -0.00000000000000008175 0.91317492939867428436 
-0.10564772089865472060 -0.00000000000000007889 0.90482620332822716325 
-0.10415539803679876862 0.00000000000000007937 0.89665174544725345651 
-0.10263723966196348913 -0.00000000000000009393 0.88872260932532209932 
-0.10109569873074256141 -0.00000000000000008370 0.88110356219486929419 
-0.09953315964717909803 -0.00000000000000007074 0.87385281508225765013 
-0.09795193846368413504 0.00000000000000000790 0.86702186537219327889 
-0.09635428307714326290 0.00000000000000001154 0.86065544173804064965 
-0.09474237342752224456 -0.00000000000000000077 0.85479154082841080076 
-0.09311832170576661571 0.00000000000000003682 0.84946154487300196134 
-0.09148417257726293439 -0.00000000000000003283 0.84469040940417283725 
-0.08984190342658965323 -0.00000000000000003921 0.84049691053602793023 
-0.08819342462874515953 -0.00000000000000009780 0.83689394165553943061 
-0.08654057985149540833 -0.00000000000000003717 0.83388884992124023832 
-0.08488514639295292874 -0.00000000000000009844 0.83148380359988338650 
-0.08322883555796521671 -0.00000000000000000907 0.82967618197054282536 
-0.08157329307637266325 -0.00000000000000017236 0.82845898026369313438 
-0.07992009956569544327 -0.00000000000000001984 0.82782122285862747013 
-0.07827077104032104105 -0.00000000000000002491 0.82774837871875028839 
-0.07662675946878953759 -0.00000000000000001559 0.82822277378659803215 
-0.07498945338033578822 -0.00000000000000007629 0.82922399577775163237 
-0.07336017852140759576 -0.00000000000000000501 0.83072928749649055380 
-0.07174019856249035099 -0.00000000000000003581 0.83271392543973032918 
-0.07013071585517248463 0.00000000000000016692 0.83515158105509512687 
-0.06853287223904526437 0.00000000000000009155 0.83801466257107026792 
-0.06694774989769032569 -0.00000000000000007399 0.84127463582067030234 
-0.06537637226270823221 0.00000000000000011280 0.84490232293462619317 
-0.06381970496446121022 -0.00000000000000007947 0.84886817818637649857 
-0.06227865682794795493 -0.00000000000000014565 0.85314254063046934817 
-0.06075408091200019262 0.00000000000000003208 0.85769586349026316618 
-0.05924677558978669323 -0.00000000000000010795 0.86249892052238696927 
-0.05775748566842878878 -0.00000000000000001600 0.86752298981687581136 
-0.05628690354537594503 0.00000000000000003588 0.87274001568611936364 
-0.05483567039905525020 -0.00000000000000000280 0.87812274945560275796 
-0.05340437741119544168 -0.00000000000000000946 0.88364487009792691552 
-0.05199356701814033394 -0.00000000000000009598 0.88928108575167708061 
-0.05060373418838385456 -0.00000000000000019783 0.89500721724126774959 
-0.04923532772352220976 -0.00000000000000006063 0.90080026396991652593 
-0.04788875157977232760 -0.00000000000000001942 0.90663839112112443175 
-0.04656436620719574954 -0.00000000000000003268 0.91250050397250614953 
-0.04526248990376186693 0.00000000000000001125 0.91836524682137465891 
-0.04398340018140368957 -0.00000000000000002079 0.92420973034344833241 
-0.04272733514124043425 -0.00000000000000009926 0.93000828333504403922 
-0.04149449485518773295 -0.00000000000000014985 0.93573141177155794157 
-0.04028504275122338912 -0.00000000000000011686 0.94134506355898206476 
-0.03909910699964127406 -0.00000000000000002495 0.94681023740016168055 
-0.03793678189769910530 -0.00000000000000006799 0.95208293315984782179 
-0.03679812925014099706 0.00000000000000007081 0.95711441444432232561 
-0.03568317974317358060 -0.00000000000000010251 0.96185173819508185122 
-0.03459193430955422727 -0.00000000000000003850 0.96623849807444339710 
-0.03352493848612411731 -0.00000000000000002634 0.97021572605486505747 
-0.03248236817938716936 -0.00000000000000007959 0.97372289817486201713 
-0.03146326304194584783 -0.00000000000000017951 0.97669899455790176734 
-0.03046752251005823905 -0.00000000000000004155 0.97908356966733456339 
-0.02949502267229983654 -0.00000000000000004093 0.98081782920169091611 
-0.02854561754857045178 -0.00000000000000006148 0.98184596464788187475 
-0.02761914034643368418 -0.00000000000000005837 0.98211698356717036518 
-0.02671540469336172730 -0.00000000000000006741 0.98158676993670079813 
-0.02583420584357988894 0.00000000000000005224 0.98022004557649655698 
-0.02497532185831810234 -0.00000000000000012534 0.97799202329710877013 
-0.02413851475839199137 -0.00000000000000005049 0.97488963702150654989 
-0.02332353164814994148 -0.00000000000000004286 0.97091230215533730341 
-0.02253010580993356285 -0.00000000000000003400 0.96607220686620653982 
-0.02175795776830329042 -0.00000000000000002913 0.96039416648704967194 
-0.02100679632339664052 -0.00000000000000008032 0.95391509282569975081 
-0.02027631955287614515 -0.00000000000000009255 0.94668314080189908122 
-0.01956621578203382797 -0.00000000000000013984 0.93875659896153818007 
-0.01887475621824158400 -0.00000000000000007581 0.93020258993021720517 
-0.01820309912974839989 -0.00000000000000009307 0.92109564323459591773 
-0.01755090487457303464 -0.00000000000000001953 0.91151619726846377922 
-0.01691782783118260872 -0.00000000000000001712 0.90154908036433878404 
-0.01630351719554146497 -0.00000000000000007774 0.89128201358490932726 
-0.01570761774605427055 0.00000000000000000390 0.88080417043232250851 
-0.01512977057653428284 0.00000000000000000364 0.87020482151145328586 
-0.01456961379740079505 -0.00000000000000000782 0.85957208549394170660 
-0.01402678320537385781 -0.00000000000000009324 0.84899180164942944504 
-0.01350091292199137073 -0.00000000000000006920 0.83854653381370902743 
-0.01299163600133176021 0.00000000000000001015 0.82831471097886022470 
-0.01249858500737936057 -0.00000000000000003150 0.81836990571293144470 
-0.01202139256150947140 0.00000000000000002808 0.80878024831763806191 
-0.01155969186062550530 -0.00000000000000000463 0.79960797196738375714 
-0.01111311716650697536 0.00000000000000000258 0.79090908198723985922 
-0.01068130426697460819 -0.00000000000000001487 0.78273314086156209335 
-0.01026389090950350497 -0.00000000000000004730 0.77512315945701337760 
-0.00986051720794750737 -0.00000000000000003847 0.76811558423276249385 
-0.00947082602306133572 -0.00000000000000004140 0.76174036983783310895 
-0.00909446331752958997 -0.00000000000000001342 0.75602112640576080160 
-0.00873107848623027802 0.00000000000000011899 0.75097533099908608811 
-0.00838032466247585171 -0.00000000000000000941 0.74661459298466015255 
-0.00804185900098622168 -0.00000000000000001440 0.74294496359413098041 
-0.00771534293836140597 -0.00000000000000001465 0.73996728050609783534 
-0.00740044243182359177 -0.00000000000000002617 0.73767753894575682772 
-0.00709682817700713758 -0.00000000000000007989 0.73606728150747491313 
-0.00680417580557484726 -0.00000000000000002010 0.73512399964278929421 
-0.00652216606344165929 -0.00000000000000001446 0.73483154050189569695 
-0.00625048497037990897 0.00000000000000006568 0.73517051355525531164 
-0.00598882396178327010 0.00000000000000001945 0.73611869214109348913 
-0.00573688001335249248 -0.00000000000000001465 0.73765140577460808213 
-0.00549435574946734780 0.00000000000000003305 0.73974191970833902410 
-0.00526095953599306151 -0.00000000000000002944 0.74236179884510689053 
-0.00503640555826226442 -0.00000000000000001391 0.74548125367171136357 
-0.00482041388496201161 0.00000000000000001869 0.74906946640113325486 
-0.00461271051864277706 0.00000000000000008127 0.75309489598251011522 
-0.00441302743354949657 -0.00000000000000006171 0.75752556106182322715 
-0.00422110260146335309 -0.00000000000000004360 0.76232930035303392291 
-0.00403668000622696421 0.00000000000000000917 0.76747401021096950391 
-0.00385950964760659087 -0.00000000000000009678 0.77292785948564446397 
-0.00368934753513013372 0.00000000000000007620 0.77865948198539736147 
-0.00352595567252206787 -0.00000000000000005984 0.78463814708588563995 
-0.00336910203333819517 -0.00000000000000006332 0.79083390919644991346 
-0.00321856052838312119 -0.00000000000000003691 0.79721773693755504375 
-0.00307411096547760467 0.00000000000000011080 0.80376162299583275850 
-0.00293553900212158939 -0.00000000000000000107 0.81043867570958671998 
-0.00280263609158022545 -0.00000000000000008961 0.81722319347930738598 
-0.00267519942290248437 -0.00000000000000002010 0.82409070645048410064 
-0.00255303185536026817 -0.00000000000000000486 0.83101776785849379436 
-0.00243594184777938799 -0.00000000000000002214 0.83798116310487713587 
-0.00232374338321278797 -0.00000000000000006552 0.84495670479217466209 
-0.00221625588938814981 0.00000000000000003364 0.85191794850689706031 
-0.00211330415534394895 0.00000000000000007154 0.85883505448008801153 
-0.00201471824464926046 -0.00000000000000002185 0.86567392399173570539 
-0.00192033340558195429 -0.00000000000000006176 0.87239567034532328194 
-0.00182998997862720268 0.00000000000000007023 0.87895643624055264098 
-0.00174353330163559738 0.00000000000000000907 0.88530753744019241580 
-0.00166081361296441265 -0.00000000000000001797 0.89139589279372899444 
-0.00158168595290980596 -0.00000000000000002183 0.89716468980316588233 
-0.00150601006372178231 0.00000000000000000647 0.90255423052392769190 
-0.00143478333886042217 0.00000000000000001893 0.90750290276039502491 
-0.00136695378885124058 -0.00000000000000003145 0.91194822475540571194 
-0.00130210745368135555 -0.00000000000000000459 0.91582791675412356103 
-0.00124012589836919773 0.00000000000000006627 0.91908096175750253476 
-0.00118089466990509520 -0.00000000000000000112 0.92164872509275941326 
-0.00112430320411493405 -0.00000000000000007266 0.92347647358545470464 
-0.00107024473225619614 0.00000000000000006528 0.92451532380561862734 
-0.00101861618753635187 0.00000000000000003175 0.92472427273369306455 
-0.00096931811173398181 0.00000000000000003402 0.92407203088533729218 
-0.00092225456208926560 -0.00000000000000001177 0.92253849088606565410 
-0.00087733301862168893 0.00000000000000005579 0.92011574752736613458 
-0.00083446429201360691 0.00000000000000001400 0.91680864432302600076 
-0.00079356243219827396 -0.00000000000000007441 0.91263486199398580201 
-0.00075454463776830941 0.00000000000000001083 0.90762459054092581301 
-0.00071733116632022027 0.00000000000000002278 0.90181984212893417929 
-0.00068184524583512292 -0.00000000000000003403 0.89527346969538923460 
-0.00064743998362955875 0.00000000000000006672 0.88804795819559168013 
-0.00061381385523044381 0.00000000000000000355 0.88021405343410152877 
-0.00058177856841308345 0.00000000000000001506 0.87184928881683143587 
-0.00055126425030603782 -0.00000000000000004259 0.86303646410957535196 
-0.00052220378584140069 0.00000000000000000497 0.85386212316134924016 
-0.00049453272668421671 0.00000000000000002928 0.84441507010445671089 
-0.00046818920214400551 -0.00000000000000000898 0.83478495617845516197 
-0.00044311383208751420 0.00000000000000005512 0.82506096231968839572 
-0.00041924964187006785 0.00000000000000005567 0.81533059619357228787 
-0.00039654197929207130 -0.00000000000000000189 0.80567861653211547690 
-0.00037493843359342891 -0.00000000000000002771 0.79618609252782068797 
-0.00035438875647847049 -0.00000000000000003043 0.78692960164023006975 
-0.00033484478517637498 -0.00000000000000005837 0.77798056547669924843 
-0.00031626036752517177 -0.00000000000000005191 0.76940472037819651607 
-0.00029859128907341599 0.00000000000000000676 0.76126171692433941551 
-0.00028179520218292312 -0.00000000000000003066 0.75360484071211908397 
-0.00026583155711894273 0.00000000000000009029 0.74648084539850934060 
-0.00025066153510731442 0.00000000000000003996 0.73992988806647452815 
-0.00023624798333795428 -0.00000000000000005229 0.73398555641614493528 
-0.00022255535189104941 -0.00000000000000002750 0.72867497704053607599 
-0.00020954963256033607 -0.00000000000000005229 0.72401899406446212915 
-0.00019719829954499232 -0.00000000000000010532 0.72003240765717335670 
-0.00018547025198246747 -0.00000000000000004662 0.71672426232952413105 
-0.00017433575829112481 -0.00000000000000002381 0.71409817545594589383 
-0.00016376640229028927 -0.00000000000000001160 0.71215269708582273900 
-0.00015373503106489174 0.00000000000000001961 0.71088169279837454262 
-0.00014421570454124148 -0.00000000000000000962 0.71027474208460794625 
-0.00013518364673828728 -0.00000000000000007736 0.71031754548807335414 
-0.00012661519865991128 -0.00000000000000002874 0.71099233448556420356 
-0.00011848777279029036 -0.00000000000000018072 0.71227827882534178183 
-0.00011077980915843652 -0.00000000000000001278 0.71415188675267826657 
-0.00010347073293223610 -0.00000000000000009086 0.71658739423188810846 
-0.00009654091350686697 0.00000000000000005388 0.71955713991408898345 
-0.00008997162504958954 0.00000000000000000963 0.72303192319628362128 
-0.00008374500846287540 -0.00000000000000002767 0.72698134326707730679 
-0.00007784403473035829 -0.00000000000000011305 0.73137411753601300202 
-0.00007225246960685423 -0.00000000000000001260 0.73617837829673138383 
-0.00006695483961509530 -0.00000000000000008806 0.74136194687954848348 
-0.00006193639931471377 -0.00000000000000002096 0.74689258490784604660 
-0.00005718309980484104 -0.00000000000000011408 0.75273822258679601305 
-0.00005268155842449400 -0.00000000000000001398 0.75886716422461530929 
-0.00004841902961572355 -0.00000000000000008783 0.76524827141842932665 
-0.00004438337691419196 -0.00000000000000001056 0.77185112453160720225 
-0.00004056304603211339 -0.00000000000000005832 0.77864616325011237752 
-0.00003694703899905320 -0.00000000000000008585 0.78560480713484071025 
-0.00003352488932675782 -0.00000000000000000461 0.79269955718809170797 
-0.00003028663816695213 -0.00000000000000010373 0.79990407952804920555 
-0.00002722281142555527 -0.00000000000000001534 0.80719327152242770218 
-0.00002432439780643142 0.00000000000000001926 0.81454324929697019542 
-0.00002158282774835072 -0.00000000000000001400 0.82193092240430154494 
-0.00001898995322904878 -0.00000000000000012308 0.82933299313555552956 
-0.00001653802840314901 -0.00000000000000004133 0.83672468428054225242 
-0.00001421969104692221 -0.00000000000000010128 0.84407849127256218136 
-0.00001202794478069301 -0.00000000000000014763 0.85136314163777349062 
-0.00000995614203915003 -0.00000000000000006198 0.85854286011426594882 
-0.00000799796776665753 -0.00000000000000005442 0.86557697785224108067 
-0.00000614742380765589 -0.00000000000000004359 0.87241988307028006666 
-0.00000439881396612916 -0.00000000000000007034 0.87902128387559330669 
-0.00000274672971385065 -0.00000000000000009537 0.88532673804099082382 
-0.00000118603651514220 -0.00000000000000000400 0.89127839651077489513 
-0.00000000000000008891 0.00000000000000002656 0.89681590504269370623 
-0.00000000000000008347 -0.00000000000000008689 0.90187740994516596427 
0.00000000000000003143 -0.00000000000000021132 0.90640061800337112796 
-0.00000000000000002668 -0.00000000000000002584 0.91032386639335016731 
-0.00000000000000000917 0.00000000000000005620 0.91358716490655966780 
0.00000000000000001792 -0.00000000000000001597 0.91613317959903661780 
0.00000000000000001780 0.00000000000000001529 0.91790813365014467529 
-0.00000000000000000607 0.00000000000000002022 0.91886260750103587736 
0.00000000000000006569 -0.00000000000000003210 0.91895222607325477426 
-0.00000000000000000238 -0.00000000000000004832 0.91813822594674887601 
0.00000000000000004442 0.00000000000000001748 0.91638789976119394698 
0.00000000000000005693 0.00000000000000007400 0.91367491879166773394 
-0.00000000000000007057 -0.00000000000000003645 0.90997953766366190820 
0.00000000000000005533 -0.00000000000000004794 0.90528868755629809950 
-0.00000000000000001393 0.00000000000000002731 0.89959596605126268543 
0.00000000000000006690 0.00000000000000004200 0.89290153307974384767 
-0.00000000000000004931 -0.00000000000000004911 0.88521192326437070363 
-0.00000000000000007095 -0.00000000000000008890 0.87653978541137012037 
-0.00000000000000002818 -0.00000000000000002266 0.86690356004088320319 
-0.00000000000000005484 -0.00000000000000002224 0.85632710570800374406 
0.00000000000000007443 0.00000000000000000853 0.84483928451615319943 
0.00000000000000003236 0.00000000000000004712 0.83247351670543523472 
-0.00000000000000003379 -0.00000000000000004855 0.81926731355366810838 
0.00000000000000000410 0.00000000000000010786 0.80526179709376011218 
0.00000000000000002049 0.00000000000000001119 0.79050121435957199090 
-0.00000000000000000545 -0.00000000000000004057 0.77503245305029133672 
-0.00000000000000006374 -0.00000000000000006809 0.75890456467293010423 
0.00000000000000002311 0.00000000000000007436 0.74216830040214654129 
-0.00000000000000010014 -0.00000000000000001086 0.72487566410072978851 
0.00000000000000004963 -0.00000000000000002586 0.70707948618415195075 
0.00000000000000008317 -0.00000000000000004923 0.68883302129705836769 
0.00000000000000000194 0.00000000000000010398 0.67018957210444396466 
-0.00000000000000002563 -0.00000000000000007125 0.65120214088951045017 
-0.00000000000000003515 0.00000000017196890243 0.63192311009596846549 
-0.00000000000000003742 0.00000003528450842301 0.61240395245550272030 
-0.00000000000000000857 0.00000052528313792911 0.59269497090081402213 
0.00000000000000002420 0.00000320431630386498 0.57284506807957147334 
-0.00000000000000005940 0.00001238046057459836 0.55290154495260523948 
-0.00000000000000008583 0.00003620937583805780 0.53290992767793077256 
-0.00000000000000004373 0.00008777964825648518 0.51291382174761568358 
-0.00000000000000002403 0.00018589781291140369 0.49295479215358278813 
0.00000000000000000046 0.00035552538187135716 0.47307226820765685416 
0.00000000000000000356 0.00062786457631127388 0.45330347152680794398 
0.00000000000000002188 0.00104011863213356167 0.43368336561302489596 
-0.00000000000000010039 0.00163497030717195619 0.41424462540495199381 
-0.00000000000000008741 0.00245983156263180182 0.39501762515196109371 
-0.00000000000000004405 0.00356592067538042106 0.37603044295734971980 
0.00000000000000004744 0.00500722209195021955 0.35731028865630498625 
0.00000000000000002654 0.00683938056881388048 0.33887923354249088748 
-0.00000000000000007706 0.00911857562741859827 0.32075864107731361097 
-0.00000000000000003153 0.01190041588730043030 0.30296773102719398718 
-0.00000000000000013256 0.01523888601308656318 0.28552364362770105144 
0.00000000000000004102 0.01918537223979302486 0.26844151130991505960 
-0.00000000000000007363 0.02378778601295533646 0.25173453670455381292 
-0.00000000000000004969 0.02908979938221424241 0.23541407572172207141 
-0.00000000000000004272 0.03513020052868569970 0.21948972458876081504 
-0.00000000000000000755 0.04194237324000231470 0.20396940981425129569 
-0.00000000000000011307 0.04955390028260955176 0.18885948013178474603 
-0.00000000000000003284 0.05798628743908460642 0.17416479956163863352 
0.00000000000000004296 0.06725480243896572730 0.15988884081132179182 
-0.00000000000000006605 0.07736842106181798795 0.14603377831633446160 
0.00000000000000005207 0.08832987127052957521 0.13260058029999702289 
-0.00000000000000007292 0.10013576527748888068 0.11958909930534690480 
-0.00000000000000000758 0.11277680889244781626 0.10699816072262188782 
0.00000000000000004464 0.12623807728674651951 0.09482564890246134026 
-0.00000000000000010752 0.14049934637591915410 0.08306859050754399065 
-0.00000000000000003320 0.15553546931779374529 0.07172323481380479815 
-0.00000000000000007684 0.17131678809740150116 0.06078513072664334937 
-0.00000000000000006784 0.18780957078002069593 0.05024920032760205740 
-0.00000000000000011129 0.20497646572149974542 0.04010980881297401129 
-0.00000000000000004134 0.22277696479785535910 0.03036083072771167748 
0.00000000000000008521 0.24116786852611940550 0.02099571243602636403 
0.00000000000000002959 0.26010374677219855188 0.01200753080427530671 
-0.00000000000000004378 0.27953738955995677262 0.00338904810233127581 
-0.00000000000000009542 0.29942024329342609157 -0.00486723684325185077 
0.00000000000000006341 0.31970282846895076156 -0.01276904118711703028 
-0.00000000000000009180 0.34033513567704082314 -0.02032425421612126665 
0.00000000000000000249 0.36126699736816209052 -0.02754089701774591753 
-0.00000000000000007313 0.38244843347822515822 -0.03442708555503280754 
0.00000000000000004547 0.40382996957555816753 -0.04099099702456409505 
-0.00000000000000004227 0.42536292670064190791 -0.04724083936374769144 
-0.00000000000000007093 0.44699968252302230143 -0.05318482376552380320 
-0.00000000000000001387 0.46869390383783915421 -0.05883114005246405098 
0.00000000000000001681 0.49040075076929745546 -0.06418793475784308200 
-0.00000000000000005111 0.51207705334277409115 -0.06926329175852161124 
-0.00000000000000005824 0.53368146133412308618 -0.07406521530316552415 
-0.00000000000000009923 0.55517456850746238484 -0.07860161527934467207 
-0.00000000000000000901 0.57651901251480774935 -0.08288029456419772345 
0.00000000000000001437 0.59767955185596310930 -0.08690893830554390076 
-0.00000000000000001775 0.61862312138868758016 -0.09069510498337124416 
-0.00000000000000015299 0.63931886794089287651 -0.09424621910547692494 
0.00000000000000005871 0.65973816761191061975 -0.09756956539550599994 
-0.00000000000000008067 0.67985462636199001096 -0.10067228433668005960 
-0.00000000000000010445 0.69964406546034019208 -0.10356136893997736070 
-0.00000000000000001329 0.71908447664810215549 -0.10624366261138061540 
0.00000000000000009353 0.73815572975252863319 -0.10872585799891645864 
-0.00000000000000013382 0.75683870110972262246 -0.11101449670655161306 
-0.00000000000000004168 0.77511399125685909173 -0.11311596976845457452 
-0.00000000000000009976 0.79296056686713911610 -0.11503651878368149897 
0.00000000000000006186 0.81035455219460572618 -0.11678223761788424084 
-0.00000000000000002215 0.82726829899084008968 -0.11835907458517906654 
0.00000000000000000829 0.84366979477755432715 -0.11977283502974196694 
-0.00000000000000010002 0.85952242132664469221 -0.12102918423305811246 
0.00000000000000000544 0.87478504323657613195 -0.12213365057892472398 
-0.00000000000000003316 0.88941238663358868077 -0.12309162891433821085 
-0.00000000000000012197 0.90335565712504051206 -0.12390838405020841717 
-0.00000000000000005041 0.91656334171907671848 -0.12458905435144597418 
0.00000000000000004670 0.92898213957355046944 -0.12513978842172121531 
-0.00000000000000010051 0.94055796966182225738 -0.12556456181001693362 
-0.00000000000000008197 0.95123700861153581698 -0.12586786813355804737 
-0.00000000000000002542 0.96096671840707725831 -0.12605438022299744749 
0.00000000000000001529 0.96969686428659385147 -0.12612866214163065415 
-0.00000000000000009744 0.97738077773806231185 -0.12609517254484084448 
-0.00000000000000004112 0.98397710634653723361 -0.12595826791099817843 
-0.00000000000000004197 0.98945178817304701990 -0.12572220562895439211 
-0.00000000000000002851 0.99377992466912001834 -0.12539114693049044358 
-0.00000000000000011649 0.99694734532275375294 -0.12496915965906219004 
0.00000000000000001732 0.99895175143170100718 -0.12446022086887834068 
-0.00000000000000013520 0.99980339401505247121 -0.12386821925082815155 
0.00000000000000002321 0.99952528788004557647 -0.12319695738397894169 
-0.00000000000000003560 0.99815299506747379166 -0.12245015381336320226 
-0.00000000000000003883 0.99573403015500683289 -0.12163144495652628008 
-0.00000000000000004300 0.99232695026449313502 -0.12074438684287065737 
-0.00000000000000001600 0.98800019651411996602 -0.11979216855192217905 
-0.00000000000000008649 0.98283075297229194334 -0.11877737390901357828 
0.00000000000000000826 0.97690268537520341674 -0.11770450827832514007 
-0.00000000000000008023 0.97030561608965626430 -0.11657681623358961964 
-0.00000000000000007299 0.96313318488686672225 -0.11539746858820081055 
-0.00000000000000012816 0.95548153767276167159 -0.11416956326829647006 
-0.00000000000000011206 0.94744787785293416160 -0.11289612607515871201 
-0.00000000000000014157 0.93912910781705782881 -0.11158011134701402434 
-0.00000000000000006319 0.93062058132326230808 -0.11022440253043883085 
-0.00000000000000010599 0.92201498148149196865 -0.10883181267162117534 
-0.00000000000000011154 0.91340133364821507467 -0.10740508483765155712 
0.00000000000000001044 0.90486415787931473442 -0.10594689247787894559 
-0.00000000000000005426 0.89648276163648010773 -0.10445983973514839926 
0.00000000000000002454 0.88833067017454392378 -0.10294646171644807053 
-0.00000000000000008131 0.88047518940688096478 -0.10140922473215306654 
-0.00000000000000007054 0.87297709399748868453 -0.09985052651266831947 
0.00000000000000002810 0.86589043190080905443 -0.09827269641083417884 
-0.00000000000000009142 0.85926243550112868519 -0.09667799559800437093 
-0.00000000000000009501 0.85313352883065629584 -0.09506861726120138800 
-0.00000000000000004924 0.84753742000976750592 -0.09344668680825836404 
0.00000000000000004064 0.84250126799878088946 -0.09181426208731416350 
-0.00000000000000006952 0.83804591292681351877 -0.09017333362650345463 
-0.00000000000000019678 0.83418615962337760994 -0.08852582489913284058 
-0.00000000000000009296 0.83093110448119544831 -0.08687359261910208852 
0.00000000000000003388 0.82828449638778889330 -0.08521842707077806334 
-0.00000000000000004578 0.82624512314732068141 -0.08356205247701557759 
-0.00000000000000002916 0.82480721554590197275 -0.08190612740848078610 
-0.00000000000000010127 0.82396086197040385724 -0.08025224523693920420 
-0.00000000000000000950 0.82369242725382507686 -0.07860193463467451958 
0.00000000000000004546 0.82398497017410821108 -0.07695666012173102422 
-0.00000000000000011982 0.82481865476560645156 -0.07531782266222060429 
-0.00000000000000004082 0.82617115130368856679 -0.07368676031050723496 
0.00000000000000006852 0.82801802348603259496 -0.07206474890766377539 
-0.00000000000000008827 0.83033309895386253618 -0.07045300282822600235 
-0.00000000000000001593 0.83308882086941460354 -0.06885267577689183072 
-0.00000000000000000571 0.83625657879032411213 -0.06726486163449367506 
0.00000000000000001390 0.83980701755676778753 -0.06569059535224999746 
-0.00000000000000006650 0.84371032333337458997 -0.06413085389302493333 
-0.00000000000000014475 0.84793648632624418759 -0.06258655721806377636 
-0.00000000000000007539 0.85245554002764500900 -0.06105856931743753463 
-0.00000000000000007882 0.85723777712926974015 -0.05954769928221572556 
-0.00000000000000008849 0.86225394249190112639 -0.05805470241621623478 
-0.00000000000000008332 0.86747540376773235593 -0.05658028138500039578 
-0.00000000000000012514 0.87287430044433722554 -0.05512508739965560345 
0.00000000000000001234 0.87842367221937800448 -0.05368972143278978593 
-0.00000000000000005128 0.88409756772555736504 -0.05227473546406143784 
-0.00000000000000011459 0.88987113470901535450 -0.05088063375249989723 
-0.00000000000000004669 0.89572069280324773111 -0.04950787413281159538 
0.00000000000000002346 0.90162377339041444024 -0.04815686933283021276 
-0.00000000000000007437 0.90755890898138102951 -0.04682798830925287425 
-0.00000000000000003931 0.91350484022231215331 -0.04552155759879336627 
0.00000000000000001850 0.91943930879041957382 -0.04423786268190165599 
0.00000000000000000332 0.92533777100084901868 -0.04297714935621788773 
-0.00000000000000000881 0.93117225728356833869 -0.04173962511697244804 
-0.00000000000000012813 0.93691050642302342588 -0.04052546054158828043 
-0.00000000000000003963 0.94251543441051888195 -0.03933479067580520488 
0.00000000000000001370 0.94794494975832077621 -0.03816771641871442161 
-0.00000000000000002477 0.95315209518979382430 -0.03702430590417363221 
-0.00000000000000002428 0.95808547578412461831 -0.03590459587615208586 
-0.00000000000000008305 0.96268992277452225537 -0.03480859305565812967 
0.00000000000000000895 0.96690733780418269827 -0.03373627549699177025 
0.00000000000000003041 0.97067766260880439244 -0.03268900223464710902 
-0.00000000000000004850 0.97393992233232862255 -0.03166521133856594478 
-0.00000000000000006415 0.97663329586250402503 -0.03066480706991218247 
0.00000000000000006950 0.97869818005241959735 -0.02968767008377744265 
-0.00000000000000005369 0.98007737090820490344 -0.02873365871254348128 
-0.00000000000000002872 0.98071770351416553968 -0.02780261022687070468 
-0.00000000000000005457 0.98057206554150100342 -0.02689434207287127662 
-0.00000000000000005180 0.97960142924569004741 -0.02600865308413272126 
0.00000000000000004241 0.97777664588692758674 -0.02514532466737735492 
-0.00000000000000017320 0.97507985354953619073 -0.02430412196065845701 
-0.00000000000000006231 0.97150542720741284164 -0.02348479496310668102 
-0.00000000000000011091 0.96706045488618730399 -0.02268707963534890779 
-0.00000000000000002936 0.96176476114909836834 -0.02191069896983750473 
-0.00000000000000009155 0.95565052308784070867 -0.02115536403042644203 
-0.00000000000000001088 0.94876153788669392863 -0.02042077496064012218 
0.00000000000000007480 0.94115220750675054884 -0.01970662196017739301 
0.00000000000000007279 0.93288630719760912147 -0.01901145317890441319 
-0.00000000000000010037 0.92403560201572210175 -0.01833586256097374453 
-0.00000000000000008778 0.91467837056775302962 -0.01767980320919320877 
0.00000000000000006716 0.90489788875973897753 -0.01704293063314683138 
-0.00000000000000007800 0.89478091913441160088 -0.01642489500307834846 
0.00000000000000000035 0.88441624394485485183 -0.01582534192124624220 
0.00000000000000002740 0.87389327281752837706 -0.01524391316127296329 
0.00000000000000006949 0.86330074895888841979 -0.01468024737567725536 
-0.00000000000000005534 0.85272557152387939983 -0.01413398077184544605 
-0.00000000000000008098 0.84225174608875152948 -0.01360474775675385439 
-0.00000000000000004596 0.83195947020018179430 -0.01309218155081975747 
0.00000000000000001665 0.82192435671467678482 -0.01259591477129768169 
0.00000000000000004391 0.81221679407641411697 -0.01211557998570329982 
-0.00000000000000014616 0.80290143976909755796 -0.01165081023577349030 
-0.00000000000000001891 0.79403684086693315791 -0.01120123953252617939 
0.00000000000000009768 0.78567517384341778452 -0.01076650332301263245 
0.00000000000000009275 0.77786209451295029726 -0.01034623892938848350 
-0.00000000000000001608 0.77063668811780283718 -0.00994008596096177671 
0.00000000000000007588 0.76403150907178818407 -0.00954768669989926842 
0.00000000000000003055 0.75807269967538126743 -0.00916868646129636797 
0.00000000000000005155 0.75278017717239431583 -0.00880273392833556129 
-0.00000000000000000710 0.74816787877758961223 -0.00844948146327064234 
0.00000000000000001324 0.74424405472471011347 -0.00810858539499338150 
0.00000000000000002704 0.74101159992711629343 -0.00777970628394447118 
0.00000000000000002489 0.73846841547520880589 -0.00746250916513893203 
-0.00000000000000011239 0.73660779188731850819 -0.00715666377008495475 
-0.00000000000000002283 0.73541880675936610601 -0.00686184472837268918 
-0.00000000000000000897 0.73488673020283878934 -0.00657773174971350034 
-0.00000000000000000003 0.73499343220369883767 -0.00630400978720743049 
-0.00000000000000000936 0.73571778676309373957 -0.00604036918261315666 
-0.00000000000000012074 0.73703606838346935604 -0.00578650579438941010 
0.00000000000000010596 0.73892233713264932060 -0.00554212110926820701 
0.00000000000000001640 0.74134880914763023885 -0.00530692233811522543 
-0.00000000000000002982 0.74428621002503003723 -0.00508062249681791919 
-0.00000000000000005024 0.74770410908377660242 -0.00486294047293430245 
0.00000000000000000351 0.75157123297640815451 -0.00465360107881962557 
-0.00000000000000010331 0.75585575756811362869 -0.00445233509193864591 
-0.00000000000000005635 0.76052557739805359827 -0.00425887928305079821 
-0.00000000000000010951 0.76554855238694585751 -0.00407297643294580666 
-0.00000000000000002063 0.77089273176030159718 -0.00389437533838609502 
0.00000000000000003316 0.77652655542037407610 -0.00372283080790016072 
-0.00000000000000008102 0.78241903322442951652 -0.00355810364804966641 
-0.00000000000000012512 0.78853990281517538641 -0.00339996064077609282 
-0.00000000000000005978 0.79485976680393144456 -0.00324817451241586359 
-0.00000000000000002865 0.80135021023137165130 -0.00310252389495394845 
0.00000000000000005055 0.80798389932725001028 -0.00296279328006454666 
-0.00000000000000003253 0.81473466266231642230 -0.00282877296647137408 
-0.00000000000000000304 0.82157755317340852574 -0.00270025900113966821 
0.00000000000000012560 0.82848878900026989847 -0.00257705311479345701 
-0.00000000000000005459 0.83544520668624289161 -0.00245896265223131526 
-0.00000000000000003985 0.84242317807045696831 -0.00234580049789583729 
-0.00000000000000001258 0.84939732427942005177 -0.00223738499713254041 
-0.00000000000000008755 0.85633929885539261662 -0.00213353987355652513 
-0.00000000000000002409 0.86321680373830234068 -0.00203409414292426158 
-0.00000000000000000553 0.86999292270128125715 -0.00193888202389131694 
0.00000000000000000330 0.87662580108546372948 -0.00184774284601884773 
-0.00000000000000000576 0.88306866284919105503 -0.00176052095537273124 
-0.00000000000000014126 0.88927013169355428879 -0.00167706561804413425 
-0.00000000000000003772 0.89517480889753575646 -0.00159723092189898688 
-0.00000000000000003695 0.90072405376872410887 -0.00152087567685406703 
0.00000000000000001956 0.90585691115936584072 -0.00144871794273667516 
0.00000000000000003805 0.91051113266193739459 -0.00138027718061814681 
-0.00000000000000000539 0.91462424261929420322 -0.00131484380633642190 
-0.00000000000000008117 0.91813460617899067540 -0.00125229857737800890 
