1.097673 -1.142995 -1.086437 0.118516 0.174205 0.229461 1.433118 -0.810148 0.392655 1.595032 -0.766913 -1.274016 -0.058462 0.680615 -0.480085 0.423078 -0.344795 0.675586 -2.616647 -0.891643 0.152675 0.520682 0.953142 -0.908136 -0.319878 -0.678613 -2.831797 1.256366 -0.354604 0.996883 -0.902564 -1.223380 0.395743 0.283063 -1.488328 -2.668790 0.372551 0.036582 -1.080325 0.943781 -1.617506 -0.115361 -2.377909 -0.887051 0.025579 -0.472629 -2.067389 -1.363705 -0.885900 0.188239 -1.649291 -0.366564 -0.305885 -0.315215 0.590813 0.438476 -0.426442 -0.972955 0.172215 0.867391 1.173082 0.747180 0.651498 0.689164 0.684132 0.593866 -1.172685 0.713423 -0.464266 0.285110 0.961179 -0.952528 -0.472452 -1.014760 0.052793 -0.880707 -0.089034 0.672228 0.373725 1.159965 -0.566697 0.635268 0.570618 -1.308430 -0.115850 -0.263586 -0.377326 1.242327 -0.806443 -1.155756 -0.644556 -0.490154 0.334469 0.745284 0.413546 0.403716 0.458300 -0.218181 -0.814940 0.184817 -1.657659 0.998038 -0.315905 1.271131 -0.553897 -1.003189 0.391860 -0.594824 0.200397 -0.801095 -0.732244 0.324050 0.110379 1.718690 -1.110699 -1.402138 -0.762206 0.071185 -1.006274 -0.980835 -0.776524 -0.570371 1.134193 -1.547044 0.620688 -0.281720 0.502996 -2.762605 -0.392401 2.015168 -1.345497 -1.757813 1.358112 0.096270 0.838207 -1.012067 -1.280833 -1.607600 0.176662 -0.118098 0.413516 0.968506 -0.745729 0.571732 -0.951391 -1.422735 -0.293124 -1.409297 0.318377 -0.020464 -0.083203 -0.603061 -0.280371 -0.040837 -0.118769 -0.257996 -0.290414 -0.316406 0.538158 0.350112 1.070957 0.027471 0.131375 0.993577 -0.144932 0.657797 -0.380936 -1.105927 -0.748880 0.893007 0.443462 0.176542 -0.581934 -0.198421 -0.847686 -0.654759 0.966281 -0.394098 0.372497 0.332652 -0.453573 0.658147 1.225453 0.804705 -0.235206 0.666394 -0.224919 -0.195760 1.387211 0.046716 1.567872 -0.444959 -1.728692 1.384714 -0.052119 2.137386 2.149207 -0.058307 1.244329 -0.460337 -0.115855 0.662310 -0.745956 0.121834 0.678588 -0.344615 -0.031669 -1.484170 0.676070 -0.435072 -1.341922 1.414767 0.807373 0.561023 0.611141 -0.128656 0.186402 -0.725024 -0.597121 1.004473 -1.199297 0.712958 2.134015 -0.049135 1.062653 -1.396531 0.803425 -0.301711 -0.565073 1.137457 -0.221328 -0.099873 0.934903 -1.630980 -0.137340 1.358557 -0.846190 -1.415686 -0.209700 -0.131573 -1.760050 1.027175 0.696522 -0.386976 -0.159997 0.865353 0.715870 -1.141975 0.039490 -0.726203 0.859507 -0.335493 -0.284732 -0.852378 -0.581518 0.396301 0.153170 -0.014585 0.026367 0.043961 0.135865 -0.674821 0.338868 -1.407035 -1.086161 0.729324 1.058030 0.646960 -0.220381 0.149856 -0.432579 0.447496 0.204066 -0.063644 -0.154419 1.436815 0.266013 -0.465067 0.655792 0.512445 -0.503590 -0.403485 -1.109050 -0.048378 1.332956 1.572301 0.397412 0.544797 -0.048329 0.169913 0.073191 -1.696966 -2.131683 0.643278 0.906966 -0.317980 0.718062 0.822337 0.838130 0.729350 -0.178958 -0.066532 -0.199100 -0.292156 -0.280402 3.607605 0.110182 -0.475315 0.150539 -0.488550 -1.926602 0.702558 0.918933 -0.419155 1.245101 1.202753 1.187775 0.306748 -1.154224 -0.646030 0.049242 -0.345515 1.094438 -0.144462 -0.689173 -0.156281 0.818679 1.357542 0.803730 -0.988119 0.299374 0.261313 0.136097 -0.727216 0.999833 -0.898830 2.455431 -0.582010 -0.250306 0.854728 1.318617 -2.181118 -0.715473 1.023003 1.288529 -0.899343 1.119452 0.277545 0.312664 1.085453 0.824937 -0.186299 1.419293 -1.323748 0.772960 -0.274435 0.509189 -0.402200 -1.129831 1.669710 -0.460185 -0.358600 -0.825934 -0.594153 0.389182 0.039657 1.542506 0.356156 0.368032 0.616165 -0.972405 0.216384 -0.755895 0.805035 1.960934 -1.096004 0.351604 0.543379 2.808320 -1.108886 -0.745001 -1.824134 -0.637266 1.599029 -0.028289 -0.050204 0.238480 -0.367069 0.857933 -0.988059 0.851893 0.468334 -0.646597 0.472992 1.169653 -0.646899 1.253617 0.918747 0.735314 0.578198 -0.289012 -0.012123 -0.026027 -0.130696 0.656950 -0.437831 -0.241246 -0.823034 0.255001 0.952774 -0.230272 0.676471 -0.965527 -0.551699 -0.291395 -1.128378 0.675662 1.034101 -0.132801 1.687807 -0.172416 0.201553 0.312918 0.144515 0.827141 0.372234 1.022517 -1.461832 -0.866831 -0.431660 -0.484194 -0.559087 -2.150207 -0.751163 -0.561741 -2.092189 2.478072 0.812176 1.381499 -1.027713 0.403389 -0.950188 -1.647661 0.962699 -0.482582 -1.429844 -0.107169 0.007217 -0.594699 1.128516 0.810681 2.158725 0.748480 -0.785877 -0.945244 0.150028 2.214090 -0.361363 -1.140620 -1.305691 -0.796653 -1.350424 2.709044 0.844958 -1.020836 0.423192 -0.900075 -0.448977 -1.230145 -1.931497 0.015728 -2.754552 -0.440291 0.496473 0.213303 1.882063 0.657067 0.796012 0.870324 -0.896226 0.277936 -0.802685 -0.032881 -0.175643 1.257291 0.972172 -0.726496 -0.168607 -0.666360 1.008968 1.260374 0.630293 -0.996075 0.304104 -0.348090 -0.995023 -1.564551 1.057193 -0.318029 -0.387663 -0.895158 -0.404493 0.592201 -0.454996 -0.348882 1.320706 -0.740820 1.147095 -0.652240 -1.122882 0.883098 0.403786 0.970187 0.655063 0.552097 1.486798 0.362933 0.444649 -1.128959 1.474145 1.669304 0.185098 -1.250641 0.170356 -2.069110 -1.516852 -0.528623 0.053713 -0.262504 0.532562 2.178016 0.290637 -0.257771 -2.127014 -1.434425 -1.305284 -0.743647 0.594716 -0.598766 -1.809354 -0.820505 1.179860 1.535581 0.860016 1.416496 -1.104350 0.277415 -1.208314 -0.181067 -1.913986 -0.165833 -0.296872 0.401356 -0.421812 -0.072406 0.923486 0.712480 -0.301335 -0.909880 0.888059 2.061835 -0.288870 -0.832287 2.771197 0.416787 -1.998291 0.329366 0.188748 0.661588 0.976162 -0.062943 -0.524450 -0.243060 -0.042445 -0.062866 0.482081 0.211697 -1.408020 -0.084491 0.800081 0.492702 1.072247 -2.309617 0.937232 1.445568 0.803078 -0.132517 0.764278 -0.804107 -2.029992 -0.676392 -0.642933 0.678944 -1.359449 -0.906450 -0.361677 0.548083 -0.352819 0.502527 1.117061 0.009148 0.863423 0.768155 1.401713 -1.271725 1.496665 0.320824 -0.688023 0.332312 -0.585719 -0.403302 0.435469 -1.359469 -1.615931 -1.215358 2.132695 1.259837 -0.794146 2.157141 0.267995 -0.369447 -0.861343 0.074111 -0.154519 0.228230 -0.718645 0.395991 -0.419670 -0.148487 -2.321586 0.671212 1.022656 1.177643 0.823545 0.820638 -0.572927 -0.115433 -0.830195 0.810060 -0.602364 0.877626 0.623673 -0.991373 -1.142686 -0.627077 0.230975 -0.131359 -0.391552 0.518784 -1.137193 0.925288 -0.006178 -1.551131 0.519298 0.177520 0.774616 2.031388 -0.869423 2.110055 0.094069 0.955342 0.039403 1.401686 0.222939 0.841740 -0.879105 0.334644 0.239016 -1.441772 1.279582 2.316532 1.503076 0.533208 1.520695 0.737538 -0.907849 0.145907 -0.814121 1.428448 -0.820608 -0.576740 -1.657308 1.234364 0.099043 0.706407 1.299006 0.234476 -1.154435 1.754804 -0.328536 -0.275770 1.247141 -0.741571 -0.414765 0.516414 -0.384756 -0.188592 -1.795430 0.361088 0.158594 -0.121251 1.546232 -0.412184 -0.051910 0.195621 0.151697 0.885113 0.408004 -0.474975 -0.972941 -1.392858 -0.934918 0.675915 0.943120 -0.230295 0.011500 -1.217920 0.173548 0.868368 0.372260 0.930967 -0.144953 -0.667911 -0.221809 -0.149611 -1.713428 0.928098 0.426769 0.198146 0.271524 -1.900628 0.522640 1.067447 0.494091 0.332122 0.982477 -0.619076 -0.999615 0.169411 -2.267919 -1.047296 -0.242543 0.324535 -0.609444 -0.365525 -0.696271 -1.092793 0.748158 -1.163315 0.551496 -0.479880 1.174821 0.212636 -0.548788 -0.887520 0.954714 -0.282964 -1.105797 -0.069917 0.699293 -1.891908 -1.240513 -1.579730 1.084482 -0.339742 0.354834 0.416788 0.421747 -1.007737 -1.293912 0.621772 2.461299 -0.979797 0.191030 -0.362643 0.701085 -1.777361 0.971036 -0.975851 -0.178689 -0.201734 -0.152241 -0.786574 0.237045 0.148807 -0.663681 0.222668 0.933748 0.589409 2.760339 0.468114 0.626108 -0.043479 -1.489951 -0.261350 0.961495 -0.502961 0.297191 -0.538403 -0.094745 1.649238 1.100999 0.061600 1.669207 0.440423 -0.317373 -0.915682 1.663442 -0.545339 0.178912 -0.599218 -1.121871 -1.484875 -0.371607 1.115242 -0.245145 -1.794429 -0.967246 -0.588175 -1.277542 0.435098 1.616477 1.759404 -0.182793 1.867886 0.961396 -0.738292 -1.218416 -0.232711 -2.823115 0.732076 -0.593776 1.026474 1.606418 -0.983734 -0.897879 -0.417457 -1.221477 -1.116821 -0.534695 1.695668 0.256781 1.113950 -0.263062 0.956408 0.060703 -0.850476 1.596611 -1.506271 1.131309 -1.467810 1.297079 -1.223869 -0.194770 -0.010293 1.344522 2.366980 0.901385 0.117404 -0.206553 -0.772012 0.242230 0.552596 -2.253685 -1.674409 1.877467 -0.356129 -0.223484 1.556277 -0.302235 -0.799146 1.770058 0.422340 0.217039 1.604698 2.005073 -1.491663 2.235108 0.952494 -0.892487 0.926425 -0.986751 0.107272 -0.075978 -0.207666 0.788463 0.407454 0.434470 -1.799385 -1.163773 -0.777988 1.418576 1.422592 0.088738 1.161039 -0.317872 0.116382 -0.533429 1.728339 -1.349133 1.907227 1.370018 -0.474067 1.603692 2.082344 0.816295 -1.601564 1.241050 0.920324 0.321334 1.747459 1.324223 0.399020 1.339484 -1.133394 -1.340285 0.454978 -1.571968 -0.555497 0.179889 0.086526 -0.501563 -0.966290 -1.158383 -0.781322 -0.035026 0.527575 1.734483 1.257280 0.443604 0.814535 -0.637897 -1.088783 0.630325 0.035942 0.512815 0.286215 -1.139755 -0.411295 0.607650 -0.397502 -1.918017 1.621795 1.004956 0.624160 -0.868912 -0.250991 0.844029 -1.890298 -1.405231 -0.317687 0.941382 1.267579 -2.174549 0.491829 -0.155063 -0.174158 -0.892541 -0.069132 0.634898 1.808722 0.531868 0.743121 0.067272 1.058229 -1.530348 1.156755 0.613067 0.959871 3.027228 -0.803132 -0.825899 -0.176083 0.543074 0.191892 1.227942 0.047344 0.976839 0.927659 -1.322919 0.875685 -0.231124 -0.369339 -1.118086 1.361694 0.211245 -0.627478 -0.179569 0.087676 -0.708335 1.744448 0.319316 -0.501795 1.341909 0.310813 0.394199 -2.714256 -0.299326 0.486246 0.627362 1.110459 -0.665562 1.445711 -2.499113 2.259278 0.826116 0.208208 0.261729 0.975276 0.160612 -0.505696 0.476790 -1.100230 -0.964024 -0.739102 0.086552 0.732487 -2.643635 -0.055791 0.097137 -0.090125 -1.584989 0.371966 0.296535 0.098827 0.881850 -0.738026 0.407574 -0.402365 -1.092866 -1.499301 -2.043850 -0.055941 -1.102720 0.561751 0.468100 1.952897 0.920581 0.168883 0.494113 -1.866024 0.894754 0.334341 2.913879 0.478667 -0.231959 0.491922 -0.165660 -1.613739 -0.518831 -0.014596 1.202677 -0.156105 1.664461 -1.494222 0.838960 0.776049 -1.156181 0.659669 0.998765 -0.163968 0.813662 -0.100492 0.248082 -2.076510 0.056332 -0.056943 0.356888 0.142945 0.168640 0.370679 -0.294940 -0.071214 -0.738705 -0.673404 0.931396 0.433774 0.294857 2.689065 -1.757313 0.692320 -0.869472 0.034211 -0.871989 -0.231138 0.576834 -1.203302 0.023428 -1.254447 -0.120786 -0.082028 -0.296284 0.561500 1.095702 -0.684618 1.326605 -0.489177 0.541967 -1.150273 -0.152222 -0.147608 0.430047 1.016489 0.008611 -0.576876 0.647241 -1.061678 1.560129 0.131663 2.287362 0.175144 -0.476484 0.107519 0.892585 -1.031448 -1.606411 0.260405 0.798502 -1.184241 0.078824 -1.287717 1.518584 0.983389 -0.929251 0.350640 1.028575 -0.804424 -0.471003 0.396293 1.020114 2.093544 -0.832738 0.549431 -0.875805 0.167886 -0.675936 1.534968 -2.147954 0.016417 0.124229 -1.441030 -0.153369 2.113143 -0.178288 2.292997 -0.585635 -0.767776 -0.280496 -0.373985 -0.403723 0.150173 0.663845 -0.190664 0.770097 0.846417 1.531706 1.943646 1.415977 -2.637814 -1.595321 -0.363199 -1.440967 0.078644 -0.267880 -0.169615 -0.622925 -0.961553 1.190638 -1.583788 1.053798 -0.098884 0.548635 -0.218367 -0.855135 -0.352436 0.486559 0.909092 -0.178769 0.630117 1.408364 -0.444845 3.739739 -0.393699 0.649266 0.711760 -1.115729 0.128815 0.600790 -0.535783 1.210582 -0.026681 -0.494643 -0.897809 1.705642 0.376253 -1.430928 -0.124124 -0.781099 -0.605535 1.021955 0.572305 -1.821129 -1.136612 -0.636387 -1.278768 -0.391620 -0.514654 -1.218078 -1.608420 -1.065185 0.851385 -1.122978 -0.089612 -0.740039 -1.280625 -0.821425 0.063402 0.677712 1.098623 -0.773953 -1.745755 0.544852 -0.469303 0.980283 0.476932 -2.042249 -1.159032 3.064395 1.217910 -2.241805 -1.326808 -1.471921 0.329788 0.538032 -0.699425 -0.389954 -0.202395 -1.457224 2.231111 -0.930551 0.051655 0.078759 -0.802788 1.892306 -0.362114 1.328986 -1.173515 0.691735 -0.849455 0.746245 1.228300 -0.834611 -0.476017 0.604907 1.145449 0.823148 -0.257423 -0.712660 -1.171078 0.646620 -0.508297 0.958549 -0.927239 0.191499 -1.179580 -2.314450 1.486516 -0.843095 -1.625956 0.460426 -0.548554 -1.762441 -0.466410 -0.368903 -0.351465 0.252861 0.142171 -1.312880 -1.593264 0.481189 -0.582714 1.616713 -1.304215 -0.047553 -1.337012 0.565193 -1.149625 1.251023 0.726225 -0.324681 -0.812676 0.410188 1.823616 -0.393964 0.405814 -1.098179 -0.020671 -0.032299 0.529960 0.315318 0.908018 -0.053965 -0.595454 -1.820644 1.033830 0.420961 0.735481 -1.810515 0.443003 0.480413 1.012562 -0.055921 -0.774551 -1.230881 0.636144 0.219358 2.303687 -0.009257 -0.559982 0.761411 0.614743 -1.132984 1.392075 2.277917 -1.571173 -0.927348 0.393424 1.023865 1.263717 -0.831717 -1.109943 -0.643839 0.204530 0.800627 0.318598 0.966820 -0.698741 -0.264643 0.015551 -0.847513 -1.500895 -2.046579 0.654161 -0.575640 1.707738 -0.186145 0.867364 -0.536250 1.266661 0.161237 -0.840881 1.609761 -0.538863 0.340807 1.914491 0.539021 -0.129250 -1.512591 1.354782 -1.481736 0.140350 -1.488864 0.329119 1.750145 1.099347 -1.272948 0.242138 0.282657 -0.614103 0.862223 0.410864 -1.328401 0.696645 0.530289 -0.304024 -0.187343 0.611434 1.207243 -0.034323 0.041802 1.760122 -1.840769 1.100154 -0.757572 -0.680919 1.031649 1.217215 -0.597393 -0.245212 0.759483 -0.850151 -0.711273 2.486461 -0.760322 -0.539572 -0.197365 -1.550370 2.027214 1.859667 0.449993 0.595722 0.627560 -0.707060 -0.426276 1.072006 -0.251022 -1.184651 1.482067 -1.194529 2.348772 -0.586100 -0.294251 1.586024 0.902882 -0.055846 -0.725129 1.074449 1.593708 0.141157 0.275366 1.148770 0.882755 0.679633 0.562482 -1.020471 -0.663660 0.993302 0.502220 -1.282086 -0.813741 0.335055 0.211516 -0.708101 -1.216111 1.507031 0.160288 0.069589 -0.512992 -0.231839 0.683763 1.865943 -0.284340 -0.810458 -0.390033 -0.199030 -0.246865 -0.368014 0.403802 -0.519615 -0.331780 1.473636 -1.232707 0.003715 0.049176 -0.066738 -0.830086 -1.457854 -0.957101 -0.775226 -0.008502 -1.614685 0.369877 -2.002454 -2.141151 0.100452 1.311771 1.460927 0.994923 -1.274600 0.434639 -1.090439 -0.859689 -0.857037 -0.297350 -0.450522 -0.425764 0.602206 -0.132439 -0.730131 -0.356703 -1.071748 -0.893487 -0.870792 -0.056099 -0.924856 0.075953 0.151635 0.174556 -0.550166 -0.325002 -0.982572 -0.799444 1.552165 0.102543 -0.728368 -0.288827 1.470415 -1.239635 -0.154713 -0.109864 -0.993985 -0.054857 0.584809 -0.383656 -0.212824 0.650377 2.095001 -0.868806 1.036338 0.889944 -0.190376 0.673791 -1.125729 -0.761819 1.663876 0.094542 0.875584 -0.081486 -1.391270 0.046128 -0.138826 -1.062031 0.597521 -0.589891 1.157639 0.106540 0.199290 -1.119512 0.752197 -0.324134 0.331913 0.865651 -0.211859 -0.022864 -1.404146 0.620709 -0.407375 0.190551 0.845740 -0.267585 -0.033728 0.122643 -1.394259 0.593643 -1.361529 -1.103001 -1.637091 0.181700 0.794492 1.141923 -0.615888 -0.099763 1.680530 -0.364653 -0.307038 0.515669 0.192494 0.831508 0.507589 -0.262067 0.762636 0.525183 0.402351 -0.492114 1.151773 0.017315 0.718657 -0.968053 -0.594887 1.158805 -0.163981 -0.175889 0.690264 -0.291747 0.693877 -1.056253 -0.658963 0.306635 -0.818044 -1.405155 0.489700 0.225296 0.137796 -0.624675 0.506273 1.219331 -0.771070 0.310492 -0.495182 0.341413 -0.579676 1.018401 0.738372 -0.283578 -0.020055 -0.622294 -1.175716 -0.136829 0.398279 0.861337 0.509857 -1.768288 2.194185 -0.699688 0.245472 -0.550661 0.205249 0.145331 0.690647 -0.226159 0.012444 -0.707015 2.669117 -2.079271 0.884200 -0.831543 -0.679892 1.107151 0.524901 -0.345597 0.664485 -0.257907 -1.470039 -0.300889 0.424266 -0.703457 0.109324 2.377977 -1.298933 0.880816 -0.669858 1.135840 -0.801995 -0.047226 1.548917 1.678017 1.213844 0.429143 -0.891106 0.443970 0.164560 1.398890 1.496159 -1.331353 -0.597156 -0.159185 -0.119061 1.315405 0.634219 1.225883 0.259564 0.438039 1.415999 1.003195 2.226194 0.024172 0.893831 -0.685962 -0.439085 -1.033801 1.337008 -0.065295 0.601134 -0.961722 0.365963 1.203324 -0.735550 -1.226582 -2.359005 0.499471 0.849577 1.011053 -2.212801 1.086178 0.268507 -0.572683 -0.347597 -1.117041 -2.413322 1.209925 0.552077 -0.420642 -1.689228 1.395915 -1.165778 -0.145737 -0.894980 -2.270046 -0.919898 0.621633 0.241911 -0.598852 0.459883 -0.892457 -1.263016 -1.634793 0.204412 0.554279 1.557930 0.369309 -0.151111 -1.188305 1.717386 0.309919 -1.590806 -1.193395 -0.177995 -0.285078 -1.112479 -1.539413 0.559733 -0.533919 -1.210150 -0.765620 -0.583269 0.255685 0.779803 1.269168 -0.512174 1.375071 1.174042 0.871292 -0.086508 1.481597 1.032462 -0.890129 0.238764 0.999122 0.572757 -0.414086 0.528339 -0.281785 -0.233641 0.587607 0.355046 -0.560687 1.152795 0.071628 -0.637926 -0.366148 -0.263264 -0.262164 0.390466 0.167535 1.694385 0.462201 -0.219583 0.921398 -0.075321 -0.844103 1.610693 0.140709 0.823491 0.650397 -0.129437 1.731359 -1.103722 0.846178 -0.162143 -0.332323 0.590945 -1.261061 -0.015392 -1.519438 -1.158882 0.740378 -0.565182 1.119098 1.591996 -0.287045 0.984308 -0.671439 -1.098738 -0.832296 -0.190735 -0.387835 -1.291547 -0.108985 0.833476 0.603115 1.337645 0.332238 -0.327808 -0.853226 0.910005 0.463173 -0.688911 -0.473370 -1.011658 -0.656927 1.021580 -0.976351 0.855262 -0.170965 -0.051394 -0.608176 -0.442507 -1.052974 2.157894 -0.270621 -0.161178 -0.663888 -1.078818 0.104459 -0.164703 1.205176 -1.547792 1.217525 -0.462916 0.478427 -0.293258 -0.277955 0.591384 0.247868 -0.657031 0.432890 -1.264982 1.487617 -0.593925 0.300624 1.077875 -0.850680 -0.414789 1.285935 0.781647 0.543952 -0.395024 -0.045565 -1.468575 0.417980 0.153117 -0.134199 -0.914131 -0.571384 0.491219 -0.463256 -1.123905 0.034116 -1.636386 -1.980285 0.046115 0.567796 0.987196 -0.851155 0.481897 -0.116272 -2.362793 -0.843098 0.660818 -0.761895 -0.750372 -0.499528 0.623525 0.494741 1.140562 0.188494 0.212255 -0.552286 -1.895767 -0.618034 0.043258 -1.856956 1.639671 -0.478118 -0.190789 0.145396 -1.356849 -0.040109 0.483435 1.582895 1.044745 -0.036851 -0.361822 0.776285 -0.226043 -0.281133 -1.916766 0.024810 -0.190672 0.422397 1.093646 -0.671511 1.323552 0.319419 0.247367 0.257005 0.783012 0.513819 -0.482469 -0.276868 0.668691 1.117545 0.724617 2.082620 0.073331 -0.490534 -0.109951 0.647034 -1.280134 -0.373619 1.133474 1.428255 0.245555 0.470411 -0.074202 0.104365 -0.768701 2.377696 -0.127071 0.567653 -0.147270 -0.672119 -1.032301 -0.832286 -0.788901 -0.061742 -0.359457 -0.235180 2.996582 -0.079347 1.013698 -0.456772 -0.211291 -0.892595 -0.210317 -1.908161 0.742132 -0.461596 -0.284547 -0.020849 0.876384 -0.036263 -1.520321 -0.250506 1.291619 -0.181779 0.587922 -1.006028 1.027907 0.025967 -0.030265 0.076723 -0.815628 0.165644 0.809783 1.219301 -1.346837 0.740224 -0.067450 -0.093321 -0.088596 -0.938813 -0.664692 0.185681 0.760358 0.560006 0.424163 -1.756736 -0.234697 -0.178891 0.387465 0.825008 -0.330778 0.714507 -0.819525 1.122696 -1.399840 0.436619 0.245066 -0.062313 0.757670 -0.203742 -1.502654 1.437912 2.387675 0.834669 -0.851367 1.269701 0.340868 0.184318 0.866208 1.323391 -0.645451 0.386930 1.221348 0.158102 0.122620 -1.367167 -0.111944 -0.179603 -1.895836 -2.080082 0.726050 0.287684 -0.669507 -0.323720 1.558404 -0.341767 -0.937790 1.031613 -0.113456 -0.242143 -0.202320 -1.630286 -1.061149 -0.893031 1.518655 0.112137 0.764429 -0.682961 1.325500 0.338688 -1.306942 -0.096040 -1.764243 -0.697882 0.846123 -1.972062 0.285406 -0.544276 0.446752 -0.335039 -0.327362 -0.859482 0.062229 0.664045 -0.372955 1.248301 -1.326167 -0.794310 0.332702 0.021687 -0.102711 0.538334 -0.376618 -0.118009 1.485331 0.326482 0.269443 -0.515404 1.991686 -0.166616 -1.716358 -1.024809 -1.568053 -2.873742 -0.025106 -0.402919 -0.493309 -0.354628 -0.022861 -2.011882 0.954540 -0.983956 1.408096 0.015635 1.469952 -0.245359 -1.539768 0.715616 1.156132 1.993407 0.527540 -0.302036 2.495334 1.813733 -0.146380 1.629918 1.136719 1.543008 0.279046 1.060742 0.169085 0.075734 -0.662329 -1.241412 -0.233664 -1.916784 0.006769 -3.924136 0.986902 -0.163408 0.383984 1.973034 0.700120 0.884163 -1.349822 2.995293 1.326534 -0.213957 -0.728056 1.095466 3.070201 0.472180 1.255108 1.284316 -1.284141 0.846315 4.284017 -1.832934 0.315014 -0.342904 0.644164 0.431445 1.576322 -0.269170 0.638780 2.068671 1.660315 -0.255085 1.577810 0.480722 -0.394472 1.228513 2.333352 -0.696136 -1.109715 1.032807 2.303731 1.418121 -2.763108 1.524287 -0.358058 -1.964450 0.206279 -2.364443 -0.989119 -0.125594 -1.779888 -1.034700 -0.822880 -1.278627 -1.630830 0.225851 -0.659908 0.189161 -2.886203 -2.585640 0.545061 -1.547522 0.951522 0.544202 -0.335822 0.953572 0.086004 -0.405871 -2.525957 -0.432584 -2.060306 -1.916411 -2.315559 -2.558983 -2.630138 -0.490125 0.222166 -1.478051 -0.977213 0.298419 -0.518646 1.134864 -0.042720 0.002047 1.580026 0.304832 -1.144431 0.074653 -0.775959 -1.436119 0.258048 -1.568792 -0.429867 -1.154678 -0.069468 0.005523 2.136779 1.528739 0.441711 -0.138769 0.204458 0.916384 1.182094 -0.937461 0.865055 0.581416 -1.848363 0.390079 0.211075 -0.015372 2.141017 -0.125105 0.949667 -0.658399 -1.081424 1.652735 1.516402 -0.659919 -0.360850 0.648619 0.599263 1.111875 0.783323 -0.871931 0.232754 -0.598673 -0.454163 1.071892 1.280428 0.137981 -1.244920 -1.327490 -0.022292 0.451499 -1.538052 -1.959879 0.127551 2.253875 0.709781 -0.082539 1.126690 1.026690 1.525338 1.071060 0.779307 -0.918259 -0.616762 -0.390366 -1.968157 -0.070181 -1.816397 2.363959 0.816317 0.632789 -1.312126 0.148024 0.249129 -0.100343 0.405610 0.911004 -2.489929 1.543691 -0.370195 -0.256253 -1.681565 -0.523352 -0.401061 0.156372 -0.020918 0.839332 -0.888640 -0.388321 0.619340 0.357534 0.865927 -0.232711 -0.090166 -0.688852 0.265559 0.927583 1.237348 1.592652 -0.269489 0.107641 -1.195659 0.662703 0.257494 -0.936028 -0.707520 0.238066 0.931417 -0.840319 1.039170 1.634842 1.087350 0.131430 0.287379 -0.387324 0.431903 -0.630043 0.976694 -0.209005 -0.183837 0.041211 0.102392 -1.389427 -0.979163 2.243787 1.326946 2.338944 -0.342071 1.013743 -0.395951 1.223858 -1.507457 0.193860 -0.074150 -0.252166 -0.892684 -0.492014 -1.757721 0.300412 0.756774 0.392295 -0.482287 -0.153705 0.121662 0.889973 1.306348 -0.605186 0.421997 1.153122 -0.706392 -0.392114 -0.269029 -0.252123 0.446452 0.157208 -0.554840 0.480885 -0.367963 -1.674986 -0.387393 -0.431166 1.005229 -1.009396 -0.650970 -0.959677 0.092165 1.551806 -0.590955 0.392617 1.178825 1.609949 0.537313 -0.250555 1.594576 1.081547 0.641573 0.553333 0.461521 -1.091953 0.022274 0.743986 -0.398585 1.142263 0.813038 -0.046996 -0.545770 0.520304 0.422804 0.875172 1.270786 -0.558938 -0.200490 -0.718635 -0.467522 1.091544 -0.285419 0.528883 -1.059069 -0.588098 -0.214780 -2.559317 -0.323377 0.271549 0.624414 1.201723 0.967824 -1.895731 -0.944314 0.175543 0.605546 -0.012827 0.545092 1.276227 -1.175440 0.267384 0.448679 -1.318177 -0.290126 0.324206 0.842389 -0.990550 -2.836328 -0.115230 1.280066 -2.498631 -0.262526 -2.476576 1.267255 -1.522027 -0.431189 0.696211 -1.210012 2.296642 0.132082 -1.378750 0.134193 0.694790 0.453582 0.876012 0.602910 -0.871577 -0.499898 1.286851 0.040682 -0.886506 -0.623684 0.347225 -1.361823 2.770682 -1.124922 0.808401 -1.504495 2.801972 0.500141 0.151626 -0.398901 -0.176140 -0.145328 -0.193545 0.463043 -1.224347 -1.711376 -1.072781 0.645152 0.243384 0.008705 0.131631 1.040011 -0.656786 0.451156 0.367893 -0.622054 -2.038254 0.782465 -1.124926 0.548232 0.335734 -1.232622 -1.394005 -0.188213 -0.220726 1.907467 -0.453115 -0.153166 -0.602392 -1.068216 -1.427865 -1.240662 -0.433924 0.879496 0.359253 1.175679 -1.130894 1.103927 0.188516 -0.750871 -1.357951 0.324908 -0.008389 1.305199 0.158929 -1.885303 -0.262886 -0.162070 -1.085540 -0.239130 0.312086 0.904635 -0.132763 -0.614877 -0.848348 1.682417 1.721798 -1.251866 0.018768 0.150799 0.848515 -0.222780 0.549752 1.233279 0.003149 0.861820 -0.732722 0.307992 -1.316478 0.419923 0.186637 -1.624246 1.198570 0.063564 -1.458880 1.446403 -0.597370 0.388375 0.956506 0.599417 -0.154221 -0.869728 -1.213434 -0.103661 -0.416391 -0.503818 -1.231488 0.639598 0.469828 1.863239 -0.078644 1.681206 -0.130267 0.728450 0.577931 0.272377 -2.138139 -0.018286 -0.147028 -0.301012 1.181540 0.072176 -0.533777 0.601241 -0.277101 -0.132151 -1.012257 0.691237 -0.389206 0.330843 1.093089 -0.682771 0.461670 -1.852145 -0.529962 0.273496 -1.743160 0.235197 0.787897 -0.236355 0.821267 -0.067071 1.714497 -0.314667 -1.010078 -2.070929 0.633671 1.649565 4.606178 0.216963 -0.776072 -0.517176 1.399551 -0.773668 -0.246523 0.271625 -1.541598 1.196133 -0.520801 0.565725 0.561311 0.306206 -1.133040 0.680647 1.168846 0.710952 0.474297 2.055111 -0.651598 -1.014306 -0.562914 0.238184 1.339883 -0.908254 0.223938 -1.124588 1.579751 0.448303 0.222361 -1.983559 -0.608353 0.276966 2.189960 1.335530 -1.207045 -0.419560 0.027450 2.242624 -1.670795 0.969712 0.732426 0.386015 -0.278525 0.717272 -1.622395 1.106656 2.098685 -1.673883 1.233695 0.993417 -1.490203 -0.086692 -0.924787 0.091700 0.526620 0.126955 0.315027 0.301265 1.935231 -0.738241 0.342239 -1.153541 -0.920370 0.743803 0.187577 0.072381 0.902642 0.029164 -0.414759 -0.171135 -0.093738 -0.961707 -0.886003 -0.726731 1.670558 -0.464328 -0.956116 -0.342866 0.585030 -1.167979 -0.932781 0.812512 0.407039 -0.582426 0.537279 1.326037 -0.507907 -1.031344 0.177209 1.529758 1.562478 -1.235187 0.221585 -0.365691 0.481032 1.052096 -0.193310 0.677465 0.512394 -0.298325 -0.736783 0.246169 -2.159357 -0.151052 1.210292 -0.128282 -0.016348 -0.565674 -0.107162 0.778113 0.369352 0.268731 -1.366959 1.371634 0.231355 -1.415013 0.692443 -1.842144 0.196790 2.285377 -0.144026 0.143149 1.038865 -1.305713 -1.477250 1.096402 2.037954 0.347076 -1.255642 -0.398744 0.745212 -0.368294 -1.108142 0.677192 0.273206 -1.427651 0.677577 0.592843 -1.091165 0.809603 2.844406 -1.058923 -0.600192 -0.163922 -0.061118 0.525775 1.622377 0.414315 -0.336724 -2.261517 0.256854 -0.715344 0.621952 1.740058 0.332741 -1.741447 -0.772433 1.192841 -0.090133 -0.382943 0.455529 -1.212707 0.754833 -1.683725 -0.316195 -0.223068 2.593986 1.015233 -0.740551 0.714504 -1.485758 0.504840 0.966048 -1.207677 -0.074715 -0.899876 -0.504739 0.493947 -0.556095 -1.802082 0.239481 -2.224855 1.423411 0.053750 1.458540 -1.774730 -0.300940 0.095758 -1.626376 -1.306175 -1.104377 0.437495 -1.382263 2.000523 0.878332 -0.787363 -0.154696 0.792176 -0.269031 0.347877 -1.453283 -0.972471 -0.023732 -1.683370 1.103160 -0.123013 1.370205 1.138751 -0.629681 -0.040273 0.032374 0.651133 -1.991130 0.680962 -0.332606 1.105513 -0.671181 -1.859926 0.481991 0.163288 -0.118121 1.391162 0.871181 -1.462426 -0.799037 1.879425 -0.370427 1.782335 1.219812 -0.544996 -2.342359 2.309012 0.779373 0.964522 0.623912 -0.125393 -1.324842 -0.084258 1.424089 -1.512726 -2.047879 0.163728 -0.027178 0.600163 1.154149 0.232803 -0.336394 -1.590662 1.317741 -0.042122 1.137715 0.768223 -0.162217 -1.304941 -0.716336 -2.762924 -0.639557 -0.944076 0.452617 -0.599168 -0.331660 0.156086 0.311173 1.053960 -0.777853 1.685857 0.386789 0.950113 -0.665765 -0.371971 1.392352 0.771799 0.443948 1.181693 -0.625319 1.306149 -0.578424 -0.381147 -0.262734 0.330279 0.906027 0.531667 -1.033681 1.842417 -1.713474 -0.365646 0.492452 -1.463173 -0.333219 -0.402585 0.447425 -1.146080 2.186608 0.954597 1.435574 -1.785571 -0.980827 0.180818 -0.278891 -0.521425 -1.271480 0.575425 1.229841 0.092521 -1.136328 0.177690 0.127539 -0.862596 0.769377 -0.325272 1.240769 -1.341933 -0.764882 0.450821 -0.669076 0.177632 0.002723 -1.580942 0.544792 1.813889 -0.242644 -0.044506 -2.141450 -1.339895 -0.338681 -0.696618 0.037866 -0.173364 -0.059510 0.240064 0.323272 0.400673 1.028982 -0.108761 -0.061354 1.500744 -2.021695 0.180914 -1.397858 -1.149537 -0.904624 -0.203885 -0.962770 -0.756959 1.011215 0.804730 -0.951377 0.316910 1.070819 1.431828 0.151935 -0.545973 -0.940748 -1.453821 -0.412728 0.195205 1.325731 -1.457864 0.689815 0.030744 0.851855 0.658481 0.367972 1.064518 0.700480 -0.994318 -0.490969 -0.389624 -0.417416 0.230182 -0.773768 0.982288 -0.045204 0.808541 -2.246312 0.025404 1.503079 -0.835186 -0.651489 1.118845 -0.727699 1.095532 -1.509991 -0.902321 0.861374 0.247649 0.130757 0.847225 0.687562 -0.041199 0.824882 -0.047448 -3.087868 2.318775 -0.953829 -0.157685 1.463091 1.756458 0.036617 -1.298502 -0.560323 -0.347443 -0.000338 1.228775 0.657469 -0.966959 0.420671 0.589566 0.464424 0.246139 -0.672718 -0.471999 -1.939792 0.845114 1.980928 1.152525 0.244956 -3.232466 -0.319930 -0.309242 -1.529132 0.887570 -1.270754 -0.838283 -0.358148 -0.150622 1.590845 -1.368843 2.121780 1.556100 -0.519365 0.756236 -0.132034 -1.541489 -1.175434 -0.369983 1.786362 0.862592 -0.850508 -0.097933 -0.542470 0.440210 0.143527 0.585410 1.055630 0.668455 -0.828910 -0.272999 -0.090583 2.074608 0.418487 -0.539116 -0.151381 1.518074 -0.441236 0.452413 -0.406789 1.193373 -1.530961 0.430316 -0.371576 0.358182 -0.543325 -2.672861 -0.255795 1.163149 0.455856 1.088986 -0.639306 0.699830 0.672638 -0.312170 -0.158958 -0.298904 -0.362554 -0.355234 0.418891 -0.421394 -1.791064 -0.395030 -0.333394 -1.958829 0.005636 -0.910505 -0.729937 -1.285547 -0.146114 0.704413 0.314554 -0.504347 0.584358 1.209934 -0.659042 -0.399755 -0.221479 -0.282557 -1.881597 0.064085 -0.810378 0.756959 0.473792 0.395762 0.522366 0.488763 -1.044857 -0.671420 -2.909953 1.537758 0.637811 0.116727 1.072619 0.244990 0.571877 -0.178221 -0.146431 1.364501 -0.212618 0.533553 -0.303674 -1.646287 -0.979632 1.445843 -0.778393 0.037918 0.795201 -0.110937 2.356060 0.192080 -0.417766 -0.842383 -0.731157 -0.612479 0.698543 -0.536001 0.377553 0.350351 0.439953 0.516094 0.419350 -1.188709 1.422854 0.808969 0.450088 0.405116 1.169242 -0.508610 0.476931 0.360446 0.942711 -0.235333 -1.695623 -0.281160 -0.280906 1.848247 -1.854943 -0.493713 -0.111927 -1.709121 1.092856 -0.203461 0.497355 0.424391 1.055215 0.319521 0.295841 -0.413973 -0.254388 -1.100961 1.342760 -0.780228 -0.613867 -0.289369 0.601109 -0.302544 -1.007339 1.634000 1.076487 0.639575 -0.078915 -1.349209 0.760905 0.335701 0.013763 1.477130 -1.325814 0.065318 0.961806 0.620998 -0.267466 1.265788 2.478374 0.996819 -0.645741 -0.035018 2.367333 -1.588622 -0.462915 0.469945 0.113625 1.537122 0.315976 -1.747589 0.595909 0.334859 0.160841 -1.558334 1.883037 0.576503 0.325000 0.520970 1.363022 -0.440485 -1.040479 -2.184816 -0.107511 1.008909 -1.169321 1.508086 1.246240 1.106346 -0.322486 -1.493974 -0.842701 -0.936994 -0.377459 -0.566407 0.911252 -0.008924 1.000332 -0.438388 0.692778 -0.945048 -0.044569 0.585280 0.915687 0.589512 -1.708587 -0.891505 0.300258 0.714300 -1.969262 0.050086 0.818785 1.233466 -1.314969 -0.643090 0.541722 -1.314399 -1.079473 -0.082634 -0.283816 1.211501 0.060247 -1.948445 0.465788 -0.468099 0.301336 0.790972 0.384042 -0.329399 -0.104332 0.127422 -1.353111 -0.317672 -0.363928 -0.489881 1.064969 -1.578204 -0.137958 0.042562 0.709529 -0.242596 -1.031425 0.155245 -0.707968 0.132398 0.088461 -0.793428 1.039117 -0.833389 -1.257341 -1.537247 -1.237532 -0.290215 0.928944 0.472152 0.450926 1.340881 -0.997960 0.321330 1.004201 0.443166 -0.608478 0.996177 1.530977 -0.410550 -0.114541 -2.113169 0.031815 -0.252947 0.925153 0.544115 1.864518 0.099985 0.461903 1.407066 -0.481843 0.330010 2.354873 -0.097780 -0.730567 1.189997 -1.293662 0.649977 0.314166 1.623270 -0.378766 -0.265377 -0.583677 0.401340 0.153368 -0.010659 -0.079260 -0.796212 -0.510822 1.230718 0.761606 0.543026 -1.014664 0.264694 0.277272 1.567364 -0.489348 -1.076701 -0.594649 0.318404 -0.661016 -1.327620 0.554860 0.316643 0.895665 0.776844 1.502453 -2.496862 0.715727 2.042003 -1.190768 1.387795 -1.299102 0.006929 -0.615418 -1.369095 2.221207 0.415798 -0.530441 -0.009721 -1.416371 0.742029 1.049686 -0.999996 -1.380842 -0.227768 -0.893907 1.553443 -0.593697 1.173084 -1.300911 0.706879 -0.812415 0.814953 0.503146 1.714015 -0.275645 -0.731857 0.509167 -0.354752 -1.168631 -0.157376 -0.331736 0.414530 -1.314393 0.002833 0.154782 2.295902 -1.418590 0.653385 -0.864658 -0.657692 1.787931 0.228110 -1.367035 -0.781228 2.523105 0.259182 0.821337 0.834447 -0.764090 -0.383106 -1.050474 -0.824900 -0.065058 1.083264 -0.024029 -0.651529 1.391846 -2.609007 1.300918 0.042761 0.477148 -0.420086 -0.370288 0.789194 0.554291 -1.145430 0.167987 0.008800 0.681522 -0.373449 2.048465 -2.243199 0.084254 -1.308950 0.439462 0.898545 -1.199417 0.081200 0.960550 -1.606505 -0.113947 0.593375 1.066483 -0.906543 -1.361202 0.074209 0.715073 -1.213767 -0.065026 0.712713 1.195404 2.379167 -1.197613 -0.434934 1.441662 -2.230026 -0.873852 1.404936 -0.102828 -0.868528 -1.250623 0.239615 0.173950 0.626533 -1.040260 0.803725 -0.200633 0.639957 -0.958245 -1.400768 -0.175888 -1.107065 0.526762 -0.510203 0.321993 0.413450 -0.411516 0.715719 0.529518 -1.200645 -0.791889 -0.671101 0.156258 -0.112787 1.331832 -1.994078 1.070110 0.144639 -0.707261 -1.955778 0.013932 1.372065 -0.117459 -0.861428 -1.003510 -0.585230 -0.433210 -2.038163 -1.553160 0.186969 0.582375 1.848251 -0.837741 -0.917210 -0.261183 0.504720 -1.380763 0.250630 -0.018226 1.391227 -0.497392 -0.844409 0.496403 0.279822 0.027026 0.686025 2.657201 0.385062 0.459351 0.749155 0.690494 -0.294890 -0.350975 -1.098628 0.581404 0.165897 0.077937 -1.332062 0.737675 -0.174164 -0.962966 -0.678107 1.710761 -0.500466 0.381026 1.964415 -1.521347 -0.118940 -0.763380 0.093647 0.620137 0.057764 1.688412 -0.242208 -0.712161 -0.118485 -0.168090 0.480806 0.789027 -0.336237 -0.105553 -0.703706 1.178132 0.789795 -0.332279 2.131333 0.735892 -0.135245 1.678770 -1.053394 0.886916 1.247539 -0.062677 0.833886 2.061488 1.606429 -0.177900 -0.660961 -0.180417 -0.296072 -0.532783 -0.597986 1.725744 1.130606 0.950702 1.869298 -0.622052 -2.412079 -0.107660 1.071476 -0.531583 1.599966 -1.031059 -1.084128 -0.400594 -1.007202 -0.022873 0.323061 -0.031576 1.580418 -0.333812 0.168923 0.428211 -1.215321 -0.090991 -0.314657 0.298097 0.883042 0.567144 -0.056617 -1.286659 0.051700 -2.268007 1.172724 -2.526304 0.267195 0.218528 1.563864 -0.145896 -0.639223 -1.626324 0.459193 -0.800607 -0.064720 0.494362 0.293679 -1.158717 -0.527662 -0.967842 -0.743376 2.222465 0.509141 1.106175 -1.205108 0.281319 0.478155 0.860663 0.474003 0.199411 -0.610452 -0.271426 -0.147644 -0.101700 -0.965262 -0.757138 0.152056 -0.003122 0.712826 -0.949322 -1.274334 -0.000952 0.609689 1.006735 0.587027 1.275427 -0.361440 -0.786155 0.419361 0.152514 -0.155560 -0.295906 -1.760665 -0.375761 -1.848325 -0.609642 0.207766 0.626231 1.199440 0.191957 0.468419 0.661978 -1.010736 -0.661078 -0.662885 -1.519959 -1.295463 -1.870209 0.145663 -0.021006 1.422188 -1.867361 -0.306933 0.002292 -1.680815 -2.066057 -0.931845 -0.212758 -0.431400 -1.202374 0.183647 0.226768 -1.346389 -0.843247 0.121004 -2.440512 -1.897698 0.788688 -0.478911 -0.487362 -1.024444 1.780341 -1.753467 -1.291582 0.753408 0.217485 1.413902 0.149712 -1.975193 -0.270344 0.449547 0.145495 -0.171818 -1.047640 0.121432 0.800834 1.267589 -0.540561 -0.285116 -0.848346 -0.669700 0.100309 -0.981103 -0.096056 -0.157648 0.612336 0.551421 0.427068 0.459780 -0.387519 0.487379 -1.243783 -1.018885 -0.069908 0.426287 0.916101 -0.913194 1.100486 0.208445 0.131352 0.187412 0.775496 1.984649 0.504914 0.469490 0.638670 -2.527927 0.608027 -2.120103 0.424076 1.540806 -0.777566 -0.202035 0.882556 1.554355 -0.320869 -1.078915 0.921999 -0.368126 0.270793 0.175897 1.645726 -0.290493 -0.101395 0.965904 -0.866432 -1.455118 1.940711 1.078878 1.396302 -0.415022 0.125607 0.415368 -1.349220 -0.243627 -1.176273 0.330381 1.597752 0.236041 -1.775030 1.398234 1.076990 0.648375 0.375357 1.062830 0.825988 1.332558 0.316610 0.437576 -1.188052 -0.838370 0.827251 1.013188 0.517846 -0.297840 -2.210663 0.268414 0.827296 -0.487464 -0.480089 1.127649 0.845512 -0.075467 0.172431 -0.405931 -0.326644 -1.155887 1.312462 2.241674 -0.888775 1.993259 0.226147 1.134597 -0.564960 -1.256442 -0.848614 0.513856 -2.257299 0.662721 -1.140278 -1.494357 1.369382 0.089225 0.101513 -1.389135 2.876149 -0.948875 -0.809611 0.457597 -1.303645 1.275667 0.682018 -0.336472 0.024520 -0.770757 -0.296409 -0.309651 1.075692 -0.860075 -1.456909 0.660204 -0.328178 0.466736 -0.454167 -1.812085 1.133103 1.327793 0.082054 0.192898 -0.489735 -0.875137 0.101337 -1.637110 -2.036312 -0.153892 0.356862 0.878852 -1.633037 -0.056489 -0.528495 1.029657 -0.138373 0.508142 1.890656 -0.217445 0.828857 -0.663086 -0.417948 -1.055873 0.443897 0.115344 0.601472 0.451002 -0.214308 0.096395 0.976025 0.625259 -0.384347 1.195742 1.601802 0.343636 0.418153 1.276161 0.232510 1.673305 0.389271 -0.423880 -0.971086 0.042910 -0.804086 -0.781960 0.836600 0.502903 0.346345 -0.297532 2.328463 0.233614 0.925500 -0.695886 -0.454948 -1.096234 -0.237629 1.177834 -0.900150 0.136026 -0.407852 -0.188519 -0.762465 -0.649614 -1.268637 -1.096750 -0.961224 0.746308 -1.128159 0.801534 0.710022 0.594182 -1.676518 0.475642 -1.194500 -0.319659 -1.207318 0.527031 -0.472135 -0.373939 -0.841639 0.312015 -2.879471 -1.288258 -0.325582 -0.605614 0.850770 -0.223092 0.077694 -0.390053 -0.174055 1.532780 -1.462082 -2.628389 -1.056226 0.480931 0.016779 0.557635 -0.213090 0.136536 -1.999762 -0.495187 -1.210832 -0.532297 0.035300 -0.973881 0.147972 -0.517252 -1.008265 -0.552624 0.959347 -0.271203 0.406136 -1.211192 0.046142 0.823259 0.434267 -1.969793 0.184543 -0.709046 -0.666545 0.902723 0.500551 -0.393359 0.597840 -0.209128 0.759378 -1.109021 1.451171 1.693495 -0.542059 -0.156224 -0.673612 -1.201799 -1.725217 0.733956 -0.533447 -1.441614 -0.927586 -0.516883 -1.876995 0.102667 -0.099568 -0.256674 -0.292147 -0.148032 0.796772 -0.224943 -0.906599 0.218196 -0.026822 0.589855 -0.453828 -0.303210 0.643442 0.374996 0.275832 0.224492 0.920603 -1.623172 -1.131325 0.727482 0.209589 1.440444 -0.561458 0.595095 0.680984 1.226021 -0.546612 0.338712 0.953424 1.284885 0.062533 -0.568942 -0.221437 0.610386 1.765432 0.356743 1.802382 2.208218 0.961509 -0.496585 0.657928 1.220010 -0.196439 -0.343611 -0.987584 -0.717122 0.190586 -0.753176 0.997821 -0.123160 -0.058596 1.683957 -1.854012 -0.360665 0.506441 0.836081 1.246068 1.517225 1.358090 0.514869 1.379205 -1.057708 0.754816 -0.412354 0.179033 -1.497070 -1.904606 -1.234036 -1.778347 -1.472533 -1.195504 0.431071 -0.542890 0.390988 -0.987065 -0.502799 2.024747 0.465182 -0.480515 -1.729228 -1.142438 0.689147 0.830903 1.171364 -2.171458 -1.260242 0.147791 1.419812 -0.773208 0.087033 0.918781 -1.608973 1.296088 0.987051 0.590256 -0.303338 0.561929 -0.169598 -0.962460 0.803578 1.249862 -0.088012 -3.014951 -1.111055 -0.007015 1.068006 -0.316805 -0.991617 1.845533 -0.902462 1.052427 1.677513 -0.485475 -0.228027 -0.200609 -0.880822 -1.463075 -0.526214 -1.226824 -0.333622 1.162663 0.811088 1.485374 -1.760303 -0.862479 0.299019 -1.712565 -0.710933 0.689783 -2.041290 -1.334340 -0.850000 -1.293482 0.483307 0.792154 -0.253959 -0.835824 0.317567 -1.132171 1.413451 -0.728284 -1.379799 -0.174486 -1.052002 -0.009509 1.376224 -0.712220 1.218216 -1.386510 0.740993 1.341309 0.655478 -0.236392 2.148831 0.795634 0.687860 -0.915489 -0.462134 0.371370 -0.855535 -0.787804 -1.393761 -0.346093 -1.039268 -0.077140 -2.322581 -0.139433 1.333526 0.702964 -1.744192 -0.976263 1.002177 2.049319 1.160359 -0.597554 0.636141 1.377340 0.935832 -0.827170 0.204915 -0.675884 0.103428 -1.574561 -1.155965 2.187106 -1.793211 -1.192593 0.155971 -0.770350 -0.570130 0.145378 0.080997 0.029559 -1.583662 0.653323 -0.336000 1.865962 -0.254170 0.614104 -0.870527 -0.552580 1.187570 0.594740 0.243207 0.237194 -1.290841 -1.441693 -0.315280 0.317189 -0.102309 -1.794844 -0.369249 -0.170670 -1.732550 -1.965714 -0.720938 -0.027025 1.178408 -0.064149 -0.562906 -0.842503 -1.213718 -0.117171 -2.702008 -0.695874 -0.016076 -1.121419 -0.715606 1.117290 -0.639107 -1.123717 0.011148 -0.039808 -1.809805 -0.686681 0.953382 -0.291777 -1.056314 0.971684 -0.008958 -0.819769 -0.570739 1.857216 1.853922 -1.170494 0.250479 1.197508 -0.784530 1.706502 -0.466246 1.162910 0.786665 -0.264745 -1.403699 1.295155 -0.010852 -0.183820 -0.233610 1.406305 0.217580 -0.589074 -1.728370 1.171029 2.050039 -0.386231 0.605783 1.424336 -0.406616 -0.106923 -0.046359 0.664846 0.947747 1.220868 -0.508814 -0.136621 0.850282 -0.161305 -0.965269 1.520526 1.657701 1.830176 0.688846 0.151496 0.493421 -1.170390 -0.149131 -1.131423 -0.430937 0.271773 0.042788 0.200619 0.346492 -0.333964 1.450323 0.162780 0.849256 0.612167 -0.341017 1.445798 0.232806 -0.570083 0.485775 -2.060023 -0.663014 0.870651 0.302940 0.952544 0.707265 -1.469265 -1.444882 -0.241520 -1.160699 -0.470970 -0.682422 1.719894 0.475562 0.526947 -1.434132 0.771824 0.485387 -3.028248 0.820350 1.079917 0.457622 -0.290319 -0.718704 0.685809 0.369650 0.094321 0.087738 1.427959 0.227401 0.262361 -0.349404 -1.652671 1.883870 -0.501800 0.226943 0.231222 0.910807 -0.658258 1.132794 0.144481 -0.660928 -1.289400 -1.693867 0.204106 0.582424 0.157975 -0.509404 -0.165362 0.909439 0.666175 -0.317867 -0.940354 0.072739 0.689248 0.317172 -1.296065 -1.530320 0.528981 -0.571654 -0.573101 1.087329 -0.079121 0.802798 -0.053740 0.160907 0.254060 0.791717 -1.770267 1.789821 1.129925 1.484682 0.464479 -0.945128 1.227848 0.018120 -0.190091 0.609623 -1.341769 -0.099520 -0.101738 -0.109930 0.741963 -1.883900 -1.165081 0.728824 -1.294281 1.316473 0.792387 0.600934 0.711829 0.655692 -0.001916 -0.752169 0.123990 2.243977 -0.281133 -0.139190 0.191467 1.812886 -0.224875 -0.911022 -2.007849 0.016649 1.196425 -0.250082 0.614244 -0.878038 -1.135250 0.195711 0.733311 -0.426136 -0.475741 0.444971 1.927833 0.592180 -0.132986 0.225357 -1.288976 -0.201289 -1.109393 -0.288658 1.138526 -1.684609 0.592148 0.617204 -0.297952 0.725885 -0.339129 -0.165078 0.598150 0.271509 0.289214 -0.571976 0.473235 -0.360698 -1.090923 -0.737829 1.647183 0.947869 1.380422 -0.297932 0.940483 -0.625815 -0.435245 0.399181 0.727773 1.040955 -1.559875 -0.065729 0.217329 0.037456 -0.000317 -0.127097 -0.851970 -0.604238 0.310915 -0.552757 -1.226232 0.683659 1.173363 -0.005077 -0.646262 -0.213743 0.702765 1.863487 -2.628759 -0.917680 -2.123368 -2.501184 1.075067 -1.290410 0.497422 -1.090889 0.162286 1.307567 0.028556 -1.368283 -0.913214 -0.822669 0.752279 -0.582747 -0.435194 -0.176023 -0.822291 -0.457863 0.416756 -1.389169 -1.054361 -2.378017 1.301845 -0.850879 0.728650 -0.853063 1.029991 -0.619912 0.341195 -2.756071 -1.241655 0.389341 1.363029 -0.058485 1.640901 -0.801084 -0.917387 -1.227324 0.538259 -0.817189 0.478522 -0.561279 0.469251 0.507522 0.530191 -0.980875 0.120810 -0.041996 -0.994325 -0.868843 0.830529 -0.313017 1.286628 0.228041 0.357763 0.429084 0.300854 -1.283546 -1.756557 1.648838 0.838694 0.331874 1.973666 0.117252 1.214051 -0.507992 0.466694 -0.506662 0.765828 -0.361753 0.404968 1.113376 -0.651210 2.018702 -0.790717 0.229429 -0.514287 0.172165 0.855686 -0.415935 -0.232239 -1.546320 0.426365 -0.493534 -0.604408 -0.448363 1.084410 1.485939 0.297825 