15.15599126559810727599 10.06985906160234556239 10.06985906160234556239 12.61292516360022730737 12.61292516360022730737 12.61292516360022730737 15.15599126559810727599 10.06985906160234556239 12.61292516360022730737 15.15599126559810727599 10.06985906160234556239 7.52679295960446470559 10.06985906160234556239 12.61292516360022730737 10.06985906160234556239 12.61292516360022730737 10.06985906160234556239 12.61292516360022730737 2.44066075560870343608 4.98372685760658384879 7.52679295960446470559 10.06985906160234556239 12.61292516360022730737 7.52679295960446470559 7.52679295960446470559 4.98372685760658384879 -2.64547144838705738934 7.52679295960446470559 4.98372685760658384879 10.06985906160234556239 4.98372685760658384879 2.44066075560870343608 4.98372685760658384879 4.98372685760658384879 -0.10240534638917689336 -5.18853755038493780205 2.44066075560870343608 2.44066075560870343608 -0.10240534638917689336 4.98372685760658384879 -2.64547144838705738934 -0.10240534638917689336 -7.73160365238281954703 -5.18853755038493780205 -2.64547144838705738934 -2.64547144838705738934 -7.73160365238281954703 -7.73160365238281954703 -7.73160365238281954703 -5.18853755038493780205 -10.27466975438069773929 -7.73160365238281954703 -7.73160365238281954703 -7.73160365238281954703 -5.18853755038493780205 -5.18853755038493780205 -7.73160365238281954703 -10.27466975438069773929 -7.73160365238281954703 -5.18853755038493780205 -2.64547144838705738934 -2.64547144838705738934 -2.64547144838705738934 -2.64547144838705738934 -2.64547144838705738934 -2.64547144838705738934 -7.73160365238281954703 -2.64547144838705738934 -5.18853755038493780205 -2.64547144838705738934 -0.10240534638917689336 -5.18853755038493780205 -5.18853755038493780205 -7.73160365238281954703 -5.18853755038493780205 -7.73160365238281954703 -5.18853755038493780205 -2.64547144838705738934 -2.64547144838705738934 -0.10240534638917689336 -5.18853755038493780205 -2.64547144838705738934 -2.64547144838705738934 -7.73160365238281954703 -5.18853755038493780205 -5.18853755038493780205 -5.18853755038493780205 -0.10240534638917689336 -5.18853755038493780205 -7.73160365238281954703 -7.73160365238281954703 -7.73160365238281954703 -5.18853755038493780205 -2.64547144838705738934 -2.64547144838705738934 -2.64547144838705738934 -2.64547144838705738934 -5.18853755038493780205 -7.73160365238281954703 -5.18853755038493780205 -10.27466975438069773929 -2.64547144838705738934 -5.18853755038493780205 -0.10240534638917689336 -5.18853755038493780205 -7.73160365238281954703 -5.18853755038493780205 -7.73160365238281954703 -5.18853755038493780205 -7.73160365238281954703 -7.73160365238281954703 -5.18853755038493780205 -5.18853755038493780205 -0.10240534638917689336 -7.73160365238281954703 -10.27466975438069773929 -10.27466975438069773929 -7.73160365238281954703 -10.27466975438069773929 -10.27466975438069773929 -10.27466975438069773929 -10.27466975438069773929 -5.18853755038493780205 -12.81773585637857948427 -7.73160365238281954703 -10.27466975438069773929 -7.73160365238281954703 -17.90386806037433942151 -12.81773585637857948427 -5.18853755038493780205 -12.81773585637857948427 -15.36080195837645945289 -7.73160365238281954703 -10.27466975438069773929 -7.73160365238281954703 -12.81773585637857948427 -15.36080195837645945289 -17.90386806037433942151 -12.81773585637857948427 -12.81773585637857948427 -10.27466975438069773929 -7.73160365238281954703 -12.81773585637857948427 -10.27466975438069773929 -15.36080195837645945289 -17.90386806037433942151 -15.36080195837645945289 -17.90386806037433942151 -12.81773585637857948427 -12.81773585637857948427 -12.81773585637857948427 -15.36080195837645945289 -15.36080195837645945289 -15.36080195837645945289 -15.36080195837645945289 -15.36080195837645945289 -15.36080195837645945289 -15.36080195837645945289 -12.81773585637857948427 -12.81773585637857948427 -10.27466975438069773929 -12.81773585637857948427 -12.81773585637857948427 -10.27466975438069773929 -12.81773585637857948427 -10.27466975438069773929 -12.81773585637857948427 -15.36080195837645945289 -15.36080195837645945289 -10.27466975438069773929 -10.27466975438069773929 -10.27466975438069773929 -12.81773585637857948427 -12.81773585637857948427 -15.36080195837645945289 -15.36080195837645945289 -10.27466975438069773929 -12.81773585637857948427 -10.27466975438069773929 -10.27466975438069773929 -12.81773585637857948427 -10.27466975438069773929 -7.73160365238281954703 -7.73160365238281954703 -10.27466975438069773929 -7.73160365238281954703 -10.27466975438069773929 -10.27466975438069773929 -5.18853755038493780205 -7.73160365238281954703 -2.64547144838705738934 -7.73160365238281954703 -12.81773585637857948427 -5.18853755038493780205 -7.73160365238281954703 -0.10240534638917689336 2.44066075560870343608 -2.64547144838705738934 -0.10240534638917689336 -5.18853755038493780205 -5.18853755038493780205 -2.64547144838705738934 -5.18853755038493780205 -2.64547144838705738934 -0.10240534638917689336 -2.64547144838705738934 -2.64547144838705738934 -7.73160365238281954703 -2.64547144838705738934 -5.18853755038493780205 -7.73160365238281954703 -0.10240534638917689336 -0.10240534638917689336 -0.10240534638917689336 -0.10240534638917689336 -2.64547144838705738934 -2.64547144838705738934 -5.18853755038493780205 -5.18853755038493780205 -0.10240534638917689336 -5.18853755038493780205 -0.10240534638917689336 4.98372685760658384879 -0.10240534638917689336 2.44066075560870343608 -5.18853755038493780205 -0.10240534638917689336 -2.64547144838705738934 -2.64547144838705738934 2.44066075560870343608 -0.10240534638917689336 -0.10240534638917689336 2.44066075560870343608 -5.18853755038493780205 -2.64547144838705738934 2.44066075560870343608 -2.64547144838705738934 -5.18853755038493780205 -2.64547144838705738934 -2.64547144838705738934 -7.73160365238281954703 -0.10240534638917689336 -0.10240534638917689336 -2.64547144838705738934 -2.64547144838705738934 -0.10240534638917689336 -0.10240534638917689336 -5.18853755038493780205 -2.64547144838705738934 -5.18853755038493780205 -0.10240534638917689336 -2.64547144838705738934 -2.64547144838705738934 -5.18853755038493780205 -5.18853755038493780205 -2.64547144838705738934 -2.64547144838705738934 -2.64547144838705738934 -2.64547144838705738934 -2.64547144838705738934 -2.64547144838705738934 -5.18853755038493780205 -2.64547144838705738934 -7.73160365238281954703 -7.73160365238281954703 -2.64547144838705738934 -0.10240534638917689336 -0.10240534638917689336 -2.64547144838705738934 -2.64547144838705738934 -5.18853755038493780205 -2.64547144838705738934 -2.64547144838705738934 -2.64547144838705738934 -2.64547144838705738934 2.44066075560870343608 -0.10240534638917689336 -2.64547144838705738934 -0.10240534638917689336 -0.10240534638917689336 -2.64547144838705738934 -2.64547144838705738934 -5.18853755038493780205 -2.64547144838705738934 2.44066075560870343608 4.98372685760658384879 2.44066075560870343608 2.44066075560870343608 -0.10240534638917689336 -0.10240534638917689336 -0.10240534638917689336 -5.18853755038493780205 -7.73160365238281954703 -0.10240534638917689336 2.44066075560870343608 -0.10240534638917689336 2.44066075560870343608 2.44066075560870343608 2.44066075560870343608 2.44066075560870343608 -0.10240534638917689336 -0.10240534638917689336 -0.10240534638917689336 -0.10240534638917689336 -0.10240534638917689336 12.61292516360022730737 4.98372685760658384879 2.44066075560870343608 2.44066075560870343608 -0.10240534638917689336 -5.18853755038493780205 2.44066075560870343608 4.98372685760658384879 2.44066075560870343608 7.52679295960446470559 7.52679295960446470559 7.52679295960446470559 4.98372685760658384879 -0.10240534638917689336 -0.10240534638917689336 2.44066075560870343608 2.44066075560870343608 7.52679295960446470559 4.98372685760658384879 2.44066075560870343608 2.44066075560870343608 4.98372685760658384879 7.52679295960446470559 7.52679295960446470559 2.44066075560870343608 4.98372685760658384879 4.98372685760658384879 4.98372685760658384879 2.44066075560870343608 7.52679295960446470559 2.44066075560870343608 12.61292516360022730737 4.98372685760658384879 4.98372685760658384879 7.52679295960446470559 10.06985906160234556239 -0.10240534638917689336 2.44066075560870343608 7.52679295960446470559 10.06985906160234556239 4.98372685760658384879 10.06985906160234556239 7.52679295960446470559 7.52679295960446470559 10.06985906160234556239 10.06985906160234556239 7.52679295960446470559 12.61292516360022730737 4.98372685760658384879 10.06985906160234556239 7.52679295960446470559 10.06985906160234556239 7.52679295960446470559 4.98372685760658384879 12.61292516360022730737 7.52679295960446470559 7.52679295960446470559 4.98372685760658384879 4.98372685760658384879 7.52679295960446470559 7.52679295960446470559 12.61292516360022730737 10.06985906160234556239 10.06985906160234556239 10.06985906160234556239 4.98372685760658384879 7.52679295960446470559 4.98372685760658384879 10.06985906160234556239 15.15599126559810727599 7.52679295960446470559 10.06985906160234556239 10.06985906160234556239 17.69905736759598724461 7.52679295960446470559 7.52679295960446470559 2.44066075560870343608 4.98372685760658384879 12.61292516360022730737 10.06985906160234556239 10.06985906160234556239 10.06985906160234556239 7.52679295960446470559 10.06985906160234556239 4.98372685760658384879 10.06985906160234556239 10.06985906160234556239 7.52679295960446470559 10.06985906160234556239 12.61292516360022730737 7.52679295960446470559 12.61292516360022730737 12.61292516360022730737 12.61292516360022730737 12.61292516360022730737 10.06985906160234556239 10.06985906160234556239 10.06985906160234556239 10.06985906160234556239 12.61292516360022730737 10.06985906160234556239 10.06985906160234556239 7.52679295960446470559 10.06985906160234556239 12.61292516360022730737 10.06985906160234556239 12.61292516360022730737 7.52679295960446470559 7.52679295960446470559 7.52679295960446470559 4.98372685760658384879 10.06985906160234556239 12.61292516360022730737 10.06985906160234556239 15.15599126559810727599 10.06985906160234556239 10.06985906160234556239 10.06985906160234556239 10.06985906160234556239 12.61292516360022730737 12.61292516360022730737 15.15599126559810727599 7.52679295960446470559 7.52679295960446470559 7.52679295960446470559 7.52679295960446470559 7.52679295960446470559 2.44066075560870343608 4.98372685760658384879 4.98372685760658384879 -0.10240534638917689336 12.61292516360022730737 10.06985906160234556239 12.61292516360022730737 4.98372685760658384879 7.52679295960446470559 2.44066075560870343608 -0.10240534638917689336 7.52679295960446470559 4.98372685760658384879 2.44066075560870343608 4.98372685760658384879 4.98372685760658384879 2.44066075560870343608 7.52679295960446470559 7.52679295960446470559 12.61292516360022730737 10.06985906160234556239 4.98372685760658384879 2.44066075560870343608 4.98372685760658384879 12.61292516360022730737 7.52679295960446470559 4.98372685760658384879 2.44066075560870343608 2.44066075560870343608 -0.10240534638917689336 12.61292516360022730737 10.06985906160234556239 4.98372685760658384879 7.52679295960446470559 2.44066075560870343608 2.44066075560870343608 -0.10240534638917689336 -2.64547144838705738934 2.44066075560870343608 -5.18853755038493780205 -0.10240534638917689336 2.44066075560870343608 2.44066075560870343608 7.52679295960446470559 4.98372685760658384879 4.98372685760658384879 4.98372685760658384879 -0.10240534638917689336 2.44066075560870343608 -0.10240534638917689336 2.44066075560870343608 2.44066075560870343608 7.52679295960446470559 7.52679295960446470559 2.44066075560870343608 2.44066075560870343608 -0.10240534638917689336 4.98372685760658384879 7.52679295960446470559 7.52679295960446470559 2.44066075560870343608 4.98372685760658384879 2.44066075560870343608 -0.10240534638917689336 -2.64547144838705738934 4.98372685760658384879 2.44066075560870343608 2.44066075560870343608 -0.10240534638917689336 -0.10240534638917689336 2.44066075560870343608 -0.10240534638917689336 -0.10240534638917689336 4.98372685760658384879 -0.10240534638917689336 4.98372685760658384879 -0.10240534638917689336 -2.64547144838705738934 2.44066075560870343608 2.44066075560870343608 4.98372685760658384879 4.98372685760658384879 4.98372685760658384879 7.52679295960446470559 4.98372685760658384879 4.98372685760658384879 -0.10240534638917689336 7.52679295960446470559 10.06985906160234556239 7.52679295960446470559 2.44066075560870343608 4.98372685760658384879 -2.64547144838705738934 -2.64547144838705738934 -0.10240534638917689336 2.44066075560870343608 2.44066075560870343608 4.98372685760658384879 10.06985906160234556239 4.98372685760658384879 2.44066075560870343608 -5.18853755038493780205 -5.18853755038493780205 -5.18853755038493780205 -2.64547144838705738934 2.44066075560870343608 -0.10240534638917689336 -5.18853755038493780205 -5.18853755038493780205 -0.10240534638917689336 2.44066075560870343608 2.44066075560870343608 4.98372685760658384879 -2.64547144838705738934 -0.10240534638917689336 -5.18853755038493780205 -2.64547144838705738934 -7.73160365238281954703 -2.64547144838705738934 -2.64547144838705738934 -0.10240534638917689336 -2.64547144838705738934 -2.64547144838705738934 -0.10240534638917689336 -0.10240534638917689336 -2.64547144838705738934 -5.18853755038493780205 -0.10240534638917689336 4.98372685760658384879 -0.10240534638917689336 -2.64547144838705738934 7.52679295960446470559 2.44066075560870343608 -5.18853755038493780205 -0.10240534638917689336 -0.10240534638917689336 2.44066075560870343608 4.98372685760658384879 2.44066075560870343608 -0.10240534638917689336 -0.10240534638917689336 -0.10240534638917689336 -0.10240534638917689336 2.44066075560870343608 2.44066075560870343608 -2.64547144838705738934 -0.10240534638917689336 2.44066075560870343608 2.44066075560870343608 4.98372685760658384879 -5.18853755038493780205 2.44066075560870343608 4.98372685760658384879 4.98372685760658384879 2.44066075560870343608 4.98372685760658384879 -0.10240534638917689336 -5.18853755038493780205 -2.64547144838705738934 -2.64547144838705738934 2.44066075560870343608 -2.64547144838705738934 -2.64547144838705738934 -2.64547144838705738934 -0.10240534638917689336 -2.64547144838705738934 -0.10240534638917689336 2.44066075560870343608 -0.10240534638917689336 2.44066075560870343608 2.44066075560870343608 4.98372685760658384879 -2.64547144838705738934 4.98372685760658384879 2.44066075560870343608 -0.10240534638917689336 2.44066075560870343608 -0.10240534638917689336 -0.10240534638917689336 2.44066075560870343608 -2.64547144838705738934 -5.18853755038493780205 -5.18853755038493780205 4.98372685760658384879 4.98372685760658384879 -0.10240534638917689336 7.52679295960446470559 2.44066075560870343608 -0.10240534638917689336 -2.64547144838705738934 -0.10240534638917689336 -0.10240534638917689336 2.44066075560870343608 -0.10240534638917689336 2.44066075560870343608 -0.10240534638917689336 -0.10240534638917689336 -7.73160365238281954703 -0.10240534638917689336 2.44066075560870343608 4.98372685760658384879 4.98372685760658384879 4.98372685760658384879 -0.10240534638917689336 -0.10240534638917689336 -2.64547144838705738934 2.44066075560870343608 -0.10240534638917689336 4.98372685760658384879 4.98372685760658384879 -0.10240534638917689336 -2.64547144838705738934 -2.64547144838705738934 -0.10240534638917689336 -0.10240534638917689336 -0.10240534638917689336 2.44066075560870343608 -2.64547144838705738934 2.44066075560870343608 -0.10240534638917689336 -5.18853755038493780205 -0.10240534638917689336 -0.10240534638917689336 2.44066075560870343608 7.52679295960446470559 -0.10240534638917689336 7.52679295960446470559 2.44066075560870343608 4.98372685760658384879 2.44066075560870343608 7.52679295960446470559 4.98372685760658384879 7.52679295960446470559 2.44066075560870343608 4.98372685760658384879 4.98372685760658384879 -0.10240534638917689336 7.52679295960446470559 12.61292516360022730737 12.61292516360022730737 10.06985906160234556239 12.61292516360022730737 10.06985906160234556239 4.98372685760658384879 7.52679295960446470559 4.98372685760658384879 12.61292516360022730737 7.52679295960446470559 7.52679295960446470559 2.44066075560870343608 10.06985906160234556239 7.52679295960446470559 10.06985906160234556239 12.61292516360022730737 10.06985906160234556239 4.98372685760658384879 12.61292516360022730737 7.52679295960446470559 7.52679295960446470559 12.61292516360022730737 7.52679295960446470559 7.52679295960446470559 10.06985906160234556239 7.52679295960446470559 7.52679295960446470559 2.44066075560870343608 7.52679295960446470559 7.52679295960446470559 7.52679295960446470559 12.61292516360022730737 7.52679295960446470559 7.52679295960446470559 7.52679295960446470559 7.52679295960446470559 10.06985906160234556239 10.06985906160234556239 7.52679295960446470559 4.98372685760658384879 2.44066075560870343608 2.44066075560870343608 7.52679295960446470559 10.06985906160234556239 7.52679295960446470559 7.52679295960446470559 2.44066075560870343608 4.98372685760658384879 7.52679295960446470559 7.52679295960446470559 10.06985906160234556239 7.52679295960446470559 4.98372685760658384879 4.98372685760658384879 4.98372685760658384879 -0.10240534638917689336 7.52679295960446470559 7.52679295960446470559 7.52679295960446470559 7.52679295960446470559 -0.10240534638917689336 4.98372685760658384879 7.52679295960446470559 7.52679295960446470559 7.52679295960446470559 10.06985906160234556239 4.98372685760658384879 2.44066075560870343608 4.98372685760658384879 -2.64547144838705738934 -0.10240534638917689336 2.44066075560870343608 4.98372685760658384879 2.44066075560870343608 2.44066075560870343608 -0.10240534638917689336 -2.64547144838705738934 2.44066075560870343608 -2.64547144838705738934 2.44066075560870343608 -0.10240534638917689336 4.98372685760658384879 2.44066075560870343608 -0.10240534638917689336 -2.64547144838705738934 2.44066075560870343608 -0.10240534638917689336 -2.64547144838705738934 -0.10240534638917689336 2.44066075560870343608 -5.18853755038493780205 -5.18853755038493780205 -7.73160365238281954703 -0.10240534638917689336 -2.64547144838705738934 -0.10240534638917689336 -0.10240534638917689336 -0.10240534638917689336 -5.18853755038493780205 -7.73160365238281954703 -2.64547144838705738934 4.98372685760658384879 -2.64547144838705738934 -0.10240534638917689336 -2.64547144838705738934 -0.10240534638917689336 -7.73160365238281954703 -0.10240534638917689336 -5.18853755038493780205 -2.64547144838705738934 -2.64547144838705738934 -2.64547144838705738934 -5.18853755038493780205 -2.64547144838705738934 -2.64547144838705738934 -5.18853755038493780205 -2.64547144838705738934 -0.10240534638917689336 -0.10240534638917689336 7.52679295960446470559 2.44066075560870343608 2.44066075560870343608 -0.10240534638917689336 -5.18853755038493780205 -2.64547144838705738934 2.44066075560870343608 -0.10240534638917689336 2.44066075560870343608 -0.10240534638917689336 -0.10240534638917689336 4.98372685760658384879 4.98372685760658384879 2.44066075560870343608 7.52679295960446470559 4.98372685760658384879 2.44066075560870343608 -0.10240534638917689336 7.52679295960446470559 2.44066075560870343608 4.98372685760658384879 2.44066075560870343608 -0.10240534638917689336 -2.64547144838705738934 -0.10240534638917689336 4.98372685760658384879 2.44066075560870343608 -2.64547144838705738934 -2.64547144838705738934 -2.64547144838705738934 -5.18853755038493780205 -0.10240534638917689336 4.98372685760658384879 7.52679295960446470559 2.44066075560870343608 7.52679295960446470559 4.98372685760658384879 -0.10240534638917689336 -2.64547144838705738934 -0.10240534638917689336 -7.73160365238281954703 2.44066075560870343608 -0.10240534638917689336 4.98372685760658384879 7.52679295960446470559 -0.10240534638917689336 -2.64547144838705738934 -2.64547144838705738934 -5.18853755038493780205 -5.18853755038493780205 -2.64547144838705738934 4.98372685760658384879 2.44066075560870343608 4.98372685760658384879 -0.10240534638917689336 2.44066075560870343608 -0.10240534638917689336 -2.64547144838705738934 4.98372685760658384879 -2.64547144838705738934 4.98372685760658384879 -2.64547144838705738934 4.98372685760658384879 -2.64547144838705738934 -0.10240534638917689336 -0.10240534638917689336 4.98372685760658384879 10.06985906160234556239 7.52679295960446470559 4.98372685760658384879 2.44066075560870343608 -0.10240534638917689336 2.44066075560870343608 4.98372685760658384879 -2.64547144838705738934 -2.64547144838705738934 7.52679295960446470559 2.44066075560870343608 2.44066075560870343608 7.52679295960446470559 2.44066075560870343608 -0.10240534638917689336 7.52679295960446470559 4.98372685760658384879 4.98372685760658384879 10.06985906160234556239 12.61292516360022730737 2.44066075560870343608 12.61292516360022730737 10.06985906160234556239 4.98372685760658384879 10.06985906160234556239 4.98372685760658384879 7.52679295960446470559 7.52679295960446470559 7.52679295960446470559 10.06985906160234556239 10.06985906160234556239 10.06985906160234556239 2.44066075560870343608 2.44066075560870343608 2.44066075560870343608 10.06985906160234556239 12.61292516360022730737 10.06985906160234556239 12.61292516360022730737 7.52679295960446470559 7.52679295960446470559 4.98372685760658384879 12.61292516360022730737 4.98372685760658384879 15.15599126559810727599 15.15599126559810727599 10.06985906160234556239 15.15599126559810727599 17.69905736759598724461 15.15599126559810727599 7.52679295960446470559 15.15599126559810727599 15.15599126559810727599 15.15599126559810727599 20.24212346959386721323 20.24212346959386721323 17.69905736759598724461 20.24212346959386721323 12.61292516360022730737 10.06985906160234556239 15.15599126559810727599 10.06985906160234556239 12.61292516360022730737 15.15599126559810727599 15.15599126559810727599 12.61292516360022730737 10.06985906160234556239 7.52679295960446470559 7.52679295960446470559 10.06985906160234556239 12.61292516360022730737 17.69905736759598724461 17.69905736759598724461 15.15599126559810727599 15.15599126559810727599 10.06985906160234556239 7.52679295960446470559 12.61292516360022730737 12.61292516360022730737 15.15599126559810727599 15.15599126559810727599 10.06985906160234556239 10.06985906160234556239 12.61292516360022730737 10.06985906160234556239 4.98372685760658384879 15.15599126559810727599 15.15599126559810727599 15.15599126559810727599 10.06985906160234556239 10.06985906160234556239 12.61292516360022730737 4.98372685760658384879 4.98372685760658384879 7.52679295960446470559 12.61292516360022730737 15.15599126559810727599 4.98372685760658384879 10.06985906160234556239 7.52679295960446470559 7.52679295960446470559 4.98372685760658384879 7.52679295960446470559 10.06985906160234556239 15.15599126559810727599 12.61292516360022730737 12.61292516360022730737 10.06985906160234556239 12.61292516360022730737 4.98372685760658384879 12.61292516360022730737 12.61292516360022730737 15.15599126559810727599 22.78518957159175073457 12.61292516360022730737 10.06985906160234556239 10.06985906160234556239 12.61292516360022730737 12.61292516360022730737 17.69905736759598724461 15.15599126559810727599 17.69905736759598724461 17.69905736759598724461 10.06985906160234556239 15.15599126559810727599 12.61292516360022730737 12.61292516360022730737 10.06985906160234556239 17.69905736759598724461 15.15599126559810727599 12.61292516360022730737 12.61292516360022730737 12.61292516360022730737 10.06985906160234556239 17.69905736759598724461 15.15599126559810727599 12.61292516360022730737 17.69905736759598724461 15.15599126559810727599 15.15599126559810727599 4.98372685760658384879 10.06985906160234556239 12.61292516360022730737 15.15599126559810727599 17.69905736759598724461 12.61292516360022730737 17.69905736759598724461 4.98372685760658384879 17.69905736759598724461 15.15599126559810727599 15.15599126559810727599 15.15599126559810727599 17.69905736759598724461 15.15599126559810727599 12.61292516360022730737 15.15599126559810727599 10.06985906160234556239 10.06985906160234556239 10.06985906160234556239 12.61292516360022730737 15.15599126559810727599 4.98372685760658384879 10.06985906160234556239 10.06985906160234556239 10.06985906160234556239 4.98372685760658384879 10.06985906160234556239 10.06985906160234556239 10.06985906160234556239 12.61292516360022730737 7.52679295960446470559 10.06985906160234556239 7.52679295960446470559 4.98372685760658384879 2.44066075560870343608 -0.10240534638917689336 4.98372685760658384879 2.44066075560870343608 7.52679295960446470559 7.52679295960446470559 12.61292516360022730737 10.06985906160234556239 7.52679295960446470559 7.52679295960446470559 -0.10240534638917689336 7.52679295960446470559 7.52679295960446470559 17.69905736759598724461 12.61292516360022730737 10.06985906160234556239 10.06985906160234556239 7.52679295960446470559 2.44066075560870343608 4.98372685760658384879 7.52679295960446470559 12.61292516360022730737 10.06985906160234556239 15.15599126559810727599 4.98372685760658384879 10.06985906160234556239 10.06985906160234556239 4.98372685760658384879 10.06985906160234556239 12.61292516360022730737 10.06985906160234556239 12.61292516360022730737 10.06985906160234556239 10.06985906160234556239 2.44066075560870343608 7.52679295960446470559 7.52679295960446470559 10.06985906160234556239 10.06985906160234556239 10.06985906160234556239 10.06985906160234556239 7.52679295960446470559 7.52679295960446470559 4.98372685760658384879 4.98372685760658384879 10.06985906160234556239 10.06985906160234556239 10.06985906160234556239 17.69905736759598724461 4.98372685760658384879 10.06985906160234556239 4.98372685760658384879 7.52679295960446470559 4.98372685760658384879 7.52679295960446470559 10.06985906160234556239 4.98372685760658384879 7.52679295960446470559 2.44066075560870343608 4.98372685760658384879 4.98372685760658384879 4.98372685760658384879 7.52679295960446470559 10.06985906160234556239 4.98372685760658384879 10.06985906160234556239 4.98372685760658384879 7.52679295960446470559 2.44066075560870343608 4.98372685760658384879 4.98372685760658384879 7.52679295960446470559 10.06985906160234556239 7.52679295960446470559 4.98372685760658384879 7.52679295960446470559 2.44066075560870343608 10.06985906160234556239 7.52679295960446470559 15.15599126559810727599 10.06985906160234556239 7.52679295960446470559 7.52679295960446470559 10.06985906160234556239 4.98372685760658384879 2.44066075560870343608 7.52679295960446470559 10.06985906160234556239 4.98372685760658384879 7.52679295960446470559 2.44066075560870343608 10.06985906160234556239 10.06985906160234556239 4.98372685760658384879 7.52679295960446470559 10.06985906160234556239 4.98372685760658384879 4.98372685760658384879 7.52679295960446470559 10.06985906160234556239 15.15599126559810727599 7.52679295960446470559 10.06985906160234556239 4.98372685760658384879 7.52679295960446470559 4.98372685760658384879 12.61292516360022730737 2.44066075560870343608 7.52679295960446470559 7.52679295960446470559 2.44066075560870343608 4.98372685760658384879 12.61292516360022730737 7.52679295960446470559 15.15599126559810727599 7.52679295960446470559 4.98372685760658384879 4.98372685760658384879 4.98372685760658384879 4.98372685760658384879 7.52679295960446470559 10.06985906160234556239 7.52679295960446470559 10.06985906160234556239 10.06985906160234556239 12.61292516360022730737 15.15599126559810727599 15.15599126559810727599 2.44066075560870343608 2.44066075560870343608 4.98372685760658384879 2.44066075560870343608 7.52679295960446470559 7.52679295960446470559 7.52679295960446470559 4.98372685760658384879 2.44066075560870343608 7.52679295960446470559 -0.10240534638917689336 7.52679295960446470559 4.98372685760658384879 7.52679295960446470559 4.98372685760658384879 2.44066075560870343608 2.44066075560870343608 4.98372685760658384879 7.52679295960446470559 4.98372685760658384879 7.52679295960446470559 10.06985906160234556239 4.98372685760658384879 17.69905736759598724461 7.52679295960446470559 10.06985906160234556239 10.06985906160234556239 4.98372685760658384879 7.52679295960446470559 10.06985906160234556239 7.52679295960446470559 12.61292516360022730737 10.06985906160234556239 7.52679295960446470559 4.98372685760658384879 12.61292516360022730737 10.06985906160234556239 4.98372685760658384879 7.52679295960446470559 4.98372685760658384879 4.98372685760658384879 10.06985906160234556239 10.06985906160234556239 2.44066075560870343608 2.44066075560870343608 2.44066075560870343608 -0.10240534638917689336 2.44066075560870343608 2.44066075560870343608 -0.10240534638917689336 -2.64547144838705738934 -2.64547144838705738934 2.44066075560870343608 -2.64547144838705738934 -0.10240534638917689336 -2.64547144838705738934 -5.18853755038493780205 -5.18853755038493780205 -2.64547144838705738934 -0.10240534638917689336 2.44066075560870343608 -2.64547144838705738934 -7.73160365238281954703 -2.64547144838705738934 -5.18853755038493780205 -0.10240534638917689336 -0.10240534638917689336 -7.73160365238281954703 -7.73160365238281954703 4.98372685760658384879 2.44066075560870343608 -7.73160365238281954703 -7.73160365238281954703 -10.27466975438069773929 -5.18853755038493780205 -2.64547144838705738934 -5.18853755038493780205 -5.18853755038493780205 -5.18853755038493780205 -10.27466975438069773929 -0.10240534638917689336 -7.73160365238281954703 -5.18853755038493780205 -5.18853755038493780205 -7.73160365238281954703 -0.10240534638917689336 -5.18853755038493780205 -0.10240534638917689336 -7.73160365238281954703 -2.64547144838705738934 -7.73160365238281954703 -2.64547144838705738934 -0.10240534638917689336 -5.18853755038493780205 -5.18853755038493780205 -2.64547144838705738934 -0.10240534638917689336 -0.10240534638917689336 -2.64547144838705738934 -5.18853755038493780205 -7.73160365238281954703 -2.64547144838705738934 -5.18853755038493780205 -0.10240534638917689336 -5.18853755038493780205 -2.64547144838705738934 -7.73160365238281954703 -12.81773585637857948427 -2.64547144838705738934 -7.73160365238281954703 -10.27466975438069773929 -5.18853755038493780205 -7.73160365238281954703 -12.81773585637857948427 -10.27466975438069773929 -10.27466975438069773929 -10.27466975438069773929 -7.73160365238281954703 -7.73160365238281954703 -12.81773585637857948427 -15.36080195837645945289 -10.27466975438069773929 -12.81773585637857948427 -5.18853755038493780205 -12.81773585637857948427 -10.27466975438069773929 -15.36080195837645945289 -10.27466975438069773929 -15.36080195837645945289 -7.73160365238281954703 -7.73160365238281954703 -10.27466975438069773929 -12.81773585637857948427 -10.27466975438069773929 -5.18853755038493780205 -10.27466975438069773929 -7.73160365238281954703 -12.81773585637857948427 -10.27466975438069773929 -10.27466975438069773929 -7.73160365238281954703 -7.73160365238281954703 -5.18853755038493780205 -7.73160365238281954703 -10.27466975438069773929 -15.36080195837645945289 -7.73160365238281954703 -7.73160365238281954703 -5.18853755038493780205 -12.81773585637857948427 -7.73160365238281954703 -7.73160365238281954703 -5.18853755038493780205 -7.73160365238281954703 -10.27466975438069773929 -12.81773585637857948427 -7.73160365238281954703 -7.73160365238281954703 -0.10240534638917689336 -5.18853755038493780205 -7.73160365238281954703 -5.18853755038493780205 -5.18853755038493780205 -10.27466975438069773929 -2.64547144838705738934 2.44066075560870343608 -7.73160365238281954703 -7.73160365238281954703 -5.18853755038493780205 -2.64547144838705738934 -0.10240534638917689336 -5.18853755038493780205 -7.73160365238281954703 -7.73160365238281954703 -5.18853755038493780205 -2.64547144838705738934 -2.64547144838705738934 -0.10240534638917689336 -5.18853755038493780205 -5.18853755038493780205 -5.18853755038493780205 -7.73160365238281954703 -10.27466975438069773929 -12.81773585637857948427 -5.18853755038493780205 -7.73160365238281954703 -0.10240534638917689336 -5.18853755038493780205 -2.64547144838705738934 -7.73160365238281954703 -2.64547144838705738934 -5.18853755038493780205 -7.73160365238281954703 -0.10240534638917689336 -5.18853755038493780205 -2.64547144838705738934 2.44066075560870343608 -0.10240534638917689336 -2.64547144838705738934 -7.73160365238281954703 -0.10240534638917689336 -7.73160365238281954703 -2.64547144838705738934 -7.73160365238281954703 -2.64547144838705738934 2.44066075560870343608 2.44066075560870343608 -5.18853755038493780205 -2.64547144838705738934 -2.64547144838705738934 -5.18853755038493780205 -0.10240534638917689336 -0.10240534638917689336 -5.18853755038493780205 -0.10240534638917689336 -0.10240534638917689336 -2.64547144838705738934 -2.64547144838705738934 -0.10240534638917689336 2.44066075560870343608 -0.10240534638917689336 -0.10240534638917689336 4.98372685760658384879 -5.18853755038493780205 2.44066075560870343608 -2.64547144838705738934 -2.64547144838705738934 2.44066075560870343608 4.98372685760658384879 -0.10240534638917689336 -0.10240534638917689336 2.44066075560870343608 -2.64547144838705738934 -2.64547144838705738934 7.52679295960446470559 -0.10240534638917689336 -0.10240534638917689336 -0.10240534638917689336 -5.18853755038493780205 4.98372685760658384879 7.52679295960446470559 4.98372685760658384879 4.98372685760658384879 4.98372685760658384879 -0.10240534638917689336 -0.10240534638917689336 4.98372685760658384879 2.44066075560870343608 -0.10240534638917689336 7.52679295960446470559 -0.10240534638917689336 10.06985906160234556239 2.44066075560870343608 2.44066075560870343608 7.52679295960446470559 7.52679295960446470559 4.98372685760658384879 2.44066075560870343608 7.52679295960446470559 10.06985906160234556239 7.52679295960446470559 7.52679295960446470559 10.06985906160234556239 10.06985906160234556239 10.06985906160234556239 10.06985906160234556239 4.98372685760658384879 4.98372685760658384879 10.06985906160234556239 10.06985906160234556239 4.98372685760658384879 4.98372685760658384879 7.52679295960446470559 7.52679295960446470559 4.98372685760658384879 2.44066075560870343608 10.06985906160234556239 7.52679295960446470559 7.52679295960446470559 4.98372685760658384879 4.98372685760658384879 7.52679295960446470559 12.61292516360022730737 7.52679295960446470559 4.98372685760658384879 4.98372685760658384879 4.98372685760658384879 4.98372685760658384879 4.98372685760658384879 7.52679295960446470559 4.98372685760658384879 4.98372685760658384879 10.06985906160234556239 2.44066075560870343608 4.98372685760658384879 4.98372685760658384879 4.98372685760658384879 2.44066075560870343608 -0.10240534638917689336 -0.10240534638917689336 -0.10240534638917689336 2.44066075560870343608 -2.64547144838705738934 2.44066075560870343608 -5.18853755038493780205 -7.73160365238281954703 -2.64547144838705738934 2.44066075560870343608 4.98372685760658384879 4.98372685760658384879 -2.64547144838705738934 -0.10240534638917689336 -5.18853755038493780205 -5.18853755038493780205 -5.18853755038493780205 -2.64547144838705738934 -2.64547144838705738934 -2.64547144838705738934 -0.10240534638917689336 -2.64547144838705738934 -5.18853755038493780205 -5.18853755038493780205 -7.73160365238281954703 -7.73160365238281954703 -7.73160365238281954703 -5.18853755038493780205 -7.73160365238281954703 -5.18853755038493780205 -5.18853755038493780205 -5.18853755038493780205 -7.73160365238281954703 -7.73160365238281954703 -10.27466975438069773929 -10.27466975438069773929 -2.64547144838705738934 -5.18853755038493780205 -7.73160365238281954703 -7.73160365238281954703 -2.64547144838705738934 -10.27466975438069773929 -7.73160365238281954703 -7.73160365238281954703 -10.27466975438069773929 -7.73160365238281954703 -5.18853755038493780205 -7.73160365238281954703 -7.73160365238281954703 -5.18853755038493780205 -0.10240534638917689336 -7.73160365238281954703 -2.64547144838705738934 -2.64547144838705738934 -5.18853755038493780205 -2.64547144838705738934 -7.73160365238281954703 -7.73160365238281954703 -0.10240534638917689336 -2.64547144838705738934 -0.10240534638917689336 -2.64547144838705738934 -7.73160365238281954703 -5.18853755038493780205 -5.18853755038493780205 -7.73160365238281954703 -2.64547144838705738934 -5.18853755038493780205 -0.10240534638917689336 -2.64547144838705738934 -2.64547144838705738934 -7.73160365238281954703 -2.64547144838705738934 -5.18853755038493780205 -2.64547144838705738934 -0.10240534638917689336 -2.64547144838705738934 -2.64547144838705738934 -7.73160365238281954703 -2.64547144838705738934 -5.18853755038493780205 -2.64547144838705738934 -0.10240534638917689336 -2.64547144838705738934 -2.64547144838705738934 -2.64547144838705738934 -7.73160365238281954703 -2.64547144838705738934 -7.73160365238281954703 -7.73160365238281954703 -10.27466975438069773929 -5.18853755038493780205 -2.64547144838705738934 -0.10240534638917689336 -5.18853755038493780205 -5.18853755038493780205 -0.10240534638917689336 -5.18853755038493780205 -5.18853755038493780205 -2.64547144838705738934 -2.64547144838705738934 -0.10240534638917689336 -0.10240534638917689336 -2.64547144838705738934 -0.10240534638917689336 -0.10240534638917689336 -0.10240534638917689336 -2.64547144838705738934 2.44066075560870343608 -0.10240534638917689336 2.44066075560870343608 -2.64547144838705738934 -2.64547144838705738934 2.44066075560870343608 -0.10240534638917689336 -0.10240534638917689336 2.44066075560870343608 -0.10240534638917689336 2.44066075560870343608 -2.64547144838705738934 -2.64547144838705738934 -0.10240534638917689336 -2.64547144838705738934 -5.18853755038493780205 -0.10240534638917689336 -0.10240534638917689336 -0.10240534638917689336 -2.64547144838705738934 -0.10240534638917689336 2.44066075560870343608 -2.64547144838705738934 -0.10240534638917689336 -2.64547144838705738934 -0.10240534638917689336 -2.64547144838705738934 2.44066075560870343608 2.44066075560870343608 -0.10240534638917689336 -0.10240534638917689336 -2.64547144838705738934 -5.18853755038493780205 -2.64547144838705738934 -0.10240534638917689336 2.44066075560870343608 2.44066075560870343608 -5.18853755038493780205 4.98372685760658384879 -2.64547144838705738934 -0.10240534638917689336 -2.64547144838705738934 -0.10240534638917689336 -0.10240534638917689336 2.44066075560870343608 -0.10240534638917689336 -0.10240534638917689336 -2.64547144838705738934 7.52679295960446470559 -5.18853755038493780205 2.44066075560870343608 -2.64547144838705738934 -2.64547144838705738934 2.44066075560870343608 2.44066075560870343608 -0.10240534638917689336 2.44066075560870343608 -0.10240534638917689336 -5.18853755038493780205 -2.64547144838705738934 -0.10240534638917689336 -2.64547144838705738934 -0.10240534638917689336 7.52679295960446470559 -2.64547144838705738934 2.44066075560870343608 -2.64547144838705738934 2.44066075560870343608 -2.64547144838705738934 -0.10240534638917689336 4.98372685760658384879 7.52679295960446470559 7.52679295960446470559 4.98372685760658384879 -0.10240534638917689336 2.44066075560870343608 2.44066075560870343608 7.52679295960446470559 10.06985906160234556239 2.44066075560870343608 2.44066075560870343608 2.44066075560870343608 2.44066075560870343608 7.52679295960446470559 7.52679295960446470559 10.06985906160234556239 7.52679295960446470559 7.52679295960446470559 10.06985906160234556239 10.06985906160234556239 15.15599126559810727599 10.06985906160234556239 12.61292516360022730737 7.52679295960446470559 7.52679295960446470559 4.98372685760658384879 12.61292516360022730737 10.06985906160234556239 12.61292516360022730737 7.52679295960446470559 10.06985906160234556239 12.61292516360022730737 7.52679295960446470559 4.98372685760658384879 -0.10240534638917689336 7.52679295960446470559 10.06985906160234556239 12.61292516360022730737 2.44066075560870343608 10.06985906160234556239 7.52679295960446470559 4.98372685760658384879 4.98372685760658384879 2.44066075560870343608 -2.64547144838705738934 7.52679295960446470559 7.52679295960446470559 4.98372685760658384879 -0.10240534638917689336 7.52679295960446470559 -0.10240534638917689336 2.44066075560870343608 -0.10240534638917689336 -5.18853755038493780205 -2.64547144838705738934 2.44066075560870343608 2.44066075560870343608 -0.10240534638917689336 2.44066075560870343608 -2.64547144838705738934 -5.18853755038493780205 -7.73160365238281954703 -2.64547144838705738934 -0.10240534638917689336 4.98372685760658384879 2.44066075560870343608 -0.10240534638917689336 -5.18853755038493780205 2.44066075560870343608 -0.10240534638917689336 -5.18853755038493780205 -5.18853755038493780205 -2.64547144838705738934 -2.64547144838705738934 -5.18853755038493780205 -7.73160365238281954703 -2.64547144838705738934 -5.18853755038493780205 -7.73160365238281954703 -7.73160365238281954703 -7.73160365238281954703 -5.18853755038493780205 -2.64547144838705738934 -0.10240534638917689336 -5.18853755038493780205 -0.10240534638917689336 -0.10240534638917689336 -0.10240534638917689336 -2.64547144838705738934 2.44066075560870343608 2.44066075560870343608 -2.64547144838705738934 -0.10240534638917689336 2.44066075560870343608 2.44066075560870343608 -0.10240534638917689336 2.44066075560870343608 -0.10240534638917689336 -0.10240534638917689336 2.44066075560870343608 2.44066075560870343608 -0.10240534638917689336 4.98372685760658384879 2.44066075560870343608 -0.10240534638917689336 -0.10240534638917689336 -0.10240534638917689336 -0.10240534638917689336 2.44066075560870343608 2.44066075560870343608 7.52679295960446470559 4.98372685760658384879 2.44066075560870343608 4.98372685760658384879 2.44066075560870343608 -0.10240534638917689336 7.52679295960446470559 4.98372685760658384879 7.52679295960446470559 7.52679295960446470559 4.98372685760658384879 10.06985906160234556239 2.44066075560870343608 7.52679295960446470559 4.98372685760658384879 4.98372685760658384879 7.52679295960446470559 2.44066075560870343608 4.98372685760658384879 -0.10240534638917689336 -0.10240534638917689336 4.98372685760658384879 2.44066075560870343608 7.52679295960446470559 10.06985906160234556239 4.98372685760658384879 7.52679295960446470559 2.44066075560870343608 -0.10240534638917689336 -0.10240534638917689336 2.44066075560870343608 2.44066075560870343608 -0.10240534638917689336 2.44066075560870343608 4.98372685760658384879 4.98372685760658384879 7.52679295960446470559 4.98372685760658384879 2.44066075560870343608 -0.10240534638917689336 4.98372685760658384879 4.98372685760658384879 2.44066075560870343608 2.44066075560870343608 -0.10240534638917689336 -0.10240534638917689336 4.98372685760658384879 -0.10240534638917689336 4.98372685760658384879 2.44066075560870343608 2.44066075560870343608 -0.10240534638917689336 -0.10240534638917689336 -2.64547144838705738934 7.52679295960446470559 2.44066075560870343608 2.44066075560870343608 -0.10240534638917689336 -2.64547144838705738934 -0.10240534638917689336 -0.10240534638917689336 4.98372685760658384879 -2.64547144838705738934 4.98372685760658384879 -0.10240534638917689336 2.44066075560870343608 -0.10240534638917689336 -0.10240534638917689336 2.44066075560870343608 2.44066075560870343608 -0.10240534638917689336 2.44066075560870343608 -2.64547144838705738934 4.98372685760658384879 -0.10240534638917689336 2.44066075560870343608 4.98372685760658384879 -0.10240534638917689336 -0.10240534638917689336 4.98372685760658384879 4.98372685760658384879 4.98372685760658384879 2.44066075560870343608 2.44066075560870343608 -2.64547144838705738934 2.44066075560870343608 2.44066075560870343608 2.44066075560870343608 -0.10240534638917689336 -0.10240534638917689336 2.44066075560870343608 -0.10240534638917689336 -2.64547144838705738934 -0.10240534638917689336 -5.18853755038493780205 -7.73160365238281954703 -2.64547144838705738934 -0.10240534638917689336 2.44066075560870343608 -2.64547144838705738934 -0.10240534638917689336 -2.64547144838705738934 -10.27466975438069773929 -7.73160365238281954703 -2.64547144838705738934 -5.18853755038493780205 -5.18853755038493780205 -5.18853755038493780205 -2.64547144838705738934 -2.64547144838705738934 -0.10240534638917689336 -2.64547144838705738934 -2.64547144838705738934 -5.18853755038493780205 -10.27466975438069773929 -7.73160365238281954703 -5.18853755038493780205 -10.27466975438069773929 -0.10240534638917689336 -5.18853755038493780205 -5.18853755038493780205 -5.18853755038493780205 -10.27466975438069773929 -7.73160365238281954703 -5.18853755038493780205 -0.10240534638917689336 -0.10240534638917689336 -2.64547144838705738934 -5.18853755038493780205 -2.64547144838705738934 -5.18853755038493780205 -5.18853755038493780205 -10.27466975438069773929 -5.18853755038493780205 -5.18853755038493780205 -2.64547144838705738934 -0.10240534638917689336 -5.18853755038493780205 -0.10240534638917689336 -2.64547144838705738934 -2.64547144838705738934 -2.64547144838705738934 -0.10240534638917689336 -0.10240534638917689336 -2.64547144838705738934 -2.64547144838705738934 -0.10240534638917689336 2.44066075560870343608 2.44066075560870343608 7.52679295960446470559 2.44066075560870343608 -0.10240534638917689336 -0.10240534638917689336 2.44066075560870343608 -2.64547144838705738934 -0.10240534638917689336 4.98372685760658384879 7.52679295960446470559 4.98372685760658384879 4.98372685760658384879 2.44066075560870343608 2.44066075560870343608 -0.10240534638917689336 10.06985906160234556239 4.98372685760658384879 7.52679295960446470559 4.98372685760658384879 2.44066075560870343608 -0.10240534638917689336 -0.10240534638917689336 -0.10240534638917689336 2.44066075560870343608 2.44066075560870343608 2.44066075560870343608 12.61292516360022730737 4.98372685760658384879 7.52679295960446470559 2.44066075560870343608 2.44066075560870343608 -0.10240534638917689336 2.44066075560870343608 -2.64547144838705738934 4.98372685760658384879 2.44066075560870343608 2.44066075560870343608 2.44066075560870343608 4.98372685760658384879 2.44066075560870343608 -2.64547144838705738934 -0.10240534638917689336 4.98372685760658384879 2.44066075560870343608 4.98372685760658384879 -0.10240534638917689336 4.98372685760658384879 2.44066075560870343608 2.44066075560870343608 2.44066075560870343608 -0.10240534638917689336 2.44066075560870343608 4.98372685760658384879 7.52679295960446470559 -0.10240534638917689336 4.98372685760658384879 2.44066075560870343608 2.44066075560870343608 2.44066075560870343608 -0.10240534638917689336 -0.10240534638917689336 2.44066075560870343608 4.98372685760658384879 4.98372685760658384879 4.98372685760658384879 -2.64547144838705738934 -0.10240534638917689336 -0.10240534638917689336 2.44066075560870343608 4.98372685760658384879 2.44066075560870343608 4.98372685760658384879 -0.10240534638917689336 4.98372685760658384879 -2.64547144838705738934 2.44066075560870343608 2.44066075560870343608 2.44066075560870343608 4.98372685760658384879 2.44066075560870343608 -2.64547144838705738934 4.98372685760658384879 10.06985906160234556239 7.52679295960446470559 2.44066075560870343608 7.52679295960446470559 4.98372685760658384879 4.98372685760658384879 7.52679295960446470559 10.06985906160234556239 4.98372685760658384879 7.52679295960446470559 10.06985906160234556239 7.52679295960446470559 7.52679295960446470559 2.44066075560870343608 4.98372685760658384879 4.98372685760658384879 -0.10240534638917689336 -2.64547144838705738934 4.98372685760658384879 4.98372685760658384879 2.44066075560870343608 2.44066075560870343608 7.52679295960446470559 2.44066075560870343608 -0.10240534638917689336 4.98372685760658384879 2.44066075560870343608 2.44066075560870343608 2.44066075560870343608 -2.64547144838705738934 -2.64547144838705738934 -2.64547144838705738934 4.98372685760658384879 2.44066075560870343608 4.98372685760658384879 -0.10240534638917689336 4.98372685760658384879 2.44066075560870343608 -2.64547144838705738934 -0.10240534638917689336 -5.18853755038493780205 -2.64547144838705738934 2.44066075560870343608 -5.18853755038493780205 -0.10240534638917689336 -2.64547144838705738934 -0.10240534638917689336 -2.64547144838705738934 -2.64547144838705738934 -5.18853755038493780205 -2.64547144838705738934 -0.10240534638917689336 -2.64547144838705738934 2.44066075560870343608 -5.18853755038493780205 -5.18853755038493780205 -2.64547144838705738934 -2.64547144838705738934 -2.64547144838705738934 -0.10240534638917689336 -2.64547144838705738934 -2.64547144838705738934 2.44066075560870343608 -0.10240534638917689336 -0.10240534638917689336 -2.64547144838705738934 4.98372685760658384879 -0.10240534638917689336 -5.18853755038493780205 -5.18853755038493780205 -7.73160365238281954703 -12.81773585637857948427 -5.18853755038493780205 -5.18853755038493780205 -5.18853755038493780205 -5.18853755038493780205 -5.18853755038493780205 -12.81773585637857948427 -5.18853755038493780205 -10.27466975438069773929 -2.64547144838705738934 -5.18853755038493780205 -0.10240534638917689336 -5.18853755038493780205 -10.27466975438069773929 -5.18853755038493780205 -2.64547144838705738934 2.44066075560870343608 -0.10240534638917689336 -2.64547144838705738934 4.98372685760658384879 4.98372685760658384879 -0.10240534638917689336 4.98372685760658384879 4.98372685760658384879 7.52679295960446470559 4.98372685760658384879 7.52679295960446470559 4.98372685760658384879 4.98372685760658384879 2.44066075560870343608 -0.10240534638917689336 2.44066075560870343608 -2.64547144838705738934 2.44066075560870343608 -10.27466975438069773929 2.44066075560870343608 -0.10240534638917689336 2.44066075560870343608 7.52679295960446470559 4.98372685760658384879 4.98372685760658384879 -2.64547144838705738934 10.06985906160234556239 7.52679295960446470559 4.98372685760658384879 2.44066075560870343608 7.52679295960446470559 15.15599126559810727599 10.06985906160234556239 12.61292516360022730737 12.61292516360022730737 4.98372685760658384879 10.06985906160234556239 22.78518957159175073457 7.52679295960446470559 12.61292516360022730737 10.06985906160234556239 12.61292516360022730737 12.61292516360022730737 17.69905736759598724461 12.61292516360022730737 15.15599126559810727599 20.24212346959386721323 20.24212346959386721323 15.15599126559810727599 20.24212346959386721323 17.69905736759598724461 15.15599126559810727599 20.24212346959386721323 25.32825567358963070319 17.69905736759598724461 15.15599126559810727599 20.24212346959386721323 25.32825567358963070319 25.32825567358963070319 12.61292516360022730737 22.78518957159175073457 17.69905736759598724461 12.61292516360022730737 17.69905736759598724461 10.06985906160234556239 12.61292516360022730737 15.15599126559810727599 10.06985906160234556239 10.06985906160234556239 10.06985906160234556239 7.52679295960446470559 4.98372685760658384879 10.06985906160234556239 7.52679295960446470559 10.06985906160234556239 -0.10240534638917689336 -2.64547144838705738934 4.98372685760658384879 -0.10240534638917689336 7.52679295960446470559 7.52679295960446470559 4.98372685760658384879 7.52679295960446470559 4.98372685760658384879 2.44066075560870343608 -5.18853755038493780205 -0.10240534638917689336 -5.18853755038493780205 -5.18853755038493780205 -7.73160365238281954703 -10.27466975438069773929 -12.81773585637857948427 -7.73160365238281954703 -5.18853755038493780205 -10.27466975438069773929 -10.27466975438069773929 -7.73160365238281954703 -10.27466975438069773929 -5.18853755038493780205 -7.73160365238281954703 -7.73160365238281954703 -2.64547144838705738934 -5.18853755038493780205 -10.27466975438069773929 -7.73160365238281954703 -10.27466975438069773929 -12.81773585637857948427 -7.73160365238281954703 -12.81773585637857948427 -10.27466975438069773929 -12.81773585637857948427 -10.27466975438069773929 -10.27466975438069773929 -2.64547144838705738934 -2.64547144838705738934 -5.18853755038493780205 -7.73160365238281954703 -7.73160365238281954703 -5.18853755038493780205 -2.64547144838705738934 -7.73160365238281954703 -2.64547144838705738934 -2.64547144838705738934 -10.27466975438069773929 -5.18853755038493780205 -5.18853755038493780205 -5.18853755038493780205 2.44066075560870343608 -2.64547144838705738934 -0.10240534638917689336 -5.18853755038493780205 -7.73160365238281954703 -0.10240534638917689336 2.44066075560870343608 -2.64547144838705738934 -2.64547144838705738934 -0.10240534638917689336 -0.10240534638917689336 2.44066075560870343608 2.44066075560870343608 -2.64547144838705738934 -0.10240534638917689336 -2.64547144838705738934 -2.64547144838705738934 2.44066075560870343608 4.98372685760658384879 2.44066075560870343608 -2.64547144838705738934 -5.18853755038493780205 -2.64547144838705738934 -0.10240534638917689336 -5.18853755038493780205 -7.73160365238281954703 -2.64547144838705738934 4.98372685760658384879 2.44066075560870343608 -0.10240534638917689336 2.44066075560870343608 2.44066075560870343608 4.98372685760658384879 4.98372685760658384879 4.98372685760658384879 -0.10240534638917689336 -0.10240534638917689336 -0.10240534638917689336 -5.18853755038493780205 -0.10240534638917689336 -5.18853755038493780205 7.52679295960446470559 4.98372685760658384879 4.98372685760658384879 -2.64547144838705738934 -0.10240534638917689336 -0.10240534638917689336 -0.10240534638917689336 2.44066075560870343608 4.98372685760658384879 -5.18853755038493780205 4.98372685760658384879 -0.10240534638917689336 -0.10240534638917689336 -5.18853755038493780205 -2.64547144838705738934 -2.64547144838705738934 -0.10240534638917689336 -0.10240534638917689336 2.44066075560870343608 -2.64547144838705738934 -2.64547144838705738934 -0.10240534638917689336 -0.10240534638917689336 2.44066075560870343608 -0.10240534638917689336 -0.10240534638917689336 -2.64547144838705738934 -0.10240534638917689336 2.44066075560870343608 4.98372685760658384879 7.52679295960446470559 2.44066075560870343608 2.44066075560870343608 -2.64547144838705738934 2.44066075560870343608 2.44066075560870343608 -0.10240534638917689336 -0.10240534638917689336 2.44066075560870343608 4.98372685760658384879 -0.10240534638917689336 4.98372685760658384879 7.52679295960446470559 7.52679295960446470559 4.98372685760658384879 4.98372685760658384879 2.44066075560870343608 4.98372685760658384879 2.44066075560870343608 7.52679295960446470559 4.98372685760658384879 4.98372685760658384879 4.98372685760658384879 4.98372685760658384879 -0.10240534638917689336 -0.10240534638917689336 10.06985906160234556239 10.06985906160234556239 15.15599126559810727599 7.52679295960446470559 10.06985906160234556239 4.98372685760658384879 10.06985906160234556239 2.44066075560870343608 7.52679295960446470559 7.52679295960446470559 7.52679295960446470559 4.98372685760658384879 4.98372685760658384879 -0.10240534638917689336 4.98372685760658384879 7.52679295960446470559 7.52679295960446470559 4.98372685760658384879 4.98372685760658384879 4.98372685760658384879 7.52679295960446470559 10.06985906160234556239 4.98372685760658384879 7.52679295960446470559 10.06985906160234556239 4.98372685760658384879 4.98372685760658384879 4.98372685760658384879 4.98372685760658384879 7.52679295960446470559 7.52679295960446470559 4.98372685760658384879 7.52679295960446470559 4.98372685760658384879 -0.10240534638917689336 2.44066075560870343608 2.44066075560870343608 7.52679295960446470559 2.44066075560870343608 2.44066075560870343608 -0.10240534638917689336 2.44066075560870343608 7.52679295960446470559 2.44066075560870343608 4.98372685760658384879 7.52679295960446470559 10.06985906160234556239 7.52679295960446470559 4.98372685760658384879 10.06985906160234556239 10.06985906160234556239 10.06985906160234556239 10.06985906160234556239 10.06985906160234556239 4.98372685760658384879 7.52679295960446470559 10.06985906160234556239 7.52679295960446470559 12.61292516360022730737 12.61292516360022730737 10.06985906160234556239 7.52679295960446470559 10.06985906160234556239 10.06985906160234556239 12.61292516360022730737 15.15599126559810727599 10.06985906160234556239 10.06985906160234556239 7.52679295960446470559 7.52679295960446470559 12.61292516360022730737 10.06985906160234556239 12.61292516360022730737 7.52679295960446470559 7.52679295960446470559 7.52679295960446470559 -0.10240534638917689336 4.98372685760658384879 7.52679295960446470559 10.06985906160234556239 12.61292516360022730737 12.61292516360022730737 2.44066075560870343608 2.44066075560870343608 4.98372685760658384879 7.52679295960446470559 7.52679295960446470559 10.06985906160234556239 12.61292516360022730737 4.98372685760658384879 7.52679295960446470559 7.52679295960446470559 2.44066075560870343608 4.98372685760658384879 7.52679295960446470559 10.06985906160234556239 4.98372685760658384879 -2.64547144838705738934 2.44066075560870343608 7.52679295960446470559 -2.64547144838705738934 2.44066075560870343608 -5.18853755038493780205 4.98372685760658384879 -2.64547144838705738934 -0.10240534638917689336 2.44066075560870343608 -2.64547144838705738934 7.52679295960446470559 2.44066075560870343608 -2.64547144838705738934 -0.10240534638917689336 2.44066075560870343608 2.44066075560870343608 4.98372685760658384879 4.98372685760658384879 -0.10240534638917689336 -0.10240534638917689336 4.98372685760658384879 2.44066075560870343608 -0.10240534638917689336 -0.10240534638917689336 2.44066075560870343608 -2.64547144838705738934 10.06985906160234556239 -0.10240534638917689336 4.98372685760658384879 -2.64547144838705738934 10.06985906160234556239 4.98372685760658384879 4.98372685760658384879 2.44066075560870343608 2.44066075560870343608 2.44066075560870343608 2.44066075560870343608 4.98372685760658384879 -0.10240534638917689336 -2.64547144838705738934 -2.64547144838705738934 2.44066075560870343608 2.44066075560870343608 2.44066075560870343608 2.44066075560870343608 4.98372685760658384879 -0.10240534638917689336 2.44066075560870343608 2.44066075560870343608 -0.10240534638917689336 -5.18853755038493780205 2.44066075560870343608 -2.64547144838705738934 2.44066075560870343608 2.44066075560870343608 -2.64547144838705738934 -5.18853755038493780205 -2.64547144838705738934 -2.64547144838705738934 4.98372685760658384879 -0.10240534638917689336 -0.10240534638917689336 -2.64547144838705738934 -5.18853755038493780205 -7.73160365238281954703 -7.73160365238281954703 -5.18853755038493780205 -0.10240534638917689336 -0.10240534638917689336 2.44066075560870343608 -5.18853755038493780205 -0.10240534638917689336 -2.64547144838705738934 -5.18853755038493780205 -7.73160365238281954703 -2.64547144838705738934 -2.64547144838705738934 2.44066075560870343608 -0.10240534638917689336 -7.73160365238281954703 -5.18853755038493780205 -5.18853755038493780205 -7.73160365238281954703 -5.18853755038493780205 -2.64547144838705738934 -0.10240534638917689336 -2.64547144838705738934 -5.18853755038493780205 -7.73160365238281954703 -0.10240534638917689336 2.44066075560870343608 -5.18853755038493780205 -2.64547144838705738934 -2.64547144838705738934 -0.10240534638917689336 -2.64547144838705738934 -0.10240534638917689336 2.44066075560870343608 -0.10240534638917689336 2.44066075560870343608 -2.64547144838705738934 -0.10240534638917689336 -5.18853755038493780205 -0.10240534638917689336 -0.10240534638917689336 -5.18853755038493780205 2.44066075560870343608 -0.10240534638917689336 -5.18853755038493780205 2.44066075560870343608 -2.64547144838705738934 -0.10240534638917689336 2.44066075560870343608 2.44066075560870343608 -0.10240534638917689336 -2.64547144838705738934 -5.18853755038493780205 -2.64547144838705738934 -2.64547144838705738934 -2.64547144838705738934 -5.18853755038493780205 -0.10240534638917689336 -0.10240534638917689336 4.98372685760658384879 -0.10240534638917689336 4.98372685760658384879 -0.10240534638917689336 2.44066075560870343608 2.44066075560870343608 2.44066075560870343608 -5.18853755038493780205 -0.10240534638917689336 -0.10240534638917689336 -0.10240534638917689336 4.98372685760658384879 2.44066075560870343608 -0.10240534638917689336 2.44066075560870343608 -0.10240534638917689336 -0.10240534638917689336 -2.64547144838705738934 2.44066075560870343608 -0.10240534638917689336 2.44066075560870343608 4.98372685760658384879 -0.10240534638917689336 2.44066075560870343608 -5.18853755038493780205 -2.64547144838705738934 -0.10240534638917689336 -5.18853755038493780205 -0.10240534638917689336 2.44066075560870343608 -0.10240534638917689336 2.44066075560870343608 -0.10240534638917689336 4.98372685760658384879 -0.10240534638917689336 -2.64547144838705738934 -7.73160365238281954703 -0.10240534638917689336 4.98372685760658384879 17.69905736759598724461 7.52679295960446470559 2.44066075560870343608 -0.10240534638917689336 4.98372685760658384879 -0.10240534638917689336 2.44066075560870343608 4.98372685760658384879 -0.10240534638917689336 7.52679295960446470559 2.44066075560870343608 4.98372685760658384879 4.98372685760658384879 4.98372685760658384879 -0.10240534638917689336 4.98372685760658384879 7.52679295960446470559 7.52679295960446470559 7.52679295960446470559 12.61292516360022730737 4.98372685760658384879 2.44066075560870343608 2.44066075560870343608 4.98372685760658384879 10.06985906160234556239 4.98372685760658384879 7.52679295960446470559 2.44066075560870343608 10.06985906160234556239 7.52679295960446470559 7.52679295960446470559 -0.10240534638917689336 2.44066075560870343608 4.98372685760658384879 12.61292516360022730737 12.61292516360022730737 4.98372685760658384879 4.98372685760658384879 4.98372685760658384879 12.61292516360022730737 2.44066075560870343608 10.06985906160234556239 10.06985906160234556239 10.06985906160234556239 7.52679295960446470559 10.06985906160234556239 2.44066075560870343608 10.06985906160234556239 15.15599126559810727599 4.98372685760658384879 12.61292516360022730737 12.61292516360022730737 4.98372685760658384879 7.52679295960446470559 4.98372685760658384879 7.52679295960446470559 10.06985906160234556239 10.06985906160234556239 10.06985906160234556239 10.06985906160234556239 15.15599126559810727599 7.52679295960446470559 10.06985906160234556239 4.98372685760658384879 4.98372685760658384879 10.06985906160234556239 10.06985906160234556239 10.06985906160234556239 12.61292516360022730737 10.06985906160234556239 7.52679295960446470559 7.52679295960446470559 7.52679295960446470559 4.98372685760658384879 4.98372685760658384879 4.98372685760658384879 12.61292516360022730737 7.52679295960446470559 4.98372685760658384879 4.98372685760658384879 7.52679295960446470559 2.44066075560870343608 2.44066075560870343608 7.52679295960446470559 7.52679295960446470559 4.98372685760658384879 7.52679295960446470559 10.06985906160234556239 4.98372685760658384879 2.44066075560870343608 4.98372685760658384879 10.06985906160234556239 12.61292516360022730737 4.98372685760658384879 7.52679295960446470559 4.98372685760658384879 7.52679295960446470559 10.06985906160234556239 7.52679295960446470559 10.06985906160234556239 10.06985906160234556239 7.52679295960446470559 4.98372685760658384879 7.52679295960446470559 -0.10240534638917689336 4.98372685760658384879 10.06985906160234556239 7.52679295960446470559 7.52679295960446470559 4.98372685760658384879 4.98372685760658384879 7.52679295960446470559 7.52679295960446470559 7.52679295960446470559 2.44066075560870343608 10.06985906160234556239 7.52679295960446470559 2.44066075560870343608 7.52679295960446470559 -0.10240534638917689336 4.98372685760658384879 12.61292516360022730737 7.52679295960446470559 7.52679295960446470559 10.06985906160234556239 2.44066075560870343608 -0.10240534638917689336 7.52679295960446470559 12.61292516360022730737 10.06985906160234556239 4.98372685760658384879 4.98372685760658384879 7.52679295960446470559 4.98372685760658384879 2.44066075560870343608 7.52679295960446470559 7.52679295960446470559 2.44066075560870343608 7.52679295960446470559 7.52679295960446470559 2.44066075560870343608 7.52679295960446470559 15.15599126559810727599 4.98372685760658384879 4.98372685760658384879 4.98372685760658384879 4.98372685760658384879 7.52679295960446470559 12.61292516360022730737 10.06985906160234556239 7.52679295960446470559 -0.10240534638917689336 4.98372685760658384879 2.44066075560870343608 7.52679295960446470559 12.61292516360022730737 10.06985906160234556239 2.44066075560870343608 2.44066075560870343608 7.52679295960446470559 4.98372685760658384879 4.98372685760658384879 7.52679295960446470559 2.44066075560870343608 7.52679295960446470559 -0.10240534638917689336 2.44066075560870343608 2.44066075560870343608 12.61292516360022730737 10.06985906160234556239 4.98372685760658384879 7.52679295960446470559 -0.10240534638917689336 4.98372685760658384879 7.52679295960446470559 2.44066075560870343608 4.98372685760658384879 2.44066075560870343608 2.44066075560870343608 4.98372685760658384879 2.44066075560870343608 -2.64547144838705738934 2.44066075560870343608 -5.18853755038493780205 4.98372685760658384879 2.44066075560870343608 7.52679295960446470559 -2.64547144838705738934 -0.10240534638917689336 -0.10240534638917689336 -5.18853755038493780205 -5.18853755038493780205 -5.18853755038493780205 -0.10240534638917689336 -5.18853755038493780205 4.98372685760658384879 2.44066075560870343608 -2.64547144838705738934 -2.64547144838705738934 -0.10240534638917689336 -2.64547144838705738934 -0.10240534638917689336 -5.18853755038493780205 -5.18853755038493780205 -2.64547144838705738934 -7.73160365238281954703 -0.10240534638917689336 -2.64547144838705738934 2.44066075560870343608 2.44066075560870343608 -2.64547144838705738934 -2.64547144838705738934 -2.64547144838705738934 -0.10240534638917689336 -7.73160365238281954703 -0.10240534638917689336 -2.64547144838705738934 2.44066075560870343608 -2.64547144838705738934 -7.73160365238281954703 -2.64547144838705738934 -2.64547144838705738934 -2.64547144838705738934 2.44066075560870343608 2.44066075560870343608 -5.18853755038493780205 -5.18853755038493780205 2.44066075560870343608 -2.64547144838705738934 4.98372685760658384879 4.98372685760658384879 -0.10240534638917689336 -7.73160365238281954703 4.98372685760658384879 2.44066075560870343608 4.98372685760658384879 4.98372685760658384879 2.44066075560870343608 -2.64547144838705738934 -0.10240534638917689336 4.98372685760658384879 -2.64547144838705738934 -5.18853755038493780205 -0.10240534638917689336 -0.10240534638917689336 2.44066075560870343608 4.98372685760658384879 2.44066075560870343608 -0.10240534638917689336 -5.18853755038493780205 2.44066075560870343608 -0.10240534638917689336 4.98372685760658384879 4.98372685760658384879 2.44066075560870343608 -2.64547144838705738934 -2.64547144838705738934 -10.27466975438069773929 -5.18853755038493780205 -5.18853755038493780205 -0.10240534638917689336 -2.64547144838705738934 -2.64547144838705738934 -2.64547144838705738934 -2.64547144838705738934 -0.10240534638917689336 -5.18853755038493780205 2.44066075560870343608 -0.10240534638917689336 2.44066075560870343608 -2.64547144838705738934 -2.64547144838705738934 2.44066075560870343608 2.44066075560870343608 2.44066075560870343608 4.98372685760658384879 -0.10240534638917689336 4.98372685760658384879 -0.10240534638917689336 -0.10240534638917689336 -0.10240534638917689336 2.44066075560870343608 4.98372685760658384879 4.98372685760658384879 -0.10240534638917689336 7.52679295960446470559 -2.64547144838705738934 -0.10240534638917689336 2.44066075560870343608 -2.64547144838705738934 -0.10240534638917689336 -0.10240534638917689336 2.44066075560870343608 -2.64547144838705738934 7.52679295960446470559 4.98372685760658384879 7.52679295960446470559 -2.64547144838705738934 -2.64547144838705738934 -0.10240534638917689336 -0.10240534638917689336 -0.10240534638917689336 -2.64547144838705738934 2.44066075560870343608 4.98372685760658384879 2.44066075560870343608 -2.64547144838705738934 -0.10240534638917689336 -0.10240534638917689336 -2.64547144838705738934 2.44066075560870343608 -0.10240534638917689336 4.98372685760658384879 -2.64547144838705738934 -2.64547144838705738934 -0.10240534638917689336 -2.64547144838705738934 -0.10240534638917689336 -0.10240534638917689336 -5.18853755038493780205 -0.10240534638917689336 4.98372685760658384879 -0.10240534638917689336 -0.10240534638917689336 -7.73160365238281954703 -7.73160365238281954703 -5.18853755038493780205 -5.18853755038493780205 -2.64547144838705738934 -2.64547144838705738934 -2.64547144838705738934 -2.64547144838705738934 -2.64547144838705738934 -2.64547144838705738934 -0.10240534638917689336 -2.64547144838705738934 -2.64547144838705738934 2.44066075560870343608 -7.73160365238281954703 -2.64547144838705738934 -7.73160365238281954703 -7.73160365238281954703 -7.73160365238281954703 -5.18853755038493780205 -7.73160365238281954703 -7.73160365238281954703 -2.64547144838705738934 -2.64547144838705738934 -7.73160365238281954703 -5.18853755038493780205 -2.64547144838705738934 -0.10240534638917689336 -2.64547144838705738934 -5.18853755038493780205 -7.73160365238281954703 -10.27466975438069773929 -7.73160365238281954703 -5.18853755038493780205 -0.10240534638917689336 -7.73160365238281954703 -2.64547144838705738934 -5.18853755038493780205 -2.64547144838705738934 -2.64547144838705738934 -2.64547144838705738934 -0.10240534638917689336 -0.10240534638917689336 -5.18853755038493780205 -5.18853755038493780205 -5.18853755038493780205 -5.18853755038493780205 -2.64547144838705738934 -5.18853755038493780205 -0.10240534638917689336 -2.64547144838705738934 -0.10240534638917689336 -10.27466975438069773929 -5.18853755038493780205 -0.10240534638917689336 -5.18853755038493780205 -5.18853755038493780205 -0.10240534638917689336 -5.18853755038493780205 -0.10240534638917689336 -7.73160365238281954703 -7.73160365238281954703 -2.64547144838705738934 -2.64547144838705738934 -2.64547144838705738934 -0.10240534638917689336 -0.10240534638917689336 -2.64547144838705738934 -0.10240534638917689336 -2.64547144838705738934 -12.81773585637857948427 2.44066075560870343608 -5.18853755038493780205 -2.64547144838705738934 2.44066075560870343608 4.98372685760658384879 -0.10240534638917689336 -5.18853755038493780205 -5.18853755038493780205 -5.18853755038493780205 -2.64547144838705738934 2.44066075560870343608 2.44066075560870343608 -2.64547144838705738934 -0.10240534638917689336 -0.10240534638917689336 -0.10240534638917689336 -0.10240534638917689336 -2.64547144838705738934 -2.64547144838705738934 -7.73160365238281954703 -0.10240534638917689336 4.98372685760658384879 4.98372685760658384879 2.44066075560870343608 -10.27466975438069773929 -5.18853755038493780205 -5.18853755038493780205 -7.73160365238281954703 -0.10240534638917689336 -5.18853755038493780205 -5.18853755038493780205 -5.18853755038493780205 -5.18853755038493780205 -0.10240534638917689336 -7.73160365238281954703 2.44066075560870343608 2.44066075560870343608 -2.64547144838705738934 -0.10240534638917689336 -2.64547144838705738934 -7.73160365238281954703 -7.73160365238281954703 -5.18853755038493780205 2.44066075560870343608 2.44066075560870343608 -2.64547144838705738934 -2.64547144838705738934 -5.18853755038493780205 -2.64547144838705738934 -2.64547144838705738934 -0.10240534638917689336 2.44066075560870343608 2.44066075560870343608 -2.64547144838705738934 -2.64547144838705738934 -2.64547144838705738934 4.98372685760658384879 2.44066075560870343608 -0.10240534638917689336 -0.10240534638917689336 4.98372685760658384879 -0.10240534638917689336 2.44066075560870343608 -0.10240534638917689336 4.98372685760658384879 -2.64547144838705738934 2.44066075560870343608 -0.10240534638917689336 2.44066075560870343608 -0.10240534638917689336 -7.73160365238281954703 -2.64547144838705738934 2.44066075560870343608 2.44066075560870343608 4.98372685760658384879 -0.10240534638917689336 2.44066075560870343608 2.44066075560870343608 -0.10240534638917689336 -0.10240534638917689336 -0.10240534638917689336 -0.10240534638917689336 -0.10240534638917689336 2.44066075560870343608 -0.10240534638917689336 -5.18853755038493780205 -2.64547144838705738934 -2.64547144838705738934 -7.73160365238281954703 -2.64547144838705738934 -5.18853755038493780205 -5.18853755038493780205 -7.73160365238281954703 -5.18853755038493780205 -2.64547144838705738934 -2.64547144838705738934 -5.18853755038493780205 -2.64547144838705738934 -0.10240534638917689336 -5.18853755038493780205 -5.18853755038493780205 -5.18853755038493780205 -5.18853755038493780205 -10.27466975438069773929 -5.18853755038493780205 -7.73160365238281954703 -2.64547144838705738934 -2.64547144838705738934 -2.64547144838705738934 -2.64547144838705738934 -2.64547144838705738934 -7.73160365238281954703 -7.73160365238281954703 -15.36080195837645945289 -2.64547144838705738934 -2.64547144838705738934 -2.64547144838705738934 -0.10240534638917689336 -2.64547144838705738934 -2.64547144838705738934 -5.18853755038493780205 -5.18853755038493780205 -0.10240534638917689336 -2.64547144838705738934 -0.10240534638917689336 -2.64547144838705738934 -7.73160365238281954703 -7.73160365238281954703 -0.10240534638917689336 -5.18853755038493780205 -2.64547144838705738934 -0.10240534638917689336 -2.64547144838705738934 4.98372685760658384879 -0.10240534638917689336 -2.64547144838705738934 -5.18853755038493780205 -5.18853755038493780205 -5.18853755038493780205 -0.10240534638917689336 -2.64547144838705738934 -0.10240534638917689336 -0.10240534638917689336 -0.10240534638917689336 -0.10240534638917689336 -0.10240534638917689336 -5.18853755038493780205 2.44066075560870343608 2.44066075560870343608 2.44066075560870343608 2.44066075560870343608 4.98372685760658384879 -0.10240534638917689336 2.44066075560870343608 2.44066075560870343608 4.98372685760658384879 2.44066075560870343608 -2.64547144838705738934 -0.10240534638917689336 -0.10240534638917689336 7.52679295960446470559 -2.64547144838705738934 -0.10240534638917689336 -0.10240534638917689336 -5.18853755038493780205 2.44066075560870343608 -0.10240534638917689336 2.44066075560870343608 2.44066075560870343608 4.98372685760658384879 2.44066075560870343608 2.44066075560870343608 -0.10240534638917689336 -0.10240534638917689336 -2.64547144838705738934 4.98372685760658384879 -0.10240534638917689336 -0.10240534638917689336 -0.10240534638917689336 2.44066075560870343608 -0.10240534638917689336 -2.64547144838705738934 4.98372685760658384879 4.98372685760658384879 4.98372685760658384879 2.44066075560870343608 -2.64547144838705738934 2.44066075560870343608 2.44066075560870343608 2.44066075560870343608 7.52679295960446470559 -0.10240534638917689336 2.44066075560870343608 4.98372685760658384879 4.98372685760658384879 2.44066075560870343608 7.52679295960446470559 12.61292516360022730737 10.06985906160234556239 4.98372685760658384879 4.98372685760658384879 12.61292516360022730737 2.44066075560870343608 4.98372685760658384879 7.52679295960446470559 7.52679295960446470559 12.61292516360022730737 10.06985906160234556239 2.44066075560870343608 7.52679295960446470559 7.52679295960446470559 7.52679295960446470559 2.44066075560870343608 12.61292516360022730737 10.06985906160234556239 10.06985906160234556239 10.06985906160234556239 12.61292516360022730737 7.52679295960446470559 4.98372685760658384879 -0.10240534638917689336 4.98372685760658384879 10.06985906160234556239 4.98372685760658384879 12.61292516360022730737 12.61292516360022730737 12.61292516360022730737 7.52679295960446470559 2.44066075560870343608 2.44066075560870343608 2.44066075560870343608 4.98372685760658384879 4.98372685760658384879 10.06985906160234556239 7.52679295960446470559 10.06985906160234556239 4.98372685760658384879 7.52679295960446470559 2.44066075560870343608 4.98372685760658384879 7.52679295960446470559 10.06985906160234556239 10.06985906160234556239 2.44066075560870343608 2.44066075560870343608 4.98372685760658384879 7.52679295960446470559 -0.10240534638917689336 4.98372685760658384879 7.52679295960446470559 10.06985906160234556239 2.44066075560870343608 2.44066075560870343608 4.98372685760658384879 -0.10240534638917689336 -0.10240534638917689336 2.44066075560870343608 2.44066075560870343608 7.52679295960446470559 4.98372685760658384879 -2.64547144838705738934 2.44066075560870343608 -0.10240534638917689336 2.44066075560870343608 4.98372685760658384879 4.98372685760658384879 2.44066075560870343608 2.44066075560870343608 2.44066075560870343608 -2.64547144838705738934 -0.10240534638917689336 -0.10240534638917689336 -0.10240534638917689336 4.98372685760658384879 -2.64547144838705738934 -0.10240534638917689336 -0.10240534638917689336 2.44066075560870343608 -0.10240534638917689336 -2.64547144838705738934 -0.10240534638917689336 -2.64547144838705738934 -0.10240534638917689336 -0.10240534638917689336 -2.64547144838705738934 2.44066075560870343608 -2.64547144838705738934 -5.18853755038493780205 -7.73160365238281954703 -7.73160365238281954703 -5.18853755038493780205 -0.10240534638917689336 -0.10240534638917689336 -0.10240534638917689336 2.44066075560870343608 -5.18853755038493780205 -2.64547144838705738934 -0.10240534638917689336 -0.10240534638917689336 -2.64547144838705738934 2.44066075560870343608 4.98372685760658384879 -0.10240534638917689336 -0.10240534638917689336 -7.73160365238281954703 -2.64547144838705738934 -2.64547144838705738934 2.44066075560870343608 2.44066075560870343608 7.52679295960446470559 2.44066075560870343608 2.44066075560870343608 4.98372685760658384879 -0.10240534638917689336 2.44066075560870343608 10.06985906160234556239 4.98372685760658384879 2.44066075560870343608 7.52679295960446470559 -0.10240534638917689336 4.98372685760658384879 4.98372685760658384879 10.06985906160234556239 4.98372685760658384879 4.98372685760658384879 2.44066075560870343608 4.98372685760658384879 4.98372685760658384879 4.98372685760658384879 4.98372685760658384879 2.44066075560870343608 2.44066075560870343608 7.52679295960446470559 7.52679295960446470559 7.52679295960446470559 2.44066075560870343608 4.98372685760658384879 4.98372685760658384879 10.06985906160234556239 4.98372685760658384879 2.44066075560870343608 2.44066075560870343608 4.98372685760658384879 2.44066075560870343608 -0.10240534638917689336 4.98372685760658384879 4.98372685760658384879 7.52679295960446470559 7.52679295960446470559 10.06985906160234556239 -2.64547144838705738934 4.98372685760658384879 10.06985906160234556239 2.44066075560870343608 10.06985906160234556239 2.44066075560870343608 4.98372685760658384879 2.44066075560870343608 -0.10240534638917689336 10.06985906160234556239 7.52679295960446470559 4.98372685760658384879 4.98372685760658384879 -0.10240534638917689336 4.98372685760658384879 7.52679295960446470559 2.44066075560870343608 -0.10240534638917689336 2.44066075560870343608 -0.10240534638917689336 7.52679295960446470559 2.44066075560870343608 7.52679295960446470559 -0.10240534638917689336 4.98372685760658384879 -0.10240534638917689336 4.98372685760658384879 4.98372685760658384879 10.06985906160234556239 4.98372685760658384879 2.44066075560870343608 4.98372685760658384879 2.44066075560870343608 -0.10240534638917689336 2.44066075560870343608 2.44066075560870343608 4.98372685760658384879 -0.10240534638917689336 2.44066075560870343608 2.44066075560870343608 10.06985906160234556239 -0.10240534638917689336 4.98372685760658384879 -0.10240534638917689336 -0.10240534638917689336 7.52679295960446470559 4.98372685760658384879 -0.10240534638917689336 -0.10240534638917689336 10.06985906160234556239 4.98372685760658384879 7.52679295960446470559 7.52679295960446470559 2.44066075560870343608 2.44066075560870343608 -0.10240534638917689336 -0.10240534638917689336 2.44066075560870343608 7.52679295960446470559 4.98372685760658384879 2.44066075560870343608 7.52679295960446470559 -5.18853755038493780205 4.98372685760658384879 2.44066075560870343608 4.98372685760658384879 2.44066075560870343608 2.44066075560870343608 4.98372685760658384879 4.98372685760658384879 -0.10240534638917689336 2.44066075560870343608 2.44066075560870343608 4.98372685760658384879 2.44066075560870343608 10.06985906160234556239 -2.64547144838705738934 2.44066075560870343608 -2.64547144838705738934 2.44066075560870343608 4.98372685760658384879 -0.10240534638917689336 2.44066075560870343608 4.98372685760658384879 -2.64547144838705738934 -0.10240534638917689336 2.44066075560870343608 4.98372685760658384879 -0.10240534638917689336 -2.64547144838705738934 -0.10240534638917689336 2.44066075560870343608 -2.64547144838705738934 -0.10240534638917689336 2.44066075560870343608 4.98372685760658384879 10.06985906160234556239 -0.10240534638917689336 -0.10240534638917689336 4.98372685760658384879 -5.18853755038493780205 -2.64547144838705738934 4.98372685760658384879 2.44066075560870343608 -0.10240534638917689336 -2.64547144838705738934 -0.10240534638917689336 -0.10240534638917689336 2.44066075560870343608 -2.64547144838705738934 2.44066075560870343608 -0.10240534638917689336 2.44066075560870343608 -2.64547144838705738934 -5.18853755038493780205 -2.64547144838705738934 -5.18853755038493780205 -0.10240534638917689336 -2.64547144838705738934 -0.10240534638917689336 -0.10240534638917689336 -2.64547144838705738934 -0.10240534638917689336 -0.10240534638917689336 -5.18853755038493780205 -5.18853755038493780205 -5.18853755038493780205 -2.64547144838705738934 -2.64547144838705738934 2.44066075560870343608 -7.73160365238281954703 -0.10240534638917689336 -2.64547144838705738934 -5.18853755038493780205 -10.27466975438069773929 -5.18853755038493780205 -0.10240534638917689336 -2.64547144838705738934 -5.18853755038493780205 -7.73160365238281954703 -7.73160365238281954703 -7.73160365238281954703 -12.81773585637857948427 -12.81773585637857948427 -7.73160365238281954703 -5.18853755038493780205 -0.10240534638917689336 -7.73160365238281954703 -10.27466975438069773929 -10.27466975438069773929 -7.73160365238281954703 -12.81773585637857948427 -7.73160365238281954703 -7.73160365238281954703 -2.64547144838705738934 -7.73160365238281954703 -10.27466975438069773929 -7.73160365238281954703 -7.73160365238281954703 -7.73160365238281954703 -5.18853755038493780205 2.44066075560870343608 -2.64547144838705738934 -2.64547144838705738934 -2.64547144838705738934 -2.64547144838705738934 -5.18853755038493780205 -5.18853755038493780205 -7.73160365238281954703 -2.64547144838705738934 -2.64547144838705738934 -2.64547144838705738934 -7.73160365238281954703 -2.64547144838705738934 -5.18853755038493780205 -7.73160365238281954703 -7.73160365238281954703 -0.10240534638917689336 -5.18853755038493780205 -2.64547144838705738934 2.44066075560870343608 -7.73160365238281954703 -5.18853755038493780205 -7.73160365238281954703 -5.18853755038493780205 -2.64547144838705738934 -2.64547144838705738934 2.44066075560870343608 -2.64547144838705738934 -5.18853755038493780205 -5.18853755038493780205 -5.18853755038493780205 -2.64547144838705738934 -0.10240534638917689336 -2.64547144838705738934 -2.64547144838705738934 -5.18853755038493780205 -0.10240534638917689336 -0.10240534638917689336 -2.64547144838705738934 4.98372685760658384879 2.44066075560870343608 -0.10240534638917689336 4.98372685760658384879 -2.64547144838705738934 2.44066075560870343608 4.98372685760658384879 2.44066075560870343608 4.98372685760658384879 10.06985906160234556239 10.06985906160234556239 4.98372685760658384879 2.44066075560870343608 2.44066075560870343608 2.44066075560870343608 2.44066075560870343608 2.44066075560870343608 10.06985906160234556239 10.06985906160234556239 10.06985906160234556239 12.61292516360022730737 4.98372685760658384879 -2.64547144838705738934 2.44066075560870343608 7.52679295960446470559 4.98372685760658384879 12.61292516360022730737 4.98372685760658384879 2.44066075560870343608 2.44066075560870343608 -0.10240534638917689336 2.44066075560870343608 4.98372685760658384879 4.98372685760658384879 10.06985906160234556239 4.98372685760658384879 4.98372685760658384879 4.98372685760658384879 -0.10240534638917689336 2.44066075560870343608 2.44066075560870343608 4.98372685760658384879 7.52679295960446470559 7.52679295960446470559 4.98372685760658384879 -0.10240534638917689336 2.44066075560870343608 -5.18853755038493780205 4.98372685760658384879 -5.18853755038493780205 2.44066075560870343608 2.44066075560870343608 7.52679295960446470559 2.44066075560870343608 -0.10240534638917689336 -5.18853755038493780205 -0.10240534638917689336 -2.64547144838705738934 -0.10240534638917689336 2.44066075560870343608 2.44066075560870343608 -2.64547144838705738934 -2.64547144838705738934 -5.18853755038493780205 -5.18853755038493780205 4.98372685760658384879 2.44066075560870343608 4.98372685760658384879 -2.64547144838705738934 -0.10240534638917689336 -0.10240534638917689336 2.44066075560870343608 2.44066075560870343608 2.44066075560870343608 -0.10240534638917689336 -0.10240534638917689336 -0.10240534638917689336 -0.10240534638917689336 -2.64547144838705738934 -2.64547144838705738934 -0.10240534638917689336 -0.10240534638917689336 2.44066075560870343608 -2.64547144838705738934 -5.18853755038493780205 -2.64547144838705738934 -0.10240534638917689336 2.44066075560870343608 2.44066075560870343608 4.98372685760658384879 -0.10240534638917689336 -2.64547144838705738934 -0.10240534638917689336 -0.10240534638917689336 -0.10240534638917689336 -0.10240534638917689336 -5.18853755038493780205 -2.64547144838705738934 -7.73160365238281954703 -5.18853755038493780205 -2.64547144838705738934 -0.10240534638917689336 2.44066075560870343608 -0.10240534638917689336 -0.10240534638917689336 -0.10240534638917689336 -5.18853755038493780205 -5.18853755038493780205 -5.18853755038493780205 -7.73160365238281954703 -7.73160365238281954703 -10.27466975438069773929 -5.18853755038493780205 -5.18853755038493780205 -0.10240534638917689336 -10.27466975438069773929 -7.73160365238281954703 -7.73160365238281954703 -12.81773585637857948427 -15.36080195837645945289 -12.81773585637857948427 -10.27466975438069773929 -10.27466975438069773929 -12.81773585637857948427 -10.27466975438069773929 -10.27466975438069773929 -15.36080195837645945289 -15.36080195837645945289 -12.81773585637857948427 -20.44693416237221939014 -20.44693416237221939014 -12.81773585637857948427 -15.36080195837645945289 -15.36080195837645945289 -17.90386806037433942151 -10.27466975438069773929 -20.44693416237221939014 -20.44693416237221939014 -15.36080195837645945289 -15.36080195837645945289 -10.27466975438069773929 -12.81773585637857948427 -20.44693416237221939014 -17.90386806037433942151 -15.36080195837645945289 -15.36080195837645945289 -15.36080195837645945289 -17.90386806037433942151 -15.36080195837645945289 -12.81773585637857948427 -10.27466975438069773929 -15.36080195837645945289 -15.36080195837645945289 -17.90386806037433942151 -17.90386806037433942151 -15.36080195837645945289 -17.90386806037433942151 -15.36080195837645945289 -15.36080195837645945289 -12.81773585637857948427 -12.81773585637857948427 -12.81773585637857948427 -12.81773585637857948427 -15.36080195837645945289 -12.81773585637857948427 -17.90386806037433942151 -17.90386806037433942151 -15.36080195837645945289 -12.81773585637857948427 -10.27466975438069773929 -15.36080195837645945289 -10.27466975438069773929 -12.81773585637857948427 -12.81773585637857948427 -12.81773585637857948427 -10.27466975438069773929 -5.18853755038493780205 -7.73160365238281954703 -7.73160365238281954703 -7.73160365238281954703 -17.90386806037433942151 -10.27466975438069773929 -17.90386806037433942151 -10.27466975438069773929 -5.18853755038493780205 -10.27466975438069773929 -10.27466975438069773929 -7.73160365238281954703 -5.18853755038493780205 -10.27466975438069773929 -12.81773585637857948427 -7.73160365238281954703 -10.27466975438069773929 -7.73160365238281954703 -7.73160365238281954703 -2.64547144838705738934 -7.73160365238281954703 -7.73160365238281954703 -5.18853755038493780205 -10.27466975438069773929 -12.81773585637857948427 -2.64547144838705738934 -2.64547144838705738934 -0.10240534638917689336 -5.18853755038493780205 -5.18853755038493780205 -5.18853755038493780205 -10.27466975438069773929 -7.73160365238281954703 -10.27466975438069773929 -5.18853755038493780205 -0.10240534638917689336 -2.64547144838705738934 -10.27466975438069773929 -2.64547144838705738934 -2.64547144838705738934 -2.64547144838705738934 -2.64547144838705738934 -0.10240534638917689336 -0.10240534638917689336 2.44066075560870343608 -0.10240534638917689336 -0.10240534638917689336 -5.18853755038493780205 -5.18853755038493780205 -0.10240534638917689336 2.44066075560870343608 2.44066075560870343608 -0.10240534638917689336 -7.73160365238281954703 -2.64547144838705738934 -0.10240534638917689336 -2.64547144838705738934 -2.64547144838705738934 2.44066075560870343608 2.44066075560870343608 -0.10240534638917689336 -0.10240534638917689336 -2.64547144838705738934 -2.64547144838705738934 -5.18853755038493780205 2.44066075560870343608 7.52679295960446470559 -0.10240534638917689336 7.52679295960446470559 2.44066075560870343608 4.98372685760658384879 -0.10240534638917689336 -2.64547144838705738934 -2.64547144838705738934 2.44066075560870343608 -5.18853755038493780205 2.44066075560870343608 -2.64547144838705738934 -5.18853755038493780205 2.44066075560870343608 -0.10240534638917689336 -0.10240534638917689336 -5.18853755038493780205 7.52679295960446470559 -2.64547144838705738934 -2.64547144838705738934 -0.10240534638917689336 -5.18853755038493780205 2.44066075560870343608 2.44066075560870343608 -0.10240534638917689336 -0.10240534638917689336 -2.64547144838705738934 -2.64547144838705738934 -2.64547144838705738934 2.44066075560870343608 -2.64547144838705738934 -5.18853755038493780205 -0.10240534638917689336 -2.64547144838705738934 -0.10240534638917689336 -2.64547144838705738934 -7.73160365238281954703 -0.10240534638917689336 2.44066075560870343608 -0.10240534638917689336 -0.10240534638917689336 -2.64547144838705738934 -5.18853755038493780205 -2.64547144838705738934 -7.73160365238281954703 -10.27466975438069773929 -5.18853755038493780205 -2.64547144838705738934 -0.10240534638917689336 -7.73160365238281954703 -5.18853755038493780205 -7.73160365238281954703 -2.64547144838705738934 -5.18853755038493780205 -2.64547144838705738934 2.44066075560870343608 -2.64547144838705738934 -0.10240534638917689336 -5.18853755038493780205 -5.18853755038493780205 -7.73160365238281954703 -2.64547144838705738934 -2.64547144838705738934 -0.10240534638917689336 -0.10240534638917689336 -2.64547144838705738934 -2.64547144838705738934 -0.10240534638917689336 -0.10240534638917689336 -2.64547144838705738934 2.44066075560870343608 4.98372685760658384879 2.44066075560870343608 2.44066075560870343608 4.98372685760658384879 2.44066075560870343608 7.52679295960446470559 4.98372685760658384879 2.44066075560870343608 -0.10240534638917689336 2.44066075560870343608 -0.10240534638917689336 -0.10240534638917689336 4.98372685760658384879 4.98372685760658384879 4.98372685760658384879 2.44066075560870343608 10.06985906160234556239 4.98372685760658384879 7.52679295960446470559 2.44066075560870343608 2.44066075560870343608 -0.10240534638917689336 2.44066075560870343608 7.52679295960446470559 2.44066075560870343608 4.98372685760658384879 2.44066075560870343608 2.44066075560870343608 -0.10240534638917689336 -0.10240534638917689336 -2.64547144838705738934 -2.64547144838705738934 -2.64547144838705738934 2.44066075560870343608 -2.64547144838705738934 2.44066075560870343608 2.44066075560870343608 2.44066075560870343608 -5.18853755038493780205 -0.10240534638917689336 -5.18853755038493780205 -2.64547144838705738934 -5.18853755038493780205 -0.10240534638917689336 -2.64547144838705738934 -2.64547144838705738934 -5.18853755038493780205 -2.64547144838705738934 -12.81773585637857948427 -10.27466975438069773929 -7.73160365238281954703 -7.73160365238281954703 -2.64547144838705738934 -5.18853755038493780205 -5.18853755038493780205 -7.73160365238281954703 -7.73160365238281954703 -2.64547144838705738934 -10.27466975438069773929 -15.36080195837645945289 -12.81773585637857948427 -7.73160365238281954703 -7.73160365238281954703 -5.18853755038493780205 -7.73160365238281954703 -7.73160365238281954703 -15.36080195837645945289 -12.81773585637857948427 -15.36080195837645945289 -12.81773585637857948427 -10.27466975438069773929 -12.81773585637857948427 -10.27466975438069773929 -12.81773585637857948427 -15.36080195837645945289 -15.36080195837645945289 -10.27466975438069773929 -12.81773585637857948427 -10.27466975438069773929 -15.36080195837645945289 -12.81773585637857948427 -10.27466975438069773929 -10.27466975438069773929 -17.90386806037433942151 -12.81773585637857948427 -15.36080195837645945289 -15.36080195837645945289 -10.27466975438069773929 -10.27466975438069773929 -12.81773585637857948427 -10.27466975438069773929 -12.81773585637857948427 -10.27466975438069773929 -15.36080195837645945289 -7.73160365238281954703 -5.18853755038493780205 -10.27466975438069773929 -10.27466975438069773929 -12.81773585637857948427 -15.36080195837645945289 -17.90386806037433942151 -10.27466975438069773929 -12.81773585637857948427 -15.36080195837645945289 -15.36080195837645945289 -15.36080195837645945289 -20.44693416237221939014 -15.36080195837645945289 -15.36080195837645945289 -15.36080195837645945289 -15.36080195837645945289 -15.36080195837645945289 -12.81773585637857948427 -15.36080195837645945289 -17.90386806037433942151 -15.36080195837645945289 -15.36080195837645945289 -12.81773585637857948427 -15.36080195837645945289 -15.36080195837645945289 -12.81773585637857948427 -12.81773585637857948427 -12.81773585637857948427 -12.81773585637857948427 -10.27466975438069773929 -17.90386806037433942151 -17.90386806037433942151 -12.81773585637857948427 -12.81773585637857948427 -7.73160365238281954703 -12.81773585637857948427 -10.27466975438069773929 -10.27466975438069773929 -7.73160365238281954703 -12.81773585637857948427 -10.27466975438069773929 -7.73160365238281954703 -5.18853755038493780205 -7.73160365238281954703 -10.27466975438069773929 -10.27466975438069773929 -7.73160365238281954703 -2.64547144838705738934 -5.18853755038493780205 -0.10240534638917689336 2.44066075560870343608 -0.10240534638917689336 -5.18853755038493780205 -2.64547144838705738934 -0.10240534638917689336 -2.64547144838705738934 -2.64547144838705738934 -5.18853755038493780205 -5.18853755038493780205 -2.64547144838705738934 -5.18853755038493780205 -0.10240534638917689336 -2.64547144838705738934 -2.64547144838705738934 2.44066075560870343608 -7.73160365238281954703 -5.18853755038493780205 -2.64547144838705738934 -0.10240534638917689336 2.44066075560870343608 4.98372685760658384879 4.98372685760658384879 2.44066075560870343608 4.98372685760658384879 -2.64547144838705738934 2.44066075560870343608 -0.10240534638917689336 2.44066075560870343608 -2.64547144838705738934 -5.18853755038493780205 -5.18853755038493780205 -7.73160365238281954703 -7.73160365238281954703 -7.73160365238281954703 -2.64547144838705738934 -5.18853755038493780205 -2.64547144838705738934 -7.73160365238281954703 -7.73160365238281954703 -0.10240534638917689336 -2.64547144838705738934 -5.18853755038493780205 -10.27466975438069773929 -10.27466975438069773929 -5.18853755038493780205 -2.64547144838705738934 -0.10240534638917689336 -10.27466975438069773929 -10.27466975438069773929 -7.73160365238281954703 -2.64547144838705738934 -7.73160365238281954703 -5.18853755038493780205 -2.64547144838705738934 -10.27466975438069773929 -2.64547144838705738934 -2.64547144838705738934 -2.64547144838705738934 -5.18853755038493780205 -2.64547144838705738934 -5.18853755038493780205 -7.73160365238281954703 -2.64547144838705738934 -0.10240534638917689336 -2.64547144838705738934 -12.81773585637857948427 -10.27466975438069773929 -7.73160365238281954703 -2.64547144838705738934 -5.18853755038493780205 -7.73160365238281954703 -0.10240534638917689336 -7.73160365238281954703 -2.64547144838705738934 -0.10240534638917689336 -5.18853755038493780205 -5.18853755038493780205 -5.18853755038493780205 -7.73160365238281954703 -10.27466975438069773929 -7.73160365238281954703 -10.27466975438069773929 -7.73160365238281954703 -2.64547144838705738934 -2.64547144838705738934 -0.10240534638917689336 -10.27466975438069773929 -10.27466975438069773929 -7.73160365238281954703 -12.81773585637857948427 -10.27466975438069773929 -5.18853755038493780205 -12.81773585637857948427 -12.81773585637857948427 -12.81773585637857948427 -15.36080195837645945289 -10.27466975438069773929 -7.73160365238281954703 -10.27466975438069773929 -12.81773585637857948427 -10.27466975438069773929 -15.36080195837645945289 -7.73160365238281954703 -12.81773585637857948427 -15.36080195837645945289 -12.81773585637857948427 -15.36080195837645945289 -12.81773585637857948427 -7.73160365238281954703 -12.81773585637857948427 -7.73160365238281954703 -15.36080195837645945289 -10.27466975438069773929 -7.73160365238281954703 -7.73160365238281954703 -10.27466975438069773929 -2.64547144838705738934 -5.18853755038493780205 -5.18853755038493780205 -10.27466975438069773929 -10.27466975438069773929 -7.73160365238281954703 -10.27466975438069773929 -10.27466975438069773929 -12.81773585637857948427 -10.27466975438069773929 -12.81773585637857948427 -10.27466975438069773929 -17.90386806037433942151 -12.81773585637857948427 -7.73160365238281954703 -7.73160365238281954703 -15.36080195837645945289 -15.36080195837645945289 -10.27466975438069773929 -5.18853755038493780205 -5.18853755038493780205 -10.27466975438069773929 -7.73160365238281954703 -5.18853755038493780205 -5.18853755038493780205 -10.27466975438069773929 -7.73160365238281954703 -10.27466975438069773929 -7.73160365238281954703 -12.81773585637857948427 -12.81773585637857948427 -2.64547144838705738934 -12.81773585637857948427 -12.81773585637857948427 -10.27466975438069773929 -12.81773585637857948427 -12.81773585637857948427 -10.27466975438069773929 -10.27466975438069773929 -10.27466975438069773929 -15.36080195837645945289 -10.27466975438069773929 -12.81773585637857948427 -5.18853755038493780205 -10.27466975438069773929 -7.73160365238281954703 -12.81773585637857948427 -12.81773585637857948427 -7.73160365238281954703 -7.73160365238281954703 -7.73160365238281954703 -7.73160365238281954703 -12.81773585637857948427 -15.36080195837645945289 -12.81773585637857948427 -10.27466975438069773929 -10.27466975438069773929 -15.36080195837645945289 -12.81773585637857948427 -12.81773585637857948427 -17.90386806037433942151 -20.44693416237221939014 -17.90386806037433942151 -15.36080195837645945289 -10.27466975438069773929 -12.81773585637857948427 -15.36080195837645945289 -17.90386806037433942151 -20.44693416237221939014 -17.90386806037433942151 -25.53306636636798288009 -20.44693416237221939014 -17.90386806037433942151 -20.44693416237221939014 -20.44693416237221939014 -15.36080195837645945289 -20.44693416237221939014 -22.99000026437010291147 -20.44693416237221939014 -20.44693416237221939014 -25.53306636636798288009 -22.99000026437010291147 -17.90386806037433942151 -20.44693416237221939014 -22.99000026437010291147 -17.90386806037433942151 -20.44693416237221939014 -22.99000026437010291147 -22.99000026437010291147 -15.36080195837645945289 -12.81773585637857948427 -20.44693416237221939014 -17.90386806037433942151 -15.36080195837645945289 -20.44693416237221939014 -12.81773585637857948427 -17.90386806037433942151 -12.81773585637857948427 -12.81773585637857948427 -15.36080195837645945289 -20.44693416237221939014 -12.81773585637857948427 -15.36080195837645945289 -15.36080195837645945289 -15.36080195837645945289 -10.27466975438069773929 -12.81773585637857948427 -15.36080195837645945289 -20.44693416237221939014 -12.81773585637857948427 -7.73160365238281954703 -12.81773585637857948427 -10.27466975438069773929 -7.73160365238281954703 -12.81773585637857948427 -12.81773585637857948427 -12.81773585637857948427 -10.27466975438069773929 -7.73160365238281954703 -5.18853755038493780205 -10.27466975438069773929 -10.27466975438069773929 -7.73160365238281954703 -10.27466975438069773929 -12.81773585637857948427 -5.18853755038493780205 -2.64547144838705738934 -0.10240534638917689336 -2.64547144838705738934 -5.18853755038493780205 -5.18853755038493780205 -10.27466975438069773929 -7.73160365238281954703 -10.27466975438069773929 -7.73160365238281954703 -5.18853755038493780205 -5.18853755038493780205 -5.18853755038493780205 -5.18853755038493780205 -7.73160365238281954703 -2.64547144838705738934 -5.18853755038493780205 -2.64547144838705738934 -2.64547144838705738934 -5.18853755038493780205 -0.10240534638917689336 -2.64547144838705738934 -5.18853755038493780205 -2.64547144838705738934 -10.27466975438069773929 -7.73160365238281954703 -2.64547144838705738934 -2.64547144838705738934 -0.10240534638917689336 -0.10240534638917689336 -7.73160365238281954703 -10.27466975438069773929 -7.73160365238281954703 -10.27466975438069773929 -7.73160365238281954703 -7.73160365238281954703 -0.10240534638917689336 -2.64547144838705738934 -2.64547144838705738934 -10.27466975438069773929 -5.18853755038493780205 -5.18853755038493780205 -15.36080195837645945289 -5.18853755038493780205 -2.64547144838705738934 -2.64547144838705738934 -5.18853755038493780205 -7.73160365238281954703 -5.18853755038493780205 -5.18853755038493780205 -5.18853755038493780205 -5.18853755038493780205 -0.10240534638917689336 -2.64547144838705738934 -2.64547144838705738934 -5.18853755038493780205 -10.27466975438069773929 -0.10240534638917689336 -5.18853755038493780205 -2.64547144838705738934 -2.64547144838705738934 -0.10240534638917689336 -5.18853755038493780205 -0.10240534638917689336 -2.64547144838705738934 -5.18853755038493780205 -7.73160365238281954703 -10.27466975438069773929 -5.18853755038493780205 -2.64547144838705738934 -2.64547144838705738934 -5.18853755038493780205 -5.18853755038493780205 -2.64547144838705738934 -2.64547144838705738934 -5.18853755038493780205 -7.73160365238281954703 -5.18853755038493780205 -2.64547144838705738934 -2.64547144838705738934 -7.73160365238281954703 -10.27466975438069773929 -5.18853755038493780205 -7.73160365238281954703 -7.73160365238281954703 -2.64547144838705738934 -5.18853755038493780205 -2.64547144838705738934 -5.18853755038493780205 -5.18853755038493780205 -5.18853755038493780205 -2.64547144838705738934 -10.27466975438069773929 -0.10240534638917689336 -0.10240534638917689336 2.44066075560870343608 -0.10240534638917689336 -5.18853755038493780205 -0.10240534638917689336 -2.64547144838705738934 -2.64547144838705738934 -0.10240534638917689336 -5.18853755038493780205 -2.64547144838705738934 -2.64547144838705738934 -2.64547144838705738934 -0.10240534638917689336 -7.73160365238281954703 -7.73160365238281954703 -2.64547144838705738934 -7.73160365238281954703 -0.10240534638917689336 -0.10240534638917689336 -0.10240534638917689336 -0.10240534638917689336 -0.10240534638917689336 -2.64547144838705738934 -5.18853755038493780205 -2.64547144838705738934 4.98372685760658384879 -0.10240534638917689336 -0.10240534638917689336 -0.10240534638917689336 4.98372685760658384879 -0.10240534638917689336 -2.64547144838705738934 -7.73160365238281954703 -2.64547144838705738934 2.44066075560870343608 -0.10240534638917689336 2.44066075560870343608 -2.64547144838705738934 -5.18853755038493780205 -2.64547144838705738934 -0.10240534638917689336 -2.64547144838705738934 -2.64547144838705738934 -0.10240534638917689336 4.98372685760658384879 2.44066075560870343608 -0.10240534638917689336 -0.10240534638917689336 -5.18853755038493780205 -2.64547144838705738934 -5.18853755038493780205 -2.64547144838705738934 2.44066075560870343608 -5.18853755038493780205 -0.10240534638917689336 -0.10240534638917689336 -2.64547144838705738934 -0.10240534638917689336 -2.64547144838705738934 -2.64547144838705738934 -0.10240534638917689336 -0.10240534638917689336 -0.10240534638917689336 -2.64547144838705738934 -0.10240534638917689336 -2.64547144838705738934 -5.18853755038493780205 -5.18853755038493780205 2.44066075560870343608 2.44066075560870343608 4.98372685760658384879 -0.10240534638917689336 2.44066075560870343608 -2.64547144838705738934 -2.64547144838705738934 -0.10240534638917689336 2.44066075560870343608 4.98372685760658384879 -2.64547144838705738934 -0.10240534638917689336 -0.10240534638917689336 -0.10240534638917689336 -0.10240534638917689336 -0.10240534638917689336 -2.64547144838705738934 -2.64547144838705738934 -0.10240534638917689336 -2.64547144838705738934 -5.18853755038493780205 -0.10240534638917689336 2.44066075560870343608 -0.10240534638917689336 -2.64547144838705738934 -2.64547144838705738934 -0.10240534638917689336 4.98372685760658384879 -7.73160365238281954703 -5.18853755038493780205 -10.27466975438069773929 -12.81773585637857948427 -2.64547144838705738934 -7.73160365238281954703 -2.64547144838705738934 -7.73160365238281954703 -5.18853755038493780205 -2.64547144838705738934 -5.18853755038493780205 -10.27466975438069773929 -10.27466975438069773929 -10.27466975438069773929 -5.18853755038493780205 -7.73160365238281954703 -7.73160365238281954703 -7.73160365238281954703 -10.27466975438069773929 -10.27466975438069773929 -7.73160365238281954703 -12.81773585637857948427 -12.81773585637857948427 -17.90386806037433942151 -7.73160365238281954703 -12.81773585637857948427 -7.73160365238281954703 -12.81773585637857948427 -7.73160365238281954703 -12.81773585637857948427 -10.27466975438069773929 -20.44693416237221939014 -17.90386806037433942151 -12.81773585637857948427 -7.73160365238281954703 -10.27466975438069773929 -5.18853755038493780205 -12.81773585637857948427 -15.36080195837645945289 -17.90386806037433942151 -12.81773585637857948427 -15.36080195837645945289 -10.27466975438069773929 -12.81773585637857948427 -10.27466975438069773929 -10.27466975438069773929 -10.27466975438069773929 -15.36080195837645945289 -12.81773585637857948427 -12.81773585637857948427 -15.36080195837645945289 -15.36080195837645945289 -10.27466975438069773929 -12.81773585637857948427 -7.73160365238281954703 -10.27466975438069773929 -10.27466975438069773929 -10.27466975438069773929 -10.27466975438069773929 -15.36080195837645945289 -17.90386806037433942151 -7.73160365238281954703 -7.73160365238281954703 -7.73160365238281954703 -2.64547144838705738934 -7.73160365238281954703 -5.18853755038493780205 -10.27466975438069773929 -7.73160365238281954703 -10.27466975438069773929 -5.18853755038493780205 -7.73160365238281954703 -5.18853755038493780205 -2.64547144838705738934 -7.73160365238281954703 -0.10240534638917689336 -7.73160365238281954703 -5.18853755038493780205 -7.73160365238281954703 -5.18853755038493780205 -2.64547144838705738934 -5.18853755038493780205 -5.18853755038493780205 -10.27466975438069773929 -5.18853755038493780205 -7.73160365238281954703 -7.73160365238281954703 -7.73160365238281954703 -2.64547144838705738934 -0.10240534638917689336 -2.64547144838705738934 