0.000000 0.000000 0.000000 -0.000000 0.000000 -0.000000 0.000000 0.000000 0.000000 0.000000 0.000000 0.000000 0.000000 0.000000 0.000000 0.000000 -0.000000 0.000000 0.000000 0.000000 0.000000 0.000000 0.000000 -0.000000 0.000000 0.000000 0.000000 0.000000 0.000000 0.000000 0.000000 0.000000 0.000000 -0.000000 0.000000 -0.000000 0.000000 -0.000000 0.000000 0.000000 -0.000000 -0.000000 0.000000 0.000000 0.000000 -0.000000 0.000000 0.000000 0.000000 0.000000 0.000000 -0.000000 0.000000 0.000000 0.000000 0.000000 0.000000 0.000000 -0.000000 0.000000 0.000000 0.000000 0.000000 0.000000 0.000000 0.000000 0.000000 0.000000 -0.000000 0.000000 0.000000 -0.000000 0.000000 0.000000 0.000000 0.000000 0.000000 0.000000 0.000000 0.000000 0.000000 0.000000 0.000000 0.000000 0.000000 0.000000 0.000000 -0.000000 0.000000 0.000000 0.000000 -0.000000 -0.000000 -0.000001 -0.000005 -0.000019 -0.000054 -0.000128 -0.000265 -0.000497 -0.000866 -0.001419 -0.002210 -0.003299 -0.004750 -0.006631 -0.009011 -0.011961 -0.015548 -0.019839 -0.024897 -0.030781 -0.037544 -0.045232 -0.053887 -0.063539 -0.074215 -0.085933 -0.098701 -0.112521 -0.127388 -0.143289 -0.160204 -0.178106 -0.196963 -0.216738 -0.237387 -0.258864 -0.281116 -0.304091 -0.327730 -0.351976 -0.376767 -0.402043 -0.427740 -0.453796 -0.480150 -0.506741 -0.533507 -0.560391 -0.587334 -0.614283 -0.641183 -0.667984 -0.694637 -0.721096 -0.747319 -0.773265 -0.798895 -0.824176 -0.849074 -0.873561 -0.897609 -0.921193 -0.944291 -0.966878 -0.988927 -1.010408 -1.031284 -1.051517 -1.071057 -1.089855 -1.107852 -1.124986 -1.141195 -1.156410 -1.170566 -1.183595 -1.195432 -1.206016 -1.215290 -1.223204 -1.229716 -1.234797 -1.238432 -1.240618 -1.241370 -1.240718 -1.238708 -1.235401 -1.230870 -1.225203 -1.218496 -1.210855 -1.202392 -1.193225 -1.183474 -1.173260 -1.162706 -1.151928 -1.141044 -1.130164 -1.119393 -1.108830 -1.098566 -1.088685 -1.079262 -1.070364 -1.062049 -1.054368 -1.047361 -1.041062 -1.035497 -1.030683 -1.026630 -1.023344 -1.020822 -1.019057 -1.018034 -1.017738 -1.018146 -1.019233 -1.020970 -1.023328 -1.026272 -1.029769 -1.033781 -1.038272 -1.043205 -1.048542 -1.054245 -1.060277 -1.066601 -1.073182 -1.079984 -1.086974 -1.094118 -1.101387 -1.108750 -1.116179 -1.123648 -1.131129 -1.138596 -1.146016 -1.153356 -1.160576 -1.167628 -1.174461 -1.181017 -1.187231 -1.193036 -1.198358 -1.203123 -1.207256 -1.210680 -1.213322 -1.215112 -1.215981 -1.215870 -1.214730 -1.212521 -1.209219 -1.204813 -1.199309 -1.192730 -1.185111 -1.176505 -1.166978 -1.156608 -1.145482 -1.133698 -1.121359 -1.108574 -1.095454 -1.082113 -1.068661 -1.055210 -1.041867 -1.028734 -1.015908 -1.003480 -0.991532 -0.980141 -0.969375 -0.959293 -0.949947 -0.941380 -0.933626 -0.926713 -0.920660 -0.915479 -0.911176 -0.907748 -0.905190 -0.903488 -0.902625 -0.902578 -0.903322 -0.904828 -0.907062 -0.909992 -0.913579 -0.917785 -0.922571 -0.927898 -0.933723 -0.940007 -0.946708 -0.953787 -0.961204 -0.968920 -0.976898 -0.985102 -0.993496 -1.002047 -1.010722 -1.019492 -1.028327 -1.037198 -1.046074 -1.054921 -1.063700 -1.072370 -1.080878 -1.089171 -1.097185 -1.104855 -1.112109 -1.118871 -1.125066 -1.130616 -1.135442 -1.139471 -1.142631 -1.144853 -1.146081 -1.146264 -1.145368 -1.143370 -1.140263 -1.136057 -1.130777 -1.124463 -1.117171 -1.108969 -1.099937 -1.090164 -1.079749 -1.068795 -1.057411 -1.045707 -1.033794 -1.021784 -1.009785 -0.997900 -0.986230 -0.974869 -0.963903 -0.953414 -0.943473 -0.934146 -0.925489 -0.917550 -0.910369 -0.903979 -0.898403 -0.893660 -0.889758 -0.886702 -0.884487 -0.883106 -0.882544 -0.882784 -0.883801 -0.885570 -0.888061 -0.891242 -0.895077 -0.899530 -0.904564 -0.910138 -0.916215 -0.922752 -0.929712 -0.937054 -0.944738 -0.952727 -0.960982 -0.969468 -0.978148 -0.986991 -0.995962 -1.005031 -1.014169 -1.023347 -1.032537 -1.041706 -1.050819 -1.059838 -1.068717 -1.077403 -1.085838 -1.093961 -1.101701 -1.108986 -1.115741 -1.121890 -1.127354 -1.132058 -1.135927 -1.138892 -1.140886 -1.141849 -1.141728 -1.140476 -1.138055 -1.134432 -1.129585 -1.123499 -1.116169 -1.107596 -1.097790 -1.086768 -1.074554 -1.061179 -1.046680 -1.031101 -1.014487 -0.996892 -0.978371 -0.958982 -0.938788 -0.917851 -0.896236 -0.874009 -0.851237 -0.827985 -0.804319 -0.780304 -0.756003 -0.731480 -0.706793 -0.682002 -0.657162 -0.632327 -0.607549 -0.582875 -0.558352 -0.534021 -0.509924 -0.486097 -0.462577 -0.439392 -0.416572 -0.394143 -0.372128 -0.350547 -0.329420 -0.308762 -0.288586 -0.268904 -0.249726 -0.231060 -0.212910 -0.195280 -0.178174 -0.161592 -0.145534 -0.129997 -0.114980 -0.100478 -0.086488 -0.073009 -0.060041 -0.047591 -0.035670 -0.024296 -0.013491 -0.003286 0.006285 0.015179 0.023354 0.030760 0.037349 0.043070 0.047874 0.051711 0.054536 0.056307 0.056986 0.056539 0.054940 0.052166 0.048204 0.043044 0.036685 0.029131 0.020394 0.010491 -0.000555 -0.012714 -0.025953 -0.040232 -0.055509 -0.071736 -0.088863 -0.106837 -0.125602 -0.145101 -0.165276 -0.186065 -0.207409 -0.229248 -0.251522 -0.274171 -0.297139 -0.320366 -0.343798 -0.367381 -0.391062 -0.414791 -0.438521 -0.462205 -0.485801 -0.509267 -0.532566 -0.555662 -0.578520 -0.601113 -0.623410 -0.645384 -0.667012 -0.688268 -0.709126 -0.729558 -0.749531 -0.769008 -0.787948 -0.806302 -0.824020 -0.841048 -0.857326 -0.872795 -0.887393 -0.901060 -0.913736 -0.925363 -0.935888 -0.945263 -0.953449 -0.960416 -0.966148 -0.970638 -0.973896 -0.975944 -0.976819 -0.976570 -0.975258 -0.972953 -0.969737 -0.965698 -0.960929 -0.955529 -0.949599 -0.943241 -0.936557 -0.929646 -0.922605 -0.915529 -0.908506 -0.901619 -0.894945 -0.888554 -0.882510 -0.876870 -0.871682 -0.866989 -0.862826 -0.859222 -0.856197 -0.853768 -0.851942 -0.850725 -0.850115 -0.850104 -0.850684 -0.851839 -0.853551 -0.855799 -0.858559 -0.861807 -0.865515 -0.869654 -0.874194 -0.879105 -0.884355 -0.889914 -0.895749 -0.901830 -0.908127 -0.914609 -0.921249 -0.928017 -0.934888 -0.941835 -0.948836 -0.955866 -0.962902 -0.969922 -0.976903 -0.983819 -0.990638 -0.997327 -1.003843 -1.010143 -1.016174 -1.021881 -1.027205 -1.032082 -1.036449 -1.040240 -1.043390 -1.045836 -1.047517 -1.048377 -1.048366 -1.047442 -1.045576 -1.042747 -1.038951 -1.034195 -1.028502 -1.021906 -1.014456 -1.006211 -0.997240 -0.987623 -0.977444 -0.966796 -0.955773 -0.944472 -0.932992 -0.921431 -0.909883 -0.898441 -0.887193 -0.876223 -0.865608 -0.855419 -0.845722 -0.836573 -0.828024 -0.820118 -0.812890 -0.806370 -0.800580 -0.795537 -0.791248 -0.787719 -0.784946 -0.782923 -0.781638 -0.781076 -0.781216 -0.782035 -0.783507 -0.785604 -0.788295 -0.791550 -0.795334 -0.799613 -0.804353 -0.809518 -0.815073 -0.820982 -0.827211 -0.833727 -0.840495 -0.847483 -0.854660 -0.861996 -0.869463 -0.877033 -0.884680 -0.892378 -0.900101 -0.907823 -0.915513 -0.923138 -0.930658 -0.938030 -0.945203 -0.952124 -0.958734 -0.964969 -0.970765 -0.976055 -0.980771 -0.984847 -0.988218 -0.990822 -0.992601 -0.993504 -0.993489 -0.992524 -0.990588 -0.987674 -0.983790 -0.978955 -0.973204 -0.966585 -0.959156 -0.950986 -0.942154 -0.932746 -0.922853 -0.912570 -0.901996 -0.891229 -0.880368 -0.869509 -0.858746 -0.848168 -0.837859 -0.827898 -0.818357 -0.809303 -0.800793 -0.792879 -0.785605 -0.779008 -0.773118 -0.767958 -0.763543 -0.759884 -0.756984 -0.754841 -0.753448 -0.752794 -0.752862 -0.753633 -0.755083 -0.757185 -0.759911 -0.763231 -0.767112 -0.771520 -0.776421 -0.781780 -0.787559 -0.793724 -0.800239 -0.807069 -0.814178 -0.821534 -0.829103 -0.836854 -0.844756 -0.852780 -0.860898 -0.869084 -0.877311 -0.885555 -0.893789 -0.901984 -0.910107 -0.918120 -0.925979 -0.933638 -0.941041 -0.948132 -0.954849 -0.961127 -0.966900 -0.972100 -0.976661 -0.980518 -0.983608 -0.985873 -0.987258 -0.987715 -0.987201 -0.985679 -0.983120 -0.979501 -0.974806 -0.969028 -0.962165 -0.954223 -0.945214 -0.935158 -0.924079 -0.912006 -0.898977 -0.885029 -0.870207 -0.854558 -0.838131 -0.820980 -0.803160 -0.784724 -0.765732 -0.746240 -0.726305 -0.705986 -0.685337 -0.664417 -0.643278 -0.621974 -0.600557 -0.579075 -0.557577 -0.536108 -0.514711 -0.493425 -0.472291 -0.451342 -0.430614 -0.410136 -0.389938 -0.370045 -0.350479 -0.331263 -0.312416 -0.293953 -0.275890 -0.258240 -0.241012 -0.224217 -0.207862 -0.191951 -0.176489 -0.161479 -0.146922 -0.132818 -0.119167 -0.105965 -0.093210 -0.080898 -0.069021 -0.057571 -0.046532 -0.035889 -0.025617 -0.015690 -0.006076 0.003260 0.012359 0.021263 0.030018 0.038670 0.047267 0.055856 0.064484 0.073196 0.082035 0.091040 0.100249 0.109695 0.119406 0.129408 0.139721 0.150361 0.161339 0.172663 0.184335 0.196354 0.208714 0.221406 0.234419 0.247736 0.261340 0.275209 0.289321 0.303651 0.318173 0.332860 0.347683 0.362614 0.377625 0.392684 0.407763 0.422833 0.437865 0.452833 0.467709 0.482468 0.497085 0.511537 0.525802 0.539859 0.553688 0.567272 0.580595 0.593641 0.606396 0.618848 0.630987 0.642804 0.654288 0.665429 0.676214 0.686629 0.696655 0.706273 0.715458 0.724182 0.732415 0.740126 0.747281 0.753845 0.759783 0.765061 0.769647 0.773508 0.776618 0.778952 0.780495 0.781236 0.781173 0.780311 0.778667 0.776263 0.773132 0.769313 0.764854 0.759806 0.754227 0.748180 0.741729 0.734941 0.727884 0.720625 0.713231 0.705767 0.698296 0.690877 0.683567 0.676418 0.669477 0.662790 0.656393 0.650322 0.644606 0.639269 0.634333 0.629812 0.625719 0.622061 0.618841 0.616061 0.613717 0.611803 0.610311 0.609230 0.608547 0.608248 0.608316 0.608732 0.609479 0.610536 0.611885 0.613503 0.615371 0.617468 0.619773 0.622266 0.624927 0.627737 0.630677 0.633728 0.636872 0.640093 0.643376 0.646705 0.650065 0.653441 0.656816 0.660172 0.663485 0.666732 0.669882 0.672905 0.675764 0.678423 0.680839 0.682973 0.684782 0.686223 0.687254 0.687836 0.687929 0.687500 0.686518 0.684960 0.682808 0.680055 0.676701 0.672755 0.668234 0.663164 0.657581 0.651524 0.645042 0.638187 0.631014 0.623585 0.615961 0.608204 0.600377 0.592543 0.584761 0.577089 0.569583 0.562294 0.555270 0.548555 0.542188 0.536203 0.530631 0.525497 0.520821 0.516621 0.512907 0.509689 0.506970 0.504749 0.503024 0.501789 0.501034 0.500748 0.500916 0.501524 0.502552 0.503982 0.505793 0.507962 0.510469 0.513291 0.516405 0.519787 0.523415 0.527265 0.531316 0.535546 0.539932 0.544455 0.549094 0.553830 0.558643 0.563517 0.568435 0.573382 0.578339 0.583290 0.588213 0.593086 0.597882 0.602571 0.607121 0.611494 0.615652 0.619555 0.623159 0.626422 0.629301 0.631752 0.633735 0.635212 0.636148 0.636512 0.636281 0.635439 0.633977 0.631897 0.629208 0.625928 0.622085 0.617712 0.612852 0.607551 0.601862 0.595843 0.589552 0.583050 0.576401 0.569667 0.562908 0.556185 0.549554 0.543071 0.536787 0.530747 0.524996 0.519572 0.514509 0.509837 0.505579 0.501757 0.498387 0.495480 0.493044 0.491082 0.489595 0.488580 0.488029 0.487934 0.488284 0.489064 0.490260 0.491854 0.493825 0.496155 0.498822 0.501805 0.505081 0.508628 0.512424 0.516447 0.520673 0.525081 0.529651 0.534360 0.539190 0.544119 0.549131 0.554207 0.559330 0.564484 0.569652 0.574820 0.579967 0.585074 0.590117 0.595070 0.599902 0.604580 0.609067 0.613324 0.617311 0.620984 0.624302 0.627220 0.629698 0.631695 0.633172 0.634094 0.634430 0.634151 0.633232 0.631654 0.629401 0.626463 0.622834 0.618511 0.613497 0.607800 0.601431 0.594404 0.586739 0.578457 0.569584 0.560146 0.550173 0.539698 0.528753 0.517373 0.505594 0.493452 0.480983 0.468225 0.455215 0.441988 0.428581 0.415028 0.401364 0.387622 0.373834 0.360030 0.346240 0.332492 0.318812 0.305225 0.291754 0.278420 0.265245 0.252246 0.239440 0.226842 0.214466 0.202325 0.190430 0.178790 0.167413 0.156308 0.145478 0.134931 0.124668 0.114694 0.105009 0.095616 0.086513 0.077701 0.069179 0.060944 0.052994 0.045325 0.037930 0.030799 0.023915 0.017257 0.010795 0.004494 -0.001689 -0.007802 -0.013901 -0.020045 -0.026296 -0.032720 -0.039381 -0.046347 -0.053682 -0.061449 -0.069705 -0.078506 -0.087901 -0.097934 -0.108642 -0.120057 -0.132203 -0.145096 -0.158749 -0.173164 -0.188339 -0.204265 -0.220927 -0.238305 -0.256371 -0.275097 -0.294448 -0.314385 -0.334866 -0.355848 -0.377285 -0.399127 -0.421327 -0.443833 -0.466595 -0.489563 -0.512685 -0.535913 -0.559197 -0.582490 -0.605746 -0.628921 -0.651972 -0.674859 -0.697543 -0.719987 -0.742159 -0.764026 -0.785559 -0.806730 -0.827515 -0.847893 -0.867842 -0.887345 -0.906382 -0.924934 -0.942980 -0.960492 -0.977440 -0.993789 -1.009498 -1.024521 -1.038810 -1.052312 -1.064972 -1.076732 -1.087538 -1.097332 -1.106061 -1.113674 -1.120128 -1.125383 -1.129413 -1.132201 -1.133743 -1.134048 -1.133139 -1.131053 -1.127840 -1.123561 -1.118287 -1.112100 -1.105090 -1.097352 -1.088985 -1.080092 -1.070777 -1.061144 -1.051295 -1.041329 -1.031343 -1.021426 -1.011666 -1.002141 -0.992925 -0.984082 -0.975673 -0.967749 -0.960354 -0.953526 -0.947294 -0.941682 -0.936707 -0.932380 -0.928705 -0.925684 -0.923310 -0.921574 -0.920462 -0.919958 -0.920041 -0.920687 -0.921872 -0.923567 -0.925745 -0.928374 -0.931424 -0.934864 -0.938661 -0.942785 -0.947204 -0.951886 -0.956802 -0.961921 -0.967216 -0.972658 -0.978220 -0.983877 -0.989606 -0.995383 -1.001186 -1.006991 -1.012771 -1.018497 -1.024133 -1.029639 -1.034971 -1.040076 -1.044901 -1.049385 -1.053465 -1.057077 -1.060154 -1.062631 -1.064444 -1.065531 -1.065832 -1.065298 -1.063882 -1.061553 -1.058287 -1.054076 -1.048925 -1.042851 -1.035888 -1.028080 -1.019483 -1.010165 -1.000202 -0.989678 -0.978683 -0.967310 -0.955656 -0.943818 -0.931895 -0.919981 -0.908168 -0.896546 -0.885199 -0.874204 -0.863634 -0.853555 -0.844024 -0.835095 -0.826811 -0.819209 -0.812319 -0.806166 -0.800764 -0.796125 -0.792254 -0.789148 -0.786801 -0.785203 -0.784338 -0.784186 -0.784726 -0.785932 -0.787775 -0.790225 -0.793250 -0.796816 -0.800890 -0.805436 -0.810419 -0.815804 -0.821554 -0.827635 -0.834014 -0.840655 -0.847526 -0.854596 -0.861834 -0.869210 -0.876697 -0.884269 -0.891900 -0.899564 -0.907235 -0.914883 -0.922475 -0.929974 -0.937335 -0.944511 -0.951447 -0.958086 -0.964366 -0.970221 -0.975585 -0.980390 -0.984570 -0.988059 -0.990795 -0.992720 -0.993784 -0.993944 -0.993172 -0.991449 -0.988770 -0.985146 -0.980599 -0.975165 -0.968893 -0.961844 -0.954086 -0.945699 -0.936766 -0.927379 -0.917630 -0.907615 -0.897430 -0.887170 -0.876927 -0.866792 -0.856848 -0.847177 -0.837853 -0.828944 -0.820512 -0.812611 -0.805289 -0.798587 -0.792538 -0.787170 -0.782503 -0.778550 -0.775319 -0.772813 -0.771028 -0.769956 -0.769585 -0.769899 -0.770877 -0.772497 -0.774733 -0.777556 -0.780936 -0.784842 -0.789241 -0.794100 -0.799384 -0.805060 -0.811092 -0.817447 -0.824092 -0.830992 -0.838117 -0.845436 -0.852917 -0.860532 -0.868254 -0.876056 -0.883914 -0.891802 -0.899695 -0.907566 -0.915383 -0.923112 -0.930711 -0.938135 -0.945333 -0.952249 -0.958822 -0.964989 -0.970685 -0.975842 -0.980394 -0.984274 -0.987419 -0.989769 -0.991268 -0.991864 -0.991512 -0.990173 -0.987814 -0.984410 -0.979942 -0.974400 -0.967778 -0.960080 -0.951316 -0.941502 -0.930660 -0.918818 -0.906009 -0.892271 -0.877646 -0.862180 -0.845921 -0.828921 -0.811234 -0.792915 -0.774020 -0.754606 -0.734731 -0.714453 -0.693827 -0.672911 -0.651759 -0.630425 -0.608960 -0.587416 -0.565839 -0.544277 -0.522773 -0.501369 -0.480103 -0.459013 -0.438133 -0.417494 -0.397127 -0.377057 -0.357310 -0.337906 -0.318867 -0.300208 -0.281946 -0.264094 -0.246664 -0.229665 -0.213105 -0.196990 -0.181325 -0.166113 -0.151355 -0.137053 -0.123205 -0.109811 -0.096866 -0.084369 -0.072316 -0.060707 -0.049545 -0.038840 -0.028605 -0.018863 -0.009644 -0.000984 0.007073 0.014477 0.021175 0.027108 0.032217 0.036441 0.039719 0.041993 0.043207 0.043309 0.042253 0.039998 0.036509 0.031760 0.025729 0.018406 0.009784 -0.000133 -0.011334 -0.023803 -0.037515 -0.052438 -0.068536 -0.085766 -0.104081 -0.123428 -0.143752 -0.164993 -0.187090 -0.209977 -0.233591 -0.257863 -0.282726 -0.308111 -0.333952 -0.360184 -0.386738 -0.413553 -0.440564 -0.467712 -0.494937 -0.522184 -0.549398 -0.576529 -0.603528 -0.630349 -0.656950 -0.683290 -0.709333 -0.735045 -0.760394 -0.785350 -0.809887 -0.833977 -0.857591 -0.880696 -0.903258 -0.925233 -0.946575 -0.967231 -0.987142 -1.006246 -1.024477 -1.041767 -1.058045 -1.073243 -1.087292 -1.100126 -1.111686 -1.121915 -1.130768 -1.138208 -1.144214 -1.148777 -1.151906 -1.153624 -1.153970 -1.152999 -1.150780 -1.147393 -1.142931 -1.137495 -1.131195 -1.124143 -1.116459 -1.108261 -1.099669 -1.090801 -1.081771 -1.072692 -1.063667 -1.054795 -1.046170 -1.037876 -1.029988 -1.022576 -1.015699 -1.009409 -1.003749 -0.998753 -0.994450 -0.990858 -0.987989 -0.985851 -0.984442 -0.983756 -0.983782 -0.984504 -0.985901 -0.987949 -0.990621 -0.993887 -0.997716 -1.002075 -1.006927 -1.012237 -1.017968 -1.024083 -1.030546 -1.037318 -1.044365 -1.051651 -1.059141 -1.066802 -1.074601 -1.082508 -1.090496 -1.098534 -1.106596 -1.114657 -1.122688 -1.130662 -1.138544 -1.146296 -1.153874 -1.161227 -1.168298 -1.175024 -1.181340 -1.187173 -1.192449 -1.197094 -1.201032 -1.204190 -1.206495 -1.207881 -1.208285 -1.207655 -1.205950 -1.203140 -1.199212 -1.194166 -1.188019 -1.180806 -1.172574 -1.163385 -1.153314 -1.142447 -1.130880 -1.118715 -1.106060 -1.093028 -1.079732 -1.066285 -1.052800 -1.039385 -1.026147 -1.013185 -1.000593 -0.988457 -0.976856 -0.965861 -0.955536 -0.945936 -0.937106 -0.929084 -0.921901 -0.915579 -0.910132 -0.905567 -0.901887 -0.899085 -0.897150 -0.896067 -0.895815 -0.896369 -0.897699 -0.899774 -0.902561 -0.906023 -0.910123 -0.914820 -0.920074 -0.925845 -0.932091 -0.938772 -0.945846 -0.953273 -0.961015 -0.969033 -0.977289 -0.985749 -0.994378 -1.003143 -1.012013 -1.020958 -1.029948 -1.038953 -1.047941 -1.056876 -1.065715 -1.074413 -1.082914 -1.091161 -1.099087 -1.106624 -1.113697 -1.120230 -1.126147 -1.131369 -1.135821 -1.139429 -1.142124 -1.143844 -1.144538 -1.144166 -1.142700 -1.140131 -1.136461 -1.131713 -1.125921 -1.119137 -1.111424 -1.102859 -1.093528 -1.083527 -1.072956 -1.061924 -1.050538 -1.038910 -1.027150 -1.015365 -1.003661 -0.992138 -0.980891 -0.970008 -0.959571 -0.949654 -0.940324 -0.931639 -0.923649 -0.916396 -0.909914 -0.904230 -0.899363 -0.895324 -0.892118 -0.889745 -0.888196 -0.887461 -0.887522 -0.888357 -0.889940 -0.892243 -0.895236 -0.898884 -0.903152 -0.908003 -0.913399 -0.919300 -0.925667 -0.932460 -0.939640 -0.947169 -0.955008 -0.963119 -0.971467 -0.980016 -0.988732 -0.997583 -1.006538 -1.015568 -1.024644 -1.033738 -1.042819 -1.051852 -1.060800 -1.069618 -1.078256 -1.086657 -1.094759 -1.102495 -1.109792 -1.116576 -1.122770 -1.128297 -1.133080 -1.137045 -1.140120 -1.142240 -1.143342 -1.143372 -1.142281 -1.140030 -1.136584 -1.131920 -1.126021 -1.118880 -1.110496 -1.100879 -1.090042 -1.078011 -1.064813 -1.050485 -1.035068 -1.018609 -1.001159 -0.982773 -0.963509 -0.943428 -0.922593 -0.901069 -0.878920 -0.856214 -0.833016 -0.809393 -0.785408 -0.761127 -0.736611 -0.711922 -0.687117 -0.662254 -0.637387 -0.612566 -0.587842 -0.563261 -0.538865 -0.514696 -0.490790 -0.467185 -0.443911 -0.420997 -0.398469 -0.376352 -0.354667 -0.333432 -0.312664 -0.292377 -0.272583 -0.253291 -0.234510 -0.216245 -0.198501 -0.181281 -0.164585 -0.148414 -0.132766 -0.117638 -0.103027 -0.088929 -0.075342 -0.062268 -0.049709 -0.037678 -0.026189 -0.015266 -0.004936 0.004766 0.013801 0.022123 0.029688 0.036444 0.042343 0.047333 0.051366 0.054396 0.056379 0.057277 0.057056 0.055686 0.053146 0.049419 0.044496 0.038373 0.031054 0.022548 0.012873 0.002050 -0.009894 -0.022924 -0.037003 -0.052089 -0.068135 -0.085091 -0.102904 -0.121521 -0.140882 -0.160931 -0.181608 -0.202851 -0.224601 -0.246797 -0.269382 -0.292295 -0.315480 -0.338881 -0.362443 -0.386113 -0.409841 -0.433580 -0.457281 -0.480903 -0.504404 -0.527744 -0.550887 -0.573800 -0.596453 -0.618816 -0.640861 -0.662564 -0.683901 -0.704845 -0.725369 -0.745441 -0.765025 -0.784079 -0.802558 -0.820412 -0.837586 -0.854022 -0.869662 -0.884442 -0.898304 -0.911186 -0.923030 -0.933782 -0.943393 -0.951821 -0.959033 -0.965007 -0.969736 -0.973224 -0.975489 -0.976565 -0.976495 -0.975338 -0.973163 -0.970048 -0.966079 -0.961350 -0.955957 -0.950002 -0.943588 -0.936817 -0.929791 -0.922609 -0.915366 -0.908152 -0.901055 -0.894153 -0.887519 -0.881219 -0.875314 -0.869855 -0.864886 -0.860446 -0.856564 -0.853265 -0.850567 -0.848479 -0.847009 -0.846155 -0.845913 -0.846273 -0.847223 -0.848744 -0.850817 -0.853417 -0.856520 -0.860100 -0.864128 -0.868572 -0.873404 -0.878590 -0.884100 -0.889902 -0.895964 -0.902256 -0.908747 -0.915407 -0.922209 -0.929123 -0.936125 -0.943189 -0.950292 -0.957411 -0.964522 -0.971603 -0.978628 -0.985570 -0.992394 -0.999062 -1.005531 -1.011751 -1.017669 -1.023226 -1.028361 -1.033010 -1.037108 -1.040589 -1.043390 -1.045448 -1.046706 -1.047111 -1.046617 -1.045189 -1.042804 -1.039450 -1.035131 -1.029862 -1.023673 -1.016608 -1.008722 -1.000080 -0.990757 -0.980838 -0.970410 -0.959567 -0.948407 -0.937027 -0.925526 -0.913999 -0.902540 -0.891240 -0.880183 -0.869451 -0.859116 -0.849246 -0.839902 -0.831136 -0.822996 -0.815520 -0.808741 -0.802682 -0.797363 -0.792795 -0.788985 -0.785932 -0.783632 -0.782074 -0.781244 -0.781124 -0.781692 -0.782924 -0.784790 -0.787263 -0.790311 -0.793901 -0.798000 -0.802573 -0.807584 -0.812998 -0.818781 -0.824896 -0.831311 -0.837990 -0.844902 -0.852015 -0.859299 -0.866723 -0.874262 -0.881886 -0.889572 -0.897292 -0.905022 -0.912732 -0.920390 -0.927960 -0.935399 -0.942660 -0.949690 -0.956432 -0.962826 -0.968806 -0.974306 -0.979260 -0.983599 -0.987259 -0.990175 -0.992290 -0.993550 -0.993912 -0.993342 -0.991818 -0.989332 -0.985889 -0.981508 -0.976223 -0.970077 -0.963129 -0.955445 -0.947103 -0.938185 -0.928781 -0.918985 -0.908891 -0.898597 -0.888199 -0.877792 -0.867466 -0.857309 -0.847404 -0.837828 -0.828651 -0.819938 -0.811747 -0.804127 -0.797122 -0.790769 -0.785097 -0.780128 -0.775878 -0.772357 -0.769569 -0.767513 -0.766181 -0.765564 -0.765644 -0.766404 -0.767820 -0.769867 -0.772517 -0.775741 -0.779508 -0.783786 -0.788539 -0.793735 -0.799338 -0.805314 -0.811627 -0.818245 -0.825134 -0.832260 -0.839592 -0.847100 -0.854753 -0.862523 -0.870384 -0.878309 -0.886274 -0.894253 -0.902221 -0.910147 -0.917997 -0.925734 -0.933313 -0.940685 -0.947797 -0.954589 -0.960999 -0.966962 -0.972412 -0.977282 -0.981504 -0.985015 -0.987753 -0.989659 -0.990681 -0.990771 -0.989887 -0.987993 -0.985062 -0.981073 -0.976010 -0.969868 -0.962646 -0.954352 -0.944999 -0.934608 -0.923203 -0.910815 -0.897482 -0.883244 -0.868144 -0.852230 -0.835553 -0.818166 -0.800124 -0.781482 -0.762298 -0.742628 -0.722531 -0.702063 -0.681281 -0.660240 -0.638995 -0.617598 -0.596101 -0.574551 -0.552997 -0.531483 -0.510052 -0.488743 -0.467594 -0.446641 -0.425917 -0.405451 -0.385273 -0.365406 -0.345874 -0.326697 -0.307894 -0.289481 -0.271473 -0.253881 -0.236716 -0.219987 -0.203700 -0.187860 -0.172472 -0.157538 -0.143058 -0.129033 -0.115461 -0.102339 -0.089666 -0.077434 -0.065637 -0.054264 -0.043298 -0.032722 -0.022509 -0.012632 -0.003057 0.006254 0.015341 0.024249 0.033024 0.041712 0.050362 0.059020 0.067733 0.076544 0.085497 0.094629 0.103976 0.113569 0.123437 0.133602 0.144083 0.154894 0.166045 0.177541 0.189383 0.201568 0.214091 0.226939 0.240100 0.253558 0.267292 0.281282 0.295503 0.309932 0.324540 0.339300 0.354184 0.369163 0.384209 0.399291 0.414380 0.429448 0.444467 0.459409 0.474248 0.488960 0.503519 0.517904 0.532092 0.546064 0.559800 0.573284 0.586500 0.599432 0.612069 0.624397 0.636408 0.648092 0.659439 0.670437 0.681074 0.691333 0.701196 0.710640 0.719641 0.728168 0.736192 0.743681 0.750598 0.756911 0.762584 0.767583 0.771876 0.775434 0.778231 0.780246 0.781466 0.781883 0.781502 0.780331 0.778390 0.775708 0.772319 0.768268 0.763603 0.758380 0.752659 0.746503 0.739976 0.733147 0.726082 0.718848 0.711511 0.704135 0.696779 0.689502 0.682357 0.675394 0.668658 0.662191 0.656028 0.650201 0.644737 0.639659 0.634983 0.630723 0.626890 0.623488 0.620519 0.617983 0.615874 0.614186 0.612909 0.612030 0.611538 0.611417 0.611648 0.612214 0.613096 0.614275 0.615730 0.617441 0.619388 0.621550 0.623907 0.626440 0.629128 0.631953 0.634896 0.637940 0.641068 0.644263 0.647510 0.650795 0.654102 0.657417 0.660720 0.663992 0.667207 0.670340 0.673359 0.676230 0.678916 0.681379 0.683576 0.685466 0.687007 0.688156 0.688872 0.689116 0.688851 0.688046 0.686674 0.684713 0.682152 0.678987 0.675221 0.670869 0.665953 0.660502 0.654556 0.648157 0.641357 0.634211 0.626776 0.619115 0.611290 0.603365 0.595402 0.587462 0.579607 0.571892 0.564372 0.557096 0.550112 0.543461 0.537180 0.531302 0.525855 0.520863 0.516343 0.512311 0.508777 0.505746 0.503221 0.501199 0.499677 0.498646 0.498096 0.498014 0.498385 0.499191 0.500415 0.502035 0.504031 0.506380 0.509059 0.512046 0.515318 0.518851 0.522621 0.526607 0.530785 0.535134 0.539632 0.544259 0.548994 0.553818 0.558713 0.563662 0.568648 0.573656 0.578667 0.583662 0.588621 0.593519 0.598328 0.603016 0.607549 0.611890 0.616000 0.619835 0.623355 0.626514 0.629271 0.631583 0.633411 0.634717 0.635467 0.635635 0.635200 0.634148 0.632475 0.630185 0.627292 0.623817 0.619790 0.615249 0.610237 0.604805 0.599006 0.592899 0.586545 0.580004 0.573339 0.566613 0.559886 0.553217 0.546662 0.540275 0.534105 0.528197 0.522593 0.517329 0.512438 0.507947 0.503880 0.500254 0.497084 0.494381 0.492150 0.490393 0.489109 0.488294 0.487940 0.488038 0.488573 0.489533 0.490901 0.492659 0.494786 0.497263 0.500068 0.503179 0.506575 0.510232 0.514128 0.518242 0.522550 0.527032 0.531665 0.536430 0.541307 0.546276 0.551320 0.556420 0.561561 0.566726 0.571899 0.577063 0.582199 0.587285 0.592297 0.597207 0.601982 0.606589 0.610990 0.615145 0.619011 0.622548 0.625710 0.628457 0.630746 0.632539 0.633797 0.634487 0.634579 0.634045 0.632863 0.631015 0.628488 0.625272 0.621363 0.616760 0.611470 0.605500 0.598864 0.591577 0.583660 0.575136 0.566031 0.556372 0.546192 0.535522 0.524396 0.512850 0.500918 0.488638 0.476047 0.463181 0.450076 0.436770 0.423298 0.409694 0.395992 0.382225 0.368424 0.354620 0.340841 0.327114 0.313466 0.299919 0.286498 0.273223 0.260113 0.247187 0.234460 0.221947 0.209662 0.197615 0.185819 0.174281 0.163010 0.152012 0.141292 0.130856 0.120707 0.110846 0.101276 0.091997 0.083009 0.074311 0.065902 0.057779 0.049940 0.042377 0.035080 0.028033 0.021213 0.014588 0.008121 0.001763 -0.004539 -0.010846 -0.017224 -0.023744 -0.030480 -0.037506 -0.044899 -0.052731 -0.061075 -0.069999 -0.079565 -0.089830 -0.100847 -0.112659 -0.125302 -0.138805 -0.153190 -0.168469 -0.184647 -0.201723 -0.219686 -0.238520 -0.258202 -0.278702 -0.299987 -0.322016 -0.344746 -0.368129 -0.392114 -0.416648 -0.441674 -0.467136 -0.492976 -0.519136 -0.545555 -0.572175 -0.598939 -0.625789 -0.652671 -0.679530 -0.706314 -0.732974 -0.759462 -0.785733 -0.811744 -0.837455 -0.862829 -0.887831 -0.912428 -0.936592 -0.960296 -0.983516 -1.006231 -1.028418 -1.050055 -1.071116 -1.091574 -1.111392 -1.130531 -1.148946 -1.166584 -1.183389 -1.199302 -1.214259 -1.228194 -1.241043 -1.252740 -1.263222 -1.272432 -1.280315 -1.286828 -1.291936 -1.295619 -1.297871 -1.298700 -1.298133 -1.296208 -1.292981 -1.288522 -1.282912 -1.276242 -1.268615 -1.260139 -1.250927 -1.241097 -1.230767 -1.220056 -1.209082 -1.197957 -1.186793 -1.175693 -1.164757 -1.154074 -1.143731 -1.133802 -1.124355 -1.115451 -1.107140 -1.099467 -1.092465 -1.086162 -1.080580 -1.075729 -1.071618 -1.068246 -1.065607 -1.063693 -1.062486 -1.061968 -1.062118 -1.062907 -1.064308 -1.066289 -1.068818 -1.071860 -1.075382 -1.079346 -1.083717 -1.088459 -1.093536 -1.098912 -1.104554 -1.110427 -1.116499 -1.122738 -1.129114 -1.135597 -1.142160 -1.148778 -1.155424 -1.162072 -1.168690 -1.175244 -1.181694 -1.187995 -1.194094 -1.199932 -1.205447 -1.210569 -1.215226 -1.219344 -1.222846 -1.225656 -1.227702 -1.228911 -1.229216 -1.228558 -1.226886 -1.224160 -1.220357 -1.215465 -1.209490 -1.202453 -1.194391 -1.185356 -1.175413 -1.164640 -1.153124 -1.140963 -1.128259 -1.115120 -1.101659 -1.087987 -1.074216 -1.060457 -1.046815 -1.033394 -1.020290 -1.007593 -0.995387 -0.983746 -0.972739 -0.962425 -0.952855 -0.944072 -0.936111 -0.928999 -0.922754 -0.917388 -0.912908 -0.909310 -0.906588 -0.904730 -0.903716 -0.903526 -0.904132 -0.905507 -0.907617 -0.910427 -0.913900 -0.917998 -0.922681 -0.927910 -0.933642 -0.939837 -0.946455 -0.953454 -0.960797 -0.968442 -0.976354 -0.984495 -0.992831 -1.001327 -1.009950 -1.018672 -1.027462 -1.036291 -1.045128 -1.053939 -1.062687 -1.071326 -1.079808 -1.088077 -1.096070 -1.103721 -1.110958 -1.117706 -1.123889 -1.129428 -1.134247 -1.138270 -1.141425 -1.143645 -1.144872 -1.145056 -1.144161 -1.142166 -1.139064 -1.134864 -1.129591 -1.123286 -1.116003 -1.107812 -1.098790 -1.089030 -1.078627 -1.067686 -1.056316 -1.044627 -1.032730 -1.020735 -1.008752 -0.996884 -0.985231 -0.973886 -0.962938 -0.952467 -0.942544 -0.933235 -0.924596 -0.916675 -0.909513 -0.903141 -0.897584 -0.892859 -0.888975 -0.885937 -0.883740 -0.882377 -0.881834 -0.882091 -0.883126 -0.884912 -0.887421 -0.890620 -0.894472 -0.898943 -0.903993 -0.909585 -0.915677 -0.922232 -0.929207 -0.936564 -0.944263 -0.952267 -0.960537 -0.969037 -0.977732 -0.986587 -0.995572 -1.004654 -1.013805 -1.022995 -1.032196 -1.041377 -1.050503 -1.059532 -1.068421 -1.077118 -1.085564 -1.093696 -1.101446 -1.108740 -1.115505 -1.121662 -1.127135 -1.131847 -1.135724 -1.138696 -1.140698 -1.141669 -1.141555 -1.140310 -1.137894 -1.134278 -1.129437 -1.123358 -1.116033 -1.107466 -1.097665 -1.086648 -1.074439 -1.061069 -1.046575 -1.030999 -1.014390 -0.996799 -0.978282 -0.958897 -0.938706 -0.917772 -0.896161 -0.873938 -0.851168 -0.827919 -0.804256 -0.780244 -0.755946 -0.731425 -0.706741 -0.681952 -0.657115 -0.632282 -0.607506 -0.582834 -0.558313 -0.533984 -0.509889 -0.486063 -0.462543 -0.439360 -0.416542 -0.394114 -0.372100 -0.350521 -0.329395 -0.308738 -0.288563 -0.268883 -0.249706 -0.231040 -0.212891 -0.195262 -0.178157 -0.161576 -0.145518 -0.129983 -0.114966 -0.100464 -0.086471 -0.072978 -0.059973 -0.047440 -0.035358 -0.023702 -0.012441 -0.001541 0.009037 0.019335 0.029400 0.039277 0.049015 0.058664 0.068272 0.077886 0.087552 0.097314 0.107211 0.117280 0.127554 0.138062 0.148828 0.159871 0.171208 0.182850 0.194802 0.207066 0.219642 0.232524 0.245701 0.259162 0.272891 0.286870 0.301078 0.315492 0.330088 0.344841 0.359723 0.374707 0.389765 0.404869 0.419991 0.435101 0.450171 0.465175 0.480086 0.494878 0.509526 0.524008 0.538302 0.552386 0.566240 0.579847 0.593191 0.606255 0.619025 0.631489 0.643636 0.655457 0.666943 0.678084 0.688869 0.699286 0.709319 0.718950 0.728157 0.736915 0.745196 0.752969 0.760203 0.766863 0.772914 0.778324 0.783057 0.787083 0.790373 0.792900 0.794646 0.795597 0.795749 0.795105 0.793676 0.791483 0.788555 0.784929 0.780648 0.775762 0.770328 0.764404 0.758055 0.751346 0.744343 0.737114 0.729724 0.722240 0.714723 0.707234 0.699830 0.692563 0.685483 0.678634 0.672056 0.665785 0.659851 0.654281 0.649097 0.644315 0.639949 0.636007 0.632495 0.629414 0.626764 0.624538 0.622730 0.621330 0.620326 0.619705 0.619452 0.619549 0.619977 0.620719 0.621755 0.623065 0.624628 0.626425 0.628436 0.630640 0.633017 0.635550 0.638218 0.641004 0.643891 0.646862 0.649899 0.652989 0.656117 0.659269 0.662427 0.665574 0.668688 0.671745 0.674716 0.677571 0.680274 0.682789 0.685075 0.687091 0.688795 0.690144 0.691096 0.691611 0.691649 0.691177 0.690163 0.688584 0.686422 0.683670 0.680328 0.676403 0.671914 0.666887 0.661356 0.655361 0.648948 0.642171 0.635084 0.627746 0.620219 0.612564 0.604842 0.597115 0.589441 0.581878 0.574480 0.567297 0.560376 0.553760 0.547487 0.541591 0.536101 0.531042 0.526434 0.522293 0.518631 0.515455 0.512769 0.510572 0.508862 0.507632 0.506874 0.506574 0.506720 0.507295 0.508284 0.509666 0.511421 0.513528 0.515965 0.518710 0.521741 0.525034 0.528568 0.532319 0.536267 0.540389 0.544664 0.549072 0.553594 0.558211 0.562903 0.567654 0.572449 0.577270 0.582102 0.586925 0.591719 0.596460 0.601122 0.605673 0.610080 0.614307 0.618314 0.622059 0.625501 0.628595 0.631299 0.633571 0.635369 0.636657 0.637399 0.637566 0.637136 0.636092 0.634428 0.632145 0.629253 0.625773 0.621731 0.617163 0.612111 0.606624 0.600754 0.594560 0.588100 0.581437 0.574634 0.567753 0.560856 0.554004 0.547252 0.540657 0.534269 0.528136 0.522299 0.516798 0.511667 0.506934 0.502625 0.498760 0.495354 0.492418 0.489961 0.487985 0.486490 0.485472 0.484926 0.484841 0.485205 0.486005 0.487224 0.488846 0.490850 0.493215 0.495921 0.498945 0.502266 0.505860 0.509704 0.513777 0.518055 0.522517 0.527140 0.531905 0.536790 0.541777 0.546845 0.551978 0.557158 0.562369 0.567595 0.572819 0.578023 0.583186 0.588284 0.593292 0.598178 0.602910 0.607450 0.611759 0.615797 0.619521 0.622888 0.625855 0.628381 0.630424 0.631948 0.632915 0.633295 0.633059 0.632182 0.630646 0.628434 0.625535 0.621944 0.617659 0.612682 0.607021 0.600687 0.593694 0.586063 0.577814 0.568972 0.559565 0.549622 0.539176 0.528260 0.516908 0.505155 0.493040 0.480597 0.467864 0.454877 0.441673 0.428289 0.414758 0.401115 0.387394 0.373626 0.359841 0.346070 0.332340 0.318678 0.305107 0.291652 0.278334 0.265173 0.252188 0.239396 0.226812 0.214449 0.202320 0.190437 0.178808 0.167442 0.156346 0.145527 0.134988 0.124734 0.114768 0.105091 0.095705 0.086610 0.077804 0.069288 0.061058 0.053113 0.045446 0.038048 0.030903 0.023992 0.017283 0.010740 0.004318 -0.002037 -0.008383 -0.014785 -0.021315 -0.028044 -0.035048 -0.042403 -0.050181 -0.058457 -0.067298 -0.076768 -0.086926 -0.097825 -0.109509 -0.122018 -0.135380 -0.149620 -0.164750 -0.180780 -0.197706 -0.215522 -0.234212 -0.253754 -0.274120 -0.295277 -0.317187 -0.339805 -0.363085 -0.386977 -0.411428 -0.436382 -0.461783 -0.487572 -0.513692 -0.540083 -0.566686 -0.593444 -0.620299 -0.647196 -0.674080 -0.700899 -0.727603 -0.754143 -0.780475 -0.806555 -0.832342 -0.857799 -0.882890 -0.907582 -0.931846 -0.955655 -0.978983 -1.001810 -1.024113 -1.045871 -1.067058 -1.087647 -1.107603 -1.126889 -1.145459 -1.163262 -1.180245 -1.196346 -1.211504 -1.225654 -1.238729 -1.250666 -1.261400 -1.270871 -1.279025 -1.285813 -1.291195 -1.295146 -1.297651 -1.298712 -1.298346 -1.296585 -1.293479 -1.289089 -1.283493 -1.276778 -1.269042 -1.260393 -1.250944 -1.240813 -1.230119 -1.218986 -1.207532 -1.195877 -1.184135 -1.172417 -1.160827 -1.149462 -1.138413 -1.127762 -1.117582 -1.107941 -1.098894 -1.090491 -1.082773 -1.075771 -1.069510 -1.064008 -1.059274 -1.055311 -1.052118 -1.049686 -1.048002 -1.047047 -1.046801 -1.047239 -1.048331 -1.050047 -1.052353 -1.055216 -1.058598 -1.062465 -1.066777 -1.071499 -1.076592 -1.082019 -1.087745 -1.093734 -1.099951 -1.106362 -1.112936 -1.119641 -1.126448 -1.133329 -1.140259 -1.147209 -1.154153 -1.161058 -1.167888 -1.174602 -1.181152 -1.187485 -1.193541 -1.199254 -1.204556 -1.209373 -1.213631 -1.217252 -1.220162 -1.222286 -1.223555 -1.223903 -1.223272 -1.221614 -1.218895 -1.215094 -1.210206 -1.204239 -1.197221 -1.189193 -1.180211 -1.170343 -1.159670 -1.148282 -1.136278 -1.123762 -1.110843 -1.097631 -1.084238 -1.070776 -1.057352 -1.044071 -1.031033 -1.018332 -1.006056 -0.994284 -0.983088 -0.972535 -0.962679 -0.953570 -0.945246 -0.937741 -0.931078 -0.925273 -0.920338 -0.916274 -0.913078 -0.910742 -0.909250 -0.908585 -0.908722 -0.909637 -0.911297 -0.913671 -0.916722 -0.920415 -0.924709 -0.929567 -0.934948 -0.940812 -0.947118 -0.953826 -0.960897 -0.968291 -0.975971 -0.983900 -0.992042 -1.000362 -1.008828 -1.017409 -1.026075 -1.034796 -1.043544 -1.052288 -1.060990 -1.069612 -1.078107 -1.086423 -1.094502 -1.102280 -1.109688 -1.116654 -1.123101 -1.128952 -1.134130 -1.138558 -1.142162 -1.144871 -1.146621 -1.147357 -1.147033 -1.145618 -1.143093 -1.139457 -1.134724 -1.128925 -1.122103 -1.114319 -1.105645 -1.096164 -1.085969 -1.075160 -1.063843 -1.052130 -1.040130 -1.027957 -1.015721 -1.003530 -0.991489 -0.979696 -0.968244 -0.957219 -0.946701 -0.936759 -0.927457 -0.918849 -0.910982 -0.903894 -0.897615 -0.892167 -0.887566 -0.883820 -0.880929 -0.878890 -0.877692 -0.877319 -0.877751 -0.878965 -0.880933 -0.883623 -0.887003 -0.891035 -0.895684 -0.900910 -0.906673 -0.912933 -0.919650 -0.926784 -0.934294 -0.942141 -0.950286 -0.958692 -0.967322 -0.976141 -0.985115 -0.994211 -1.003400 -1.012651 -1.021936 -1.031225 -1.040486 -1.049684 -1.058777 -1.067717 -1.076454 -1.084926 -1.093069 -1.100815 -1.108089 -1.114817 -1.120920 -1.126321 -1.130946 -1.134719 -1.137573 -1.139442 -1.140267 -1.139996 -1.138583 -1.135993 -1.132193 -1.127165 -1.120895 -1.113378 -1.104617 -1.094625 -1.083419 -1.071026 -1.057477 -1.042811 -1.027071 -1.010307 -0.992570 -0.973917 -0.954407 -0.934102 -0.913067 -0.891366 -0.869064 -0.846229 -0.822926 -0.799221 -0.775179 -0.750862 -0.726334 -0.701653 -0.676878 -0.652064 -0.627265 -0.602530 -0.577909 -0.553446 -0.529183 -0.505160 -0.481413 -0.457978 -0.434884 -0.412160 -0.389830 -0.367917 -0.346442 -0.325423 -0.304875 -0.284812 -0.265243 -0.246180 -0.227627 -0.209592 -0.192078 -0.175086 -0.158617 -0.142672 -0.127247 -0.112340 -0.097946 -0.084060 -0.070673 -0.057773 -0.045346 -0.033370 -0.021822 -0.010671 0.000115 0.010576 0.020753 0.030690 0.040436 0.050037 0.059543 0.069004 0.078465 0.087974 0.097575 0.107307 0.117208 0.127312 0.137649 0.148243 0.159115 0.170282 0.181755 0.193541 0.205644 0.218062 0.230790 0.243820 0.257139 0.270732 0.284583 0.298670 0.312970 0.327461 0.342116 0.356909 0.371811 0.386797 0.401837 0.416901 0.431962 0.446991 0.461961 0.476845 0.491618 0.506255 0.520731 0.535025 0.549115 0.562982 0.576607 0.589973 0.603064 0.615866 0.628365 0.640552 0.652416 0.663947 0.675137 0.685976 0.696450 0.706545 0.716244 0.725524 0.734362 0.742729 0.750597 0.757932 0.764702 0.770872 0.776407 0.781274 0.785441 0.788877 0.791556 0.793457 0.794565 0.794872 0.794379 0.793095 0.791038 0.788235 0.784719 0.780533 0.775725 0.770350 0.764466 0.758137 0.751427 0.744403 0.737134 0.729685 0.722123 0.714512 0.706914 0.699386 0.691983 0.684757 0.677753 0.671012 0.664574 0.658469 0.652725 0.647367 0.642412 0.637875 0.633766 0.630092 0.626855 0.624054 0.621687 0.619745 0.618221 0.617102 0.616376 0.616027 0.616039 0.616392 0.617070 0.618051 0.619317 0.620846 0.622618 0.624614 0.626811 0.629192 0.631735 0.634422 0.637234 0.640154 0.643163 0.646246 0.649387 0.652572 0.655786 0.659012 0.662234 0.665432 0.668581 0.671655 0.674624 0.677456 0.680112 0.682555 0.684744 0.686636 0.688189 0.689361 0.690110 0.690397 0.690185 0.689442 0.688141 0.686263 0.683794 0.680733 0.677084 0.672862 0.668089 0.662796 0.657022 0.650809 0.644209 0.637276 0.630067 0.622643 0.615065 0.607395 0.599694 0.592023 0.584439 0.576998 0.569751 0.562747 0.556030 0.549641 0.543614 0.537982 0.532771 0.528003 0.523695 0.519861 0.516510 0.513646 0.511272 0.509386 0.507982 0.507053 0.506587 0.506571 0.506992 0.507832 0.509072 0.510693 0.512674 0.514993 0.517628 0.520558 0.523758 0.527208 0.530883 0.534763 0.538826 0.543050 0.547414 0.551899 0.556486 0.561155 0.565890 0.570674 0.575491 0.580324 0.585157 0.589969 0.594737 0.599437 0.604038 0.608509 0.612815 0.616916 0.620772 0.624341 0.627580 0.630446 0.632896 0.634889 0.636385 0.637350 0.637754 0.637572 0.636788 0.635394 0.633391 0.630788 0.627604 0.623865 0.619604 0.614864 0.609691 0.604136 0.598257 0.592111 0.585759 0.579262 0.572681 0.566078 0.559510 0.553033 0.546702 0.540566 0.534670 0.529058 0.523767 0.518830 0.514276 0.510129 0.506408 0.503131 0.500306 0.497943 0.496044 0.494610 0.493637 0.493118 0.493046 0.493407 0.494189 0.495377 0.496954 0.498900 0.501196 0.503820 0.506753 0.509972 0.513454 0.517180 0.521125 0.525269 0.529590 0.534068 0.538682 0.543412 0.548239 0.553145 0.558113 0.563127 0.568169 0.573225 0.578278 0.583310 0.588298 0.593220 0.598048 0.602751 0.607296 0.611645 0.615758 0.619595 0.623113 0.626268 0.629019 0.631324 0.633141 0.634435 0.635170 0.635314 0.634841 0.633726 0.631951 0.629501 0.626366 0.622540 0.618024 0.612820 0.606937 0.600386 0.593184 0.585348 0.576903 0.567873 0.558286 0.548172 0.537563 0.526493 0.514997 0.503110 0.490869 0.478310 0.465471 0.452387 0.439096 0.425632 0.412031 0.398327 0.384552 0.370739 0.356917 0.343116 0.329362 0.315683 0.302102 0.288643 0.275326 0.262172 0.249198 0.236422 0.223858 0.211520 0.199419 0.187566 0.175972 0.164643 0.153586 0.142808 0.132313 0.122105 0.112185 0.102557 0.093220 0.084174 0.075419 0.066954 0.058776 0.050883 0.043266 0.035916 0.028818 0.021949 0.015281 0.008778 0.002398 -0.003909 -0.010197 -0.016524 -0.022954 -0.029552 -0.036383 -0.043514 -0.051009 -0.058930 -0.067337 -0.076284 -0.085821 -0.095990 -0.106831 -0.118374 -0.130644 -0.143657 -0.157426 -0.171953 -0.187236 -0.203266 -0.220028 -0.237502 -0.255662 -0.274478 -0.293916 -0.313936 -0.334498 -0.355557 -0.377068 -0.398982 -0.421249 -0.443821 -0.466645 -0.489674 -0.512854 -0.536137 -0.559475 -0.582818 -0.606123 -0.629344 -0.652440 -0.675368 -0.698092 -0.720575 -0.742782 -0.764683 -0.786248 -0.807450 -0.828265 -0.848669 -0.868644 -0.888170 -0.907229 -0.925801 -0.943865 -0.961395 -0.978359 -0.994722 -1.010443 -1.025479 -1.039778 -1.053289 -1.065957 -1.077724 -1.088535 -1.098333 -1.107065 -1.114682 -1.121137 -1.126395 -1.130429 -1.133224 -1.134776 -1.135097 -1.134211 -1.132156 -1.128983 -1.124753 -1.119540 -1.113426 -1.106499 -1.098856 -1.090595 -1.081819 -1.072631 -1.063135 -1.053430 -1.043617 -1.033788 -1.024035 -1.014442 -1.005086 -0.996039 -0.987366 -0.979125 -0.971365 -0.964131 -0.957458 -0.951375 -0.945906 -0.941065 -0.936864 -0.933307 -0.930393 -0.928116 -0.926467 -0.925432 -0.924993 -0.925130 -0.925820 -0.927038 -0.928757 -0.930947 -0.933579 -0.936622 -0.940046 -0.943819 -0.947909 -0.952286 -0.956919 -0.961778 -0.966835 -0.972060 -0.977427 -0.982910 -0.988482 -0.994122 -0.999806 -1.005512 -1.011216 -1.016891 -1.022505 -1.028023 -1.033405 -1.038604 -1.043567 -1.048239 -1.052560 -1.056466 -1.059893 -1.062773 -1.065042 -1.066636 -1.067493 -1.067556 -1.066774 -1.065105 -1.062514 -1.058983 -1.054503 -1.049080 -1.042734 -1.035500 -1.027422 -1.018559 -1.008980 -0.998761 -0.987988 -0.976752 -0.965148 -0.953272 -0.941223 -0.929099 -0.916996 -0.905006 -0.893220 -0.881720 -0.870586 -0.859890 -0.849696 -0.840065 -0.831046 -0.822685 -0.815018 -0.808075 -0.801879 -0.796446 -0.791785 -0.787902 -0.784794 -0.782454 -0.780871 -0.780029 -0.779907 -0.780483 -0.781731 -0.783623 -0.786127 -0.789211 -0.792841 -0.796982 -0.801599 -0.806656 -0.812117 -0.817946 -0.824108 -0.830568 -0.837293 -0.844249 -0.851404 -0.858728 -0.866191 -0.873764 -0.881421 -0.889137 -0.896886 -0.904641 -0.912373 -0.920048 -0.927628 -0.935069 -0.942324 -0.949338 -0.956054 -0.962409 -0.968337 -0.973774 -0.978650 -0.982899 -0.986456 -0.989258 -0.991246 -0.992369 -0.992582 -0.991852 -0.990158 -0.987490 -0.983855 -0.979272 -0.973773 -0.967404 -0.960223 -0.952298 -0.943705 -0.934530 -0.924862 -0.914797 -0.904431 -0.893863 -0.883190 -0.872509 -0.861912 -0.851488 -0.841321 -0.831490 -0.822068 -0.813119 -0.804703 -0.796871 -0.789668 -0.783130 -0.777288 -0.772165 -0.767777 -0.764134 -0.761242 -0.759097 -0.757695 -0.757023 -0.757066 -0.757804 -0.759216 -0.761275 -0.763953 -0.767220 -0.771043 -0.775390 -0.780225 -0.785514 -0.791222 -0.797312 -0.803750 -0.810501 -0.817530 -0.824804 -0.832291 -0.839958 -0.847777 -0.855717 -0.863751 -0.871852 -0.879996 -0.888158 -0.896309 -0.904423 -0.912465 -0.920398 -0.928179 -0.935760 -0.943088 -0.950104 -0.956748 -0.962954 -0.968656 -0.973787 -0.978280 -0.982071 -0.985096 -0.987298 -0.988622 -0.989019 -0.988446 -0.986867 -0.984252 -0.980578 -0.975830 -0.970000 -0.963087 -0.955096 -0.946040 -0.935937 -0.924813 -0.912697 -0.899625 -0.885636 -0.870774 -0.855086 -0.838622 -0.821434 -0.803578 -0.785109 -0.766083 -0.746558 -0.726593 -0.706243 -0.685565 -0.664617 -0.643451 -0.622121 -0.600678 