2.884835 2.884835 2.884835 2.884835 2.884835 2.884835 2.884835 2.884835 2.884835 3.039769 3.089883 3.089111 3.088338 3.087566 3.086794 3.086022 3.085251 3.084479 3.083708 3.082937 3.082218 3.081448 3.080677 3.079907 3.079137 3.078383 3.077614 3.076845 3.076076 3.076521 3.075767 3.074998 3.074229 3.073461 3.072692 3.071925 3.071574 3.070820 3.070096 3.069328 3.080548 3.079778 3.079375 3.078605 3.077835 3.077066 3.076330 3.075561 3.085615 3.084843 3.084151 3.086270 3.085517 3.092128 3.091355 3.090582 3.089816 3.089124 3.088493 3.087730 3.086958 3.086417 3.095526 3.094752 3.094043 3.093684 3.092911 3.092140 3.091383 3.091250 3.090477 3.089721 3.088952 3.088652 3.087880 3.087116 3.086672 3.086545 3.087456 3.086773 3.086021 3.085249 3.085174 3.084403 3.083632 3.083209 3.082438 3.081795 3.081054 3.081569 3.080918 3.080624 3.080790 3.080112 3.079484 3.078715 3.078000 3.077431 3.076662 3.075899 3.075151 3.074382 3.073614 3.075802 3.075226 3.076516 3.075887 3.075259 3.074557 3.073810 3.073052 3.072386 3.071758 3.071153 3.070385 3.069758 3.072886 3.072416 3.071679 3.071061 3.070304 3.073465 3.072850 3.072120 3.071354 3.070587 3.069929 3.069176 3.069469 3.069067 3.070014 3.069247 3.069616 3.068872 3.068960 3.068631 3.067865 3.067147 3.066437 3.065671 3.065329 3.066190 3.066319 3.065583 3.064947 3.064472 3.066748 3.066163 3.065477 3.064881 3.066633 3.067969 3.067230 3.067995 3.067353 3.066635 3.066265 3.065845 3.066425 3.066486 3.065965 3.065211 3.064491 3.064094 3.063459 3.062894 3.066920 3.069882 3.073118 3.075792 3.075199 3.077533 3.076794 3.076025 3.075490 3.074721 3.074865 3.074189 3.075034 3.074265 3.075528 3.077321 3.076780 3.080291 3.079574 3.079517 3.079029 3.078281 3.077618 3.077446 3.076716 3.076214 3.075474 3.075491 3.075632 3.075611 3.074911 3.076452 3.077178 3.077509 3.076768 3.076403 3.075662 3.075720 3.074952 3.074397 3.074046 3.073282 3.072866 3.072244 3.077279 3.076718 3.076017 3.076825 3.078936 3.079439 3.078759 3.078331 3.077737 3.077048 3.077091 3.076426 3.076283 3.076396 3.076130 3.076294 3.075527 3.074878 3.074416 3.075320 3.074910 3.075206 3.074486 3.075369 3.074893 3.074904 3.074770 3.074021 3.073704 3.073185 3.072503 3.072256 3.074850 3.074604 3.073848 3.073079 3.072350 3.073137 3.072697 3.071943 3.072895 3.072212 3.071782 3.073058 3.072592 3.073734 3.073390 3.072662 3.072105 3.071596 3.072390 3.072049 3.071448 3.070708 3.070742 3.070044 3.071578 3.071348 3.070601 3.069885 3.069479 3.072999 3.073012 3.073941 3.073231 3.074432 3.073740 3.079358 3.078594 3.079034 3.079825 3.079234 3.078501 3.077953 3.077751 3.077478 3.078784 3.078191 3.077990 3.077227 3.076531 3.077174 3.077380 3.077255 3.076494 3.075726 3.075336 3.074934 3.076082 3.075363 3.076162 3.076266 3.076215 3.075828 3.075855 3.078021 3.077268 3.076499 3.076226 3.078114 3.077990 3.077968 3.077306 3.076754 3.076957 3.076789 3.077656 3.078037 3.078570 3.078553 3.077995 3.078649 3.078296 3.077746 3.077166 3.077003 3.076550 3.076289 3.075713 3.076266 3.077533 3.077457 3.076807 3.076299 3.076327 3.076003 3.075859 3.076278 3.076225 3.076124 3.075683 3.075235 3.074537 3.074737 3.076160 3.077635 3.077773 3.077507 3.077069 3.076992 3.076248 3.075490 3.076910 3.077459 3.077124 3.076620 3.076385 3.076317 3.075643 3.076078 3.075728 3.075176 3.075407 3.077611 3.081827 3.081163 3.080488 3.080188 3.079757 3.079213 3.079430 3.078794 3.078143 3.081546 3.083239 3.082529 3.082387 3.082830 3.085202 3.085312 3.084934 3.084177 3.083683 3.083098 3.083999 3.083310 3.083525 3.083670 3.083542 3.084922 3.084425 3.083691 3.083488 3.082851 3.085698 3.085421 3.084984 3.085207 3.084719 3.083950 3.084679 3.086184 3.085885 3.088144 3.091109 3.090655 3.091068 3.090827 3.090430 3.089772 3.089975 3.090391 3.091764 3.091280 3.092060 3.092177 3.091546 3.090812 3.092141 3.096384 3.095838 3.096037 3.096424 3.096079 3.095721 3.096703 3.098675 3.098131 3.097898 3.097461 3.097040 3.099523 3.099006 3.098584 3.098205 3.098979 3.099965 3.099520 3.099286 3.099399 3.098871 3.098156 3.098237 3.100378 3.099902 3.099169 3.100344 3.099626 3.099172 3.098532 3.099124 3.098406 3.098748 3.098161 3.097764 3.097832 3.097104 3.097319 3.098289 3.097681 3.098241 3.097719 3.099311 3.099415 3.099695 3.099385 3.099060 3.098655 3.098778 3.099057 3.098633 3.098616 3.098052 3.098552 3.098688 3.097940 3.097678 3.098333 3.098183 3.098623 3.098321 3.098093 3.097996 3.097298 3.096796 3.096212 3.096889 3.096532 3.096593 3.097123 3.096709 3.096718 3.099241 3.100280 3.099664 3.099771 3.099134 3.099449 3.100795 3.100551 3.100179 3.099427 3.098983 3.101975 3.102131 3.102268 3.101970 3.101640 3.101758 3.102249 3.103364 3.103412 3.104080 3.103946 3.104279 3.105914 3.106189 3.106049 3.105708 3.105676 3.105911 3.105817 3.105060 3.106408 3.106446 3.108676 3.108173 3.108259 3.107716 3.108375 3.107814 3.107151 3.106967 3.108696 3.109297 3.108831 3.109847 3.109261 3.109887 3.109941 3.109341 3.108823 3.108330 3.107886 3.107711 3.107618 3.108382 3.108062 3.107505 3.108034 3.107429 3.107336 3.107500 3.109054 3.108711 3.107950 3.107657 3.107050 3.108996 3.108611 3.108749 3.108620 3.108907 3.108162 3.109236 3.109492 3.111976 3.111719 3.111372 3.110622 3.110904 3.110864 3.110191 3.109660 3.109435 3.110083 3.110053 3.109863 3.110284 3.109653 3.109607 3.108832 3.108330 3.107734 3.107088 3.106922 3.107034 3.107201 3.106719 3.106547 3.105961 3.106942 3.107729 3.107108 3.106632 3.107239 3.106575 3.106055 3.105749 3.107936 3.108193 3.107942 3.107233 3.108630 3.109150 3.108551 3.108425 3.107917 3.109112 3.109100 3.108401 3.109371 3.110122 3.109667 3.111302 3.111565 3.111584 3.111977 3.111402 3.111579 3.112238 3.112908 3.112739 3.112093 3.112420 3.112599 3.112218 3.111787 3.111094 3.110431 3.110099 3.109980 3.109734 3.109977 3.110075 3.109780 3.109909 3.109846 3.110118 3.110805 3.110224 3.109865 3.109182 3.108621 3.108838 3.108724 3.108281 3.107600 3.107163 3.107166 3.106983 3.107347 3.107030 3.106440 3.106525 3.106390 3.105997 3.105607 3.105394 3.105441 3.105190 3.105905 3.106500 3.107332 3.108282 3.107883 3.107238 3.107049 3.106670 3.107283 3.107315 3.106582 3.105870 3.106278 3.107242 3.106968 3.106651 3.106333 3.107535 3.107859 3.107151 3.107021 3.107294 3.107205 3.106759 3.106862 3.107225 3.106472 3.106924 3.107316 3.107012 3.106946 3.106299 3.106935 3.107418 3.107338 3.107444 3.106679 3.106775 3.106614 3.106468 3.106334 3.105933 3.105997 3.106668 3.106937 3.107033 3.106660 3.107639 3.107321 3.106724 3.106359 3.106590 3.106450 3.106193 3.106018 3.106023 3.105772 3.107201 3.107277 3.106746 3.106068 3.105390 3.105203 3.106060 3.106024 3.106914 3.106531 3.105963 3.106342 3.106593 3.106958 3.106993 3.106597 3.105934 3.106682 3.106751 3.107038 3.106564 3.107342 3.107184 3.107409 3.107530 3.107254 3.107687 3.107248 3.107823 3.107500 3.107562 3.107142 3.107219 3.108103 3.109030 3.108568 3.108358 3.107863 3.107519 3.107013 3.106831 3.106427 3.105854 3.105110 3.105269 3.105263 3.104823 3.104440 3.106544 3.107199 3.107696 3.107859 3.107807 3.108486 3.108295 3.107715 3.107348 3.107289 3.106787 3.106593 3.106532 3.107083 3.106732 3.106905 3.106511 3.106083 3.105607 3.105462 3.105484 3.105214 3.106386 3.106852 3.106877 3.106951 3.106341 3.105908 3.106454 3.105977 3.105770 3.106379 3.106032 3.106227 3.107731 3.107796 3.108195 3.107615 3.106999 3.107484 3.107346 3.107438 3.107605 3.107473 3.108221 3.108279 3.110803 3.110736 3.110606 3.110332 3.110513 3.110102 3.110532 3.110655 3.111971 3.112519 3.112060 3.111447 3.111450 3.111657 3.111389 3.111145 3.110561 3.110282 3.109810 3.111627 3.112077 3.112214 3.112056 3.111848 3.112992 3.113515 3.113345 3.113143 3.114193 3.113613 3.113156 3.112507 3.113597 3.113917 3.113818 3.113802 3.113248 3.112976 3.112599 3.112503 3.111904 3.111352 3.110817 3.111518 3.111314 3.112623 3.112393 3.111682 3.112097 3.111760 3.111182 3.113061 3.113994 3.114527 3.115096 3.115662 3.116642 3.118321 3.119071 3.118639 3.118787 3.119053 3.119323 3.119078 3.118654 3.119166 3.118597 3.119177 3.119066 3.118787 3.118425 3.118247 3.118026 3.118443 3.118760 3.119024 3.118465 3.118195 3.117592 3.117816 3.118591 3.118576 3.118853 3.119261 3.119018 3.118597 3.118201 3.117805 3.118321 3.118295 3.117750 3.118301 3.118509 3.119658 3.119735 3.119350 3.119098 3.118647 3.119167 3.118765 3.118203 3.117655 3.117241 3.116814 3.116753 3.116032 3.117170 3.116817 3.116580 3.116385 3.116157 3.115558 3.115849 3.115449 3.115317 3.116229 3.116125 3.115378 3.115477 3.114842 3.115686 3.116782 3.116516 3.116372 3.116208 3.116505 3.116680 3.116351 3.117170 3.116700 3.116880 3.116332 3.116220 3.116409 3.116271 3.116025 3.116427 3.116464 3.115732 3.116155 3.116040 3.116019 3.115782 3.117930 3.117801 3.117280 3.118433 3.118483 3.118536 3.118220 3.117703 3.117949 3.118217 3.118140 3.117565 3.117492 3.117371 3.116903 3.117190 3.117831 3.117514 3.118294 3.118126 3.117454 3.117947 3.118382 3.118693 3.118111 3.118471 3.118145 3.117961 3.118038 3.118174 3.118024 3.117961 3.118017 3.117370 3.116944 3.117233 3.116727 3.116320 3.117308 3.117398 3.117655 3.117250 3.117312 3.117160 3.117139 3.118053 3.117634 3.117363 3.117454 3.117757 3.117503 3.116947 3.116646 3.116016 3.115563 3.115852 3.115903 3.115757 3.115214 3.114835 3.115208 3.115221 3.116433 3.116133 3.115823 3.115112 3.116441 3.116543 3.117235 3.117204 3.117274 3.117398 3.117121 3.117689 3.117542 3.117264 3.117022 3.117650 3.117734 3.117413 3.116924 3.116387 3.115725 3.115681 3.115508 3.114990 3.114424 3.114725 3.114659 3.114470 3.113833 3.113653 3.113553 3.113215 3.113620 3.114126 3.115093 3.115227 3.115345 3.114672 3.115892 3.115613 3.115027 3.114566 3.114898 3.115313 3.115117 3.115101 3.115997 3.116054 3.115719 3.116747 3.116574 3.116260 3.116714 3.116351 3.116361 3.115943 3.116026 3.115664 3.115160 3.116084 3.115701 3.115091 3.115627 3.115159 3.115274 3.114875 3.114802 3.114399 3.114802 3.114671 3.114010 3.113732 3.113257 3.113149 3.113279 3.112986 3.112364 3.112469 3.111951 3.112342 3.112000 3.113105 3.113374 3.112962 3.112432 3.111955 3.111414 3.111070 3.111781 3.111424 3.111101 3.110454 3.111946 3.111497 3.110935 3.111504 3.110811 3.110348 3.110231 3.110006 3.109437 3.109201 3.109084 3.108841 3.108935 3.108594 3.109496 3.109084 3.111027 3.111575 3.111045 3.111592 3.111129 3.110668 3.111345 3.110748 3.110252 3.109781 3.110719 3.112364 3.112305 3.112117 3.112674 3.112075 3.112675 3.112640 3.112076 3.112034 3.111414 3.111006 3.111749 3.112854 3.112609 3.112222 3.112284 3.111995 3.111598 3.111272 3.111919 3.111775 3.111815 3.111355 3.110881 3.110496 3.110247 3.111314 3.111292 3.111398 3.110886 3.110464 3.112551 3.112840 3.112692 3.112111 3.111924 3.111154 3.110862 3.110716 3.110720 3.110598 3.111280 3.112242 3.112195 3.111752 3.111285 3.111173 3.110963 3.110613 3.111311 3.111131 3.111474 3.111009 3.110938 3.110957 3.110932 3.111667 3.112335 3.111735 3.111849 3.111308 3.110834 3.110147 3.110079 3.109663 3.109259 3.108763 3.109477 3.109437 3.108972 3.110036 3.111838 3.111167 3.110693 3.110186 3.109693 3.109332 3.108815 3.109420 3.110494 3.110556 3.110083 3.110068 3.110962 3.110650 3.110263 3.110816 3.110462 3.110811 3.111118 3.111018 3.111825 3.111418 3.110757 3.110370 3.110020 3.110705 3.110592 3.110869 3.110517 3.109941 3.109592 3.110886 3.111246 3.110772 3.111001 3.110489 3.110001 3.110632 3.110536 3.110193 3.110449 3.110721 3.110205 3.109977 3.109708 3.109795 3.109813 3.109422 3.109509 3.109608 3.109260 3.109577 3.109286 3.109136 3.109030 3.108472 3.108377 3.109773 3.111318 3.110844 3.110181 3.109809 3.109748 3.109822 3.109314 3.110150 3.110026 3.110525 3.110517 3.110232 3.110695 3.110071 3.109949 3.109532 3.109355 3.108802 3.108336 3.108852 3.108148 3.108106 3.107570 3.107425 3.107352 3.107541 3.107040 3.107687 3.108316 3.109914 3.109822 3.110587 3.110379 3.110185 3.111299 3.110657 3.110716 3.110372 3.109732 3.109996 3.109389 3.108830 3.108811 3.108154 3.107841 3.107634 3.107224 3.107320 3.107279 3.106931 3.106720 3.107142 3.107004 3.106581 3.106279 3.106253 3.105801 3.105337 3.105324 3.105347 3.104860 3.104578 3.104468 3.104167 3.103777 3.103400 3.102946 3.102834 3.102903 3.103149 3.103689 3.104335 3.103924 3.103650 3.103913 3.104879 3.104997 3.105026 3.105185 3.105136 3.104739 3.104326 3.104041 3.103471 3.103745 3.103715 3.103575 3.104121 3.103679 3.103227 3.103063 3.103033 3.102993 3.102570 3.102302 3.102112 3.102319 3.102290 3.102952 3.102862 3.102801 3.102165 3.101705 3.101387 3.101550 3.100936 3.100726 3.101205 3.100740 3.101133 3.101139 3.100499 3.099983 3.099826 3.099491 3.100100 3.101288 3.100821 3.100232 3.099797 3.100401 3.100188 3.100224 3.100447 3.101022 3.100745 3.101057 3.100735 3.101398 3.101502 3.101738 3.102581 3.103266 3.103123 3.103305 3.103031 3.103336 3.103140 3.102823 3.102734 3.102524 3.101876 3.102154 3.101827 3.101657 3.102430 3.102238 3.101797 3.101675 3.101564 3.101518 3.101555 3.101005 3.100912 3.100796 3.101080 3.100428 3.100593 3.100824 3.100800 3.100289 3.101028 3.100953 3.101870 3.101451 3.100810 3.100424 3.100298 3.099847 3.099539 3.099129 3.098726 3.098541 3.098305 3.097666 3.098105 3.097831 3.097196 3.096616 3.097408 3.097562 3.097637 3.097515 3.096949 3.096886 3.096905 3.097223 3.097253 3.097080 3.097432 3.097316 3.096993 3.097015 3.096442 3.096188 3.096011 3.095434 3.094713 3.094137 3.094245 3.093948 3.094217 3.094962 3.094354 3.094279 3.094244 3.093523 3.092988 3.093198 3.092751 3.092386 3.092644 3.092383 3.091941 3.091895 3.091977 3.092312 3.091728 3.091242 3.090856 3.090320 3.090881 3.091070 3.091789 3.091411 3.090812 3.090697 3.090619 3.090319 3.090233 3.089857 3.089657 3.091306 3.091014 3.090844 3.090276 3.090189 3.091238 3.091296 3.092385 3.092162 3.091732 3.092219 3.091535 3.091517 3.090993 3.091475 3.090986 3.091025 3.092011 3.091670 3.092964 3.092670 3.092170 3.091888 3.091992 3.092596 3.092940 3.092514 3.092146 3.092249 3.092450 3.092761 3.092865 3.093188 3.093245 3.093005 3.092673 3.092731 3.093061 3.092926 3.093504 3.094394 3.093809 3.093604 3.093456 3.093570 3.093941 3.093609 3.093078 3.092998 3.092509 3.091806 3.091650 3.091183 3.091629 3.091529 3.091750 3.091450 3.091983 3.091996 3.092292 3.092224 3.091532 3.091062 3.090808 3.090569 3.090346 3.089694 3.089306 3.089457 3.089168 3.088618 3.089500 3.089154 3.088913 3.088891 3.088327 3.088064 3.088735 3.089042 3.088921 3.088982 3.088591 3.088333 3.089001 3.088705 3.088509 3.088485 3.088130 3.088377 3.088362 3.088656 3.089046 3.088913 3.088559 3.089558 3.089355 3.089043 3.088899 3.088355 3.090254 3.090871 3.091333 3.091453 3.091128 3.091365 3.091200 3.092173 3.092137 3.092208 3.091913 3.092019 3.091879 3.091363 3.090856 3.091022 3.091348 3.092062 3.091495 3.091734 3.091551 3.091212 3.091238 3.090942 3.090445 3.090239 3.090207 3.089500 3.088998 3.089169 3.089017 3.088899 3.089116 3.088642 3.088209 3.088018 3.088065 3.088136 3.087602 3.087825 3.087771 3.088283 3.087806 3.087410 3.086937 3.086690 3.086728 3.086344 3.086215 3.085667 3.085709 3.085952 3.085533 3.085649 3.085489 3.085492 3.085642 3.085622 3.085439 3.085259 3.084911 3.084869 3.084786 3.085548 3.085272 3.084703 3.085047 3.085273 3.085039 3.085540 3.084939 3.085028 3.085739 3.085449 3.084836 3.084842 3.084616 3.084129 3.083866 3.083478 3.083335 3.083279 3.083016 3.082381 3.082614 3.082608 3.082673 3.082184 3.082419 3.081716 3.082224 3.082100 3.081691 3.082047 3.082912 3.082955 3.083023 3.082926 3.083362 3.083189 3.083261 3.082831 3.082746 3.082882 3.082430 3.082689 3.082415 3.082602 3.081992 3.081335 3.081155 3.082189 3.082411 3.082067 3.081783 3.081081 3.081753 3.081438 3.080915 3.080310 3.081449 3.082308 3.082205 3.081960 3.081821 3.081281 3.080980 3.080890 3.080415 3.080205 3.080462 3.080364 3.081087 3.081192 3.082203 3.082619 3.083892 3.083584 3.084315 3.085026 3.084566 3.084448 3.084097 3.084218 3.084510 3.084972 3.084412 3.084371 3.084352 3.083719 3.084007 3.083771 3.083444 3.084329 3.084025 3.083857 3.083580 3.083540 3.083802 3.084233 3.083983 3.083778 3.083566 3.083135 3.082830 3.083171 3.083381 3.083084 3.082666 3.082820 3.082614 3.082962 3.082588 3.082396 3.082099 3.081964 3.081876 3.081585 3.082286 3.081912 3.081579 3.081459 3.081248 3.080740 3.082187 3.082253 3.082821 3.083013 3.083272 3.083139 3.083528 3.083446 3.083160 3.083499 3.082973 3.082917 3.082481 3.082364 3.082455 3.082241 3.082614 3.083287 3.083649 3.083439 3.083105 3.083232 3.083053 3.082539 3.082400 3.083041 3.083324 3.083042 3.083771 3.083463 3.083819 3.084678 3.084495 3.084405 3.084113 3.083986 3.083743 3.083301 3.082862 3.082598 3.082275 3.082376 3.081956 3.082355 3.082217 3.082394 3.081789 3.081712 3.081854 3.081936 3.081522 3.081915 3.082949 3.083335 3.083505 3.083897 3.083519 3.083587 3.086315 3.088041 3.088384 3.088014 3.087648 3.087589 3.087986 3.088133 3.088148 3.087814 3.087602 3.087378 3.087070 3.086699 3.087024 3.086485 3.086523 3.086247 3.086449 3.085894 3.086241 3.086195 3.086010 3.085570 3.085120 3.084555 3.084654 3.085093 3.085103 3.086454 3.087034 3.086436 3.086060 3.086483 3.086176 3.086522 3.086340 3.086520 3.086176 3.086444 3.087267 3.087131 3.086939 3.087214 3.087030 3.086855 3.087448 3.087647 3.088463 3.088748 3.088698 3.088241 3.088164 3.087532 3.087331 3.087290 3.087910 3.088338 3.088847 3.088658 3.088357 3.088554 3.087916 3.087368 3.088030 3.087593 3.087728 3.087339 3.087006 3.087909 3.087424 3.087090 3.086781 3.087020 3.087789 3.087552 3.087716 3.089968 3.089904 3.090618 3.090659 3.090420 3.091767 3.092121 3.091575 3.091161 3.091058 3.090634 3.090561 3.090568 3.090451 3.090690 3.090124 3.091966 3.091421 3.091888 3.091347 3.091433 3.091248 3.091763 3.092741 3.092263 3.092622 3.092390 3.092576 3.092477 3.092102 3.091667 3.091644 3.091561 3.091699 3.091565 3.091615 3.091485 3.091350 3.090849 3.090596 3.090102 3.090646 3.090467 3.090841 3.090390 3.089875 3.089758 3.089609 3.089274 3.090052 3.089359 3.089174 3.089657 3.089424 3.089407 3.089125 3.089065 3.089151 3.089130 3.089070 3.088970 3.089893 3.090650 3.090849 3.091275 3.090665 3.089962 3.089542 3.089455 3.089788 3.089952 3.090483 3.090245 3.091715 3.091755 3.091526 3.091648 3.091098 3.091453 3.091194 3.090868 3.090762 3.090510 3.090071 3.089946 3.089608 3.089546 3.089419 3.089576 3.089138 3.088734 3.088520 3.088524 3.088592 3.088088 3.088062 3.087531 3.087875 3.088100 3.087746 3.087415 3.086938 3.087357 3.087912 3.088170 3.087819 3.087598 3.087676 3.087567 3.087302 3.088262 3.088240 3.088323 3.087748 3.087287 3.087621 3.087284 3.087377 3.087995 3.088290 3.089155 3.089130 3.088705 3.088791 3.089363 3.088766 3.089211 3.089075 3.088618 3.088500 3.088634 3.088332 3.087917 3.087584 3.088207 3.088534 3.089945 3.089616 3.089305 3.089410 3.089075 3.089612 3.089597 3.090039 3.090393 3.089841 3.089914 3.090869 3.090619 3.091100 3.090973 3.090700 3.090624 3.091057 3.090483 3.090136 3.090552 3.090384 3.090191 3.090161 3.090293 3.090162 3.089769 3.089645 3.089166 3.089423 3.089220 3.089821 3.089389 3.089145 3.089248 3.088910 3.089601 3.090147 3.089851 3.090007 3.090269 3.090313 3.090017 3.089694 3.089579 3.090464 3.090559 3.090344 3.090091 3.089561 3.089586 3.088912 3.089196 3.089318 3.089543 3.089217 3.089891 3.089911 3.089933 3.089549 3.089065 3.088567 3.089427 3.089451 3.089683 3.089542 3.089590 3.089015 3.089192 3.089276 3.088959 3.088705 3.088617 3.088384 3.088480 3.088281 3.088143 3.088413 3.088934 3.088500 3.088029 3.087811 3.088080 3.087717 3.087767 3.087930 3.089617 3.089682 3.089678 3.089615 3.090515 3.091023 3.091425 3.090927 3.090704 3.091064 3.091361 3.091377 3.091443 3.091532 3.090872 3.090425 3.090181 3.090695 3.090881 3.091080 3.091025 3.091259 3.090873 3.090772 3.092085 3.092018 3.091943 3.092147 3.091560 3.092302 3.091953 3.091842 3.091443 3.091623 3.091404 3.092036 3.091818 3.091457 3.091485 3.092336 3.092525 3.092329 3.092058 3.092161 3.092325 3.092877 3.093394 3.093384 3.093195 3.093022 3.092856 3.092996 3.093703 3.093910 3.093424 3.093717 3.094044 3.093562 3.093611 3.094041 3.094545 3.094311 3.094539 3.094158 3.094017 3.093972 3.093541 3.093108 3.093371 3.093052 3.093390 3.093486 3.093255 3.093386 3.092899 3.092647 3.092164 3.091887 3.091371 3.091309 3.091328 3.090915 3.090863 3.090772 3.090308 3.090646 3.091026 3.090710 3.090827 3.090360 3.090345 3.090577 3.090412 3.090821 3.090278 3.089574 3.089189 3.088478 3.088333 3.088096 3.087875 3.087849 3.088828 3.089725 3.089997 3.089510 3.089095 3.089018 3.090013 3.090107 3.090375 3.089730 3.090063 3.090356 3.090300 3.089855 3.090988 3.091357 3.091798 3.091527 3.091640 3.091416 3.090924 3.091178 3.091003 3.090999 3.090858 3.090955 3.090656 3.090470 3.091044 3.090975 3.090314 3.090027 3.090358 3.091089 3.090930 3.090594 3.090118 3.089714 3.089235 3.090837 3.091162 3.090852 3.090875 3.090506 3.090333 3.089612 3.089094 3.090141 3.090190 3.090061 3.090296 3.091011 3.090600 3.091570 3.091834 3.091413 3.090761 3.090066 3.089975 3.089783 3.089936 3.089832 3.089701 3.089395 3.089172 3.089163 3.088944 3.089011 3.089086 3.088925 3.089824 3.089405 3.089151 3.089758 3.089700 3.090173 3.090416 3.090998 3.090941 3.090908 3.090448 3.090315 3.091306 3.091200 3.091013 3.090499 3.090269 3.090670 3.090659 3.090149 3.089767 3.089321 3.089377 3.089066 3.089154 3.089577 3.089177 3.089769 3.089719 3.090120 3.090324 3.090122 3.090321 3.091014 3.090437 3.090285 3.089833 3.089507 3.089983 3.089799 3.090514 3.090574 3.091198 3.090644 3.090373 3.091088 3.090869 3.091953 3.092388 3.091964 3.092809 3.092967 3.092449 3.093289 3.092925 3.093236 3.093230 3.093693 3.093432 3.093004 3.093485 3.093339 3.093141 3.092754 3.092337 3.092577 3.092319 3.091923 3.091248 3.091300 3.091077 3.090745 3.090319 3.090711 3.090814 3.090449 3.090536 3.090186 3.090015 3.090040 3.090202 3.090216 3.091784 3.091635 3.091192 3.090964 3.091166 3.090661 3.090898 3.090561 3.090194 3.090150 3.089720 3.089126 3.089613 3.089084 3.088818 3.088272 3.088910 3.088695 3.088418 3.088803 3.088376 3.088006 3.088078 3.088129 3.087622 3.087447 3.087033 3.086929 3.086729 3.086318 3.086780 3.086435 3.086095 3.086429 3.085821 3.085904 3.086146 3.086360 3.086666 3.087312 3.087488 3.087523 3.087777 3.088705 3.088235 3.087933 3.087486 3.087992 3.087640 3.087347 3.087538 3.087399 3.087202 3.086760 3.086158 3.086572 3.086515 3.086413 3.085989 3.085612 3.085363 3.085425 3.085414 3.085535 3.086255 3.086366 3.086014 3.086126 3.086906 3.086863 3.087105 3.086999 3.086780 3.087018 3.087996 3.088583 3.088541 3.088909 3.089087 3.088808 3.089096 3.088847 3.088909 3.089234 3.089462 3.089774 3.090591 3.090761 3.090248 3.089555 3.090166 3.090374 3.090588 3.090948 3.090428 3.090370 3.090343 3.090641 3.090398 3.090030 3.090372 3.089944 3.090735 3.090684 3.090956 3.091139 3.091084 3.090849 3.090938 3.090592 3.090014 3.089606 3.089395 3.091659 3.091289 3.091473 3.091765 3.091559 3.091240 3.090847 3.090370 3.089780 3.089994 3.090204 3.089887 3.089887 3.089989 3.089715 3.089497 3.089766 3.089685 3.089807 3.089455 3.089342 3.089155 3.089315 3.089467 3.089833 3.089729 3.089855 3.090389 3.090456 3.090552 3.090696 3.090430 3.090290 3.089953 3.090161 3.089980 3.089460 3.089085 3.088836 3.088982 3.089388 3.090124 3.089823 3.089981 3.090440 3.090011 3.090101 3.089836 3.089735 3.089727 3.089716 3.089423 3.089170 3.089605 3.090097 3.090241 3.091428 3.091168 3.090672 3.091895 3.091529 3.091066 3.091375 3.091717 3.091432 3.091210 3.091074 3.090567 3.090119 3.090324 3.090566 3.090364 3.089802 3.089393 3.090020 3.089859 3.089734 3.089699 3.089459 3.089334 3.089603 3.089520 3.089059 3.088660 3.089309 3.089658 3.089318 3.088965 3.088771 3.089653 3.089318 3.089368 3.088847 3.088586 3.088043 3.088358 3.088195 3.088997 3.088774 3.088662 3.089177 3.088739 3.088287 3.087666 3.087718 3.087616 3.087437 3.087497 3.087144 3.086881 3.086562 3.086305 3.085754 3.085387 3.085811 3.086055 3.086243 3.086028 3.086125 3.085683 3.085551 3.085935 3.085827 3.087096 3.087289 3.087149 3.086738 3.086369 3.086447 3.086020 3.085616 3.085616 3.085698 3.085717 3.085279 3.085048 3.085391 3.085235 3.085042 3.084841 3.084505 3.084409 3.084545 3.084022 3.084234 3.084027 3.083590 3.083720 3.083792 3.083466 3.083222 3.083130 3.083338 3.083646 3.083268 3.082764 3.082603 3.082491 3.081943 3.082439 3.082943 3.083956 3.083547 3.083349 3.082862 3.082335 3.082083 3.082011 3.081712 3.081969 3.081833 3.081654 3.081366 3.081176 3.081442 3.080948 3.081227 3.081638 3.081283 3.081000 3.080321 3.080049 3.080009 3.081110 3.081008 3.080555 3.081177 3.080993 3.080376 3.079972 3.079964 3.080172 3.081327 3.081918 3.082101 3.081912 3.081417 3.080974 3.080860 3.080448 3.080266 3.080497 3.080025 3.079871 3.079382 3.078882 3.079503 3.079434 3.080311 3.079971 3.079744 3.079645 3.080791 3.080457 3.079992 3.079447 3.079240 3.078870 3.078838 3.079562 3.079313 3.080193 3.079872 3.079460 3.079469 3.079203 3.079979 3.079761 3.080758 3.080839 3.081976 3.082346 3.082489 3.082506 3.082019 3.081776 3.081790 3.081661 3.081756 3.081661 3.081645 3.081079 3.080863 3.081174 3.080875 3.080708 3.080811 3.080539 3.081652 3.081388 3.081218 3.080995 3.080563 3.081215 3.081422 3.081664 3.081324 3.081346 3.080983 3.080994 3.081796 3.081480 3.081100 3.080502 3.080532 3.080207 3.080187 3.079912 3.080480 3.080323 3.080186 3.079883 3.079357 3.079706 3.079511 3.079739 3.080297 3.080484 3.080866 3.081095 3.081816 3.081950 3.081775 3.082324 3.082029 3.081824 3.081257 3.081419 3.082128 3.082111 3.081762 3.081605 3.081397 3.081172 3.081010 3.081704 3.081447 3.081714 3.081863 3.081701 3.082320 3.082083 3.082535 3.082243 3.083291 3.083412 3.083051 3.082899 3.082315 3.082534 3.081924 3.081972 3.081375 3.081081 3.080596 3.080947 3.080856 3.081436 3.081101 3.081051 3.081048 3.080696 3.080329 3.079938 3.079623 3.080072 3.080572 3.080948 3.081260 3.081249 3.080877 3.080845 3.080554 3.080625 3.080149 3.079660 3.080269 3.080279 3.080410 3.080495 3.080006 3.079788 3.079672 3.079216 3.079356 3.079351 3.079062 3.079042 3.078979 3.079823 3.080537 3.080328 3.080260 3.080140 3.080136 3.079616 3.079666 3.079976 3.080261 3.079989 3.080032 3.080067 3.079808 3.080704 3.081548 3.081699 3.081587 3.081265 3.080960 3.080568 3.080061 3.080173 3.080574 3.080145 3.080819 3.080453 3.080266 3.080129 3.080021 3.080015 3.080699 3.081206 3.080886 3.080979 3.080791 3.082363 3.082123 3.081973 3.081851 3.081957 3.081858 3.081719 3.081212 3.081077 3.080489 3.080120 3.079857 3.079361 3.079299 3.079048 3.078518 3.077988 3.079200 3.079431 3.079468 3.079237 3.078956 3.079322 3.079056 3.078728 3.078367 3.078654 3.079893 3.079565 3.079127 3.079051 3.078990 3.079025 3.079287 3.078678 3.079113 3.078781 3.078538 3.078502 3.078721 3.078056 3.077675 3.077567 3.077164 3.078259 3.077607 3.077887 3.077318 3.077146 3.077336 3.077815 3.079411 3.078922 3.078460 3.078746 3.078845 3.079449 3.079228 3.078952 3.078511 3.078703 3.078338 3.077783 3.077363 3.077179 3.077137 3.076637 3.076798 3.076802 3.077348 3.076960 3.076854 3.076555 3.076254 3.075806 3.075740 3.075594 3.075458 3.074824 3.074761 3.075135 3.074659 3.074291 3.074523 3.074807 3.074381 3.074046 3.074283 3.073710 3.074131 3.074240 3.074335 3.074820 3.074961 3.075178 3.074751 3.074491 3.074184 3.074016 3.073620 3.073232 3.073243 3.073043 3.072790 3.074241 3.073741 3.073167 3.072800 3.072980 3.073872 3.073328 3.073124 3.073138 3.073182 3.073025 3.073053 3.072924 3.072963 3.073072 3.072914 3.073271 3.073095 3.072748 3.072612 3.072834 3.072594 3.072593 3.072458 3.072557 3.073275 3.072853 3.072785 3.072588 3.073485 3.073754 3.073636 3.073940 3.074098 3.073621 3.074487 3.074621 3.074561 3.074892 3.075140 3.074919 3.074886 3.074644 3.074426 3.074138 3.073890 3.073555 3.073696 3.073797 3.073421 3.073815 3.073445 3.073411 3.073612 3.073407 3.073671 3.073279 3.073011 3.072607 3.073731 3.073599 3.073793 3.073697 3.073830 3.073803 3.074051 3.073854 3.074231 3.074862 3.074586 3.075244 3.075918 3.075705 3.075267 3.074687 3.074285 3.073888 3.074051 3.073505 3.073475 3.072992 3.072716 3.073027 3.072850 3.072583 3.071984 3.071644 3.071521 3.072046 3.071590 3.072528 3.072257 3.071727 3.071657 3.071712 3.071848 3.071613 3.071703 3.071547 3.071391 3.070948 3.072137 3.072570 3.072598 3.072566 3.072218 3.072299 3.072333 3.072225 3.072402 3.072310 3.072006 3.071975 3.072173 3.072216 3.071790 3.071228 3.071240 3.071583 3.071619 3.071661 3.071375 3.071502 3.071102 3.070771 3.070972 3.070782 3.070245 3.070467 3.070264 3.070166 3.070220 3.070049 3.070226 3.070182 3.070069 3.070160 3.070243 3.070062 3.070646 3.070528 3.070418 3.070308 3.070061 3.070230 3.070061 3.070304 3.070241 3.070265 3.069768 3.069223 3.069006 3.069142 3.069099 3.069139 3.068925 3.068523 3.068286 3.067723 3.067552 3.067823 3.068013 3.068331 3.067841 3.067703 3.068086 3.067878 3.067416 3.067200 3.067414 3.067745 3.067441 3.067514 3.067166 3.066565 3.066458 3.066553 3.066197 3.067067 3.067202 3.068724 3.068592 3.068404 3.068653 3.068645 3.068697 3.068691 3.068686 3.068550 3.068539 3.068584 3.068341 3.068884 3.068553 3.068881 3.068949 3.068629 3.068638 3.069084 3.069458 3.070013 3.070080 3.071287 3.070906 3.071022 3.070481 3.069804 3.069679 3.069769 3.069600 3.069984 3.070190 3.069904 3.070105 3.070993 3.070557 3.070262 3.069921 3.070073 3.069937 3.070107 3.069935 3.069569 3.069248 3.069803 3.069694 3.069536 3.068890 3.068668 3.068765 3.068422 3.068211 3.069824 3.069847 3.069397 3.069414 3.069016 3.068874 3.068516 3.068349 3.068416 3.068223 3.068873 3.068804 3.068165 3.067776 3.068068 3.068148 3.068047 3.067685 3.067184 3.067211 3.067290 3.066964 3.066517 3.066063 3.066379 3.066171 3.065686 3.065631 3.065647 3.065898 3.065805 3.066703 3.066203 3.066051 3.065795 3.065978 3.066071 3.066190 3.065925 3.066052 3.065781 3.066081 3.066299 3.065718 3.065412 3.064968 3.064830 3.065375 3.065103 3.064471 3.063921 3.063643 3.063318 3.063131 3.063056 3.063256 3.063795 3.063655 3.063797 3.063414 3.063095 3.062715 3.062363 3.062548 3.062989 3.062849 3.063319 3.063559 3.063442 3.063234 3.063452 3.062877 3.063046 3.063382 3.063661 3.063991 3.064114 3.064188 3.064411 3.064121 3.064201 3.064286 3.064038 3.063463 3.062841 3.062411 3.062269 3.062436 3.062458 3.062330 3.062103 3.062500 3.062471 3.062398 3.062349 3.063043 3.063225 3.062929 3.062618 3.062809 3.063342 3.063254 3.062878 3.063751 3.063400 3.063382 3.063099 3.063306 3.063043 3.063031 3.062647 3.062793 3.062196 3.062277 3.062152 3.062537 3.062526 3.062087 3.061826 3.061533 3.061623 3.061576 3.061408 3.060849 3.060904 3.060634 3.060774 3.060528 3.060724 3.060389 3.060201 3.060492 3.060148 3.059611 3.059214 3.059454 3.059607 3.060043 3.060239 3.059973 3.059750 3.059812 3.059779 3.060146 3.059986 3.060072 3.060288 3.060234 3.060641 3.060552 3.060467 3.060071 3.059886 3.059829 3.059350 3.059699 3.060016 3.060069 3.059667 3.059606 3.059204 3.059837 3.059687 3.059142 3.059330 3.058996 3.059295 3.059281 3.058961 3.058571 3.058214 3.057656 3.057510 3.057783 3.057879 3.057858 3.058566 3.058609 3.059495 3.059512 3.059834 3.060113 3.059960 3.059664 3.059498 3.059469 3.058975 3.059546 3.059662 3.059546 3.059404 3.059147 3.059787 3.060014 3.059873 3.059828 3.059357 3.059328 3.059857 3.060137 3.060025 3.059726 3.060163 3.059638 3.059270 3.059635 3.059895 3.059707 3.059733 3.059383 3.059093 3.058777 3.058807 3.058730 3.059186 3.059042 3.058553 3.058423 3.058318 3.057774 3.057947 3.057750 3.057996 3.058071 3.058002 3.057760 3.057364 3.058114 3.058328 3.058495 3.058371 3.058146 3.057837 3.058455 3.058819 3.058533 3.058565 3.058166 3.059062 3.059140 3.058531 3.059144 3.058969 3.059273 3.058955 3.059390 3.059083 3.059657 3.059363 3.059103 3.058750 3.058533 3.059032 3.059161 3.058855 3.058454 3.058574 3.058577 3.058443 3.058272 3.058152 3.059105 3.058560 3.058505 3.058164 3.059068 3.059563 3.059556 3.059368 3.059185 3.059026 3.058600 3.058497 3.058426 3.058185 3.058305 3.057950 3.057944 3.057474 3.057274 3.057237 3.056992 3.056611 3.056387 3.056781 3.056797 3.057079 3.056809 3.056463 3.056527 3.056272 3.055889 3.055401 3.055360 3.055304 3.054979 3.054864 3.054567 3.054397 3.055665 3.055586 3.055387 3.055315 3.054796 3.054607 3.054978 3.055527 3.055249 3.055055 3.055013 3.055301 3.054922 3.054620 3.054482 3.054030 3.054012 3.053568 3.053051 3.052695 3.053045 3.052850 3.053123 3.053191 3.052632 3.052428 3.052685 3.052855 3.053226 3.053246 3.052731 3.052554 3.052198 3.051799 3.051628 3.052152 3.051725 3.051650 3.051540 3.051195 3.050913 3.050684 3.050527 3.050090 3.049638 3.049399 3.049138 3.049131 3.048937 3.048462 3.048027 3.047721 3.047909 3.047578 3.047200 3.046762 3.046275 3.047067 3.046781 3.047115 3.047082 3.046803 3.046728 3.046553 3.046427 3.046339 3.045869 3.045813 3.046165 3.046121 3.045918 3.045804 3.046133 3.045589 3.045452 3.046057 3.046351 3.046689 3.047298 3.047143 3.047231 3.047264 3.047305 3.046992 3.047101 3.046692 3.046316 3.046423 3.046556 3.046626 3.046485 3.047528 3.047472 3.047194 3.046904 3.046819 3.046569 3.046193 3.046484 3.046317 3.045864 3.045698 3.045480 3.045173 3.045037 3.045640 3.045325 3.044999 3.045418 3.045364 3.045009 3.044976 3.044945 3.045272 3.044771 3.044438 3.044242 3.044023 3.044090 3.043918 3.043879 3.044119 3.043636 3.043220 3.043273 3.043491 3.043305 3.043400 3.042868 3.043462 3.043170 3.043317 3.043003 3.042722 3.042950 3.042781 3.043532 3.044236 3.043858 3.044320 3.044245 3.044118 3.043643 3.044152 3.043821 3.043403 3.042973 3.042939 3.042614 3.042767 3.042800 3.042555 3.042300 3.042280 3.042351 3.042639 3.042255 3.041735 3.041329 3.041347 3.041465 3.041273 3.041232 3.041234 3.042052 3.042282 3.042451 3.042252 3.041765 3.041533 3.041185 3.041681 3.041548 3.041442 3.041698 3.041625 3.041723 3.042069 3.042004 3.041792 3.041598 3.041519 3.041462 3.041498 3.041392 3.041094 3.041189 3.040539 3.040273 3.040508 3.040664 3.041073 3.041286 3.041169 3.041082 3.042232 3.042444 3.042658 3.042623 3.042716 3.042876 3.042493 3.042357 3.042070 3.042042 3.041638 3.041678 3.041408 3.040796 3.040629 3.040518 3.040517 3.040637 3.040767 3.040408 3.040494 3.040227 3.040440 3.040646 3.040265 3.040331 3.040095 3.040015 3.040688 3.040948 3.041035 3.040565 3.040448 3.040519 3.040126 3.040144 3.039909 3.039801 3.040901 3.040912 3.041453 3.040935 3.040498 3.040478 3.040375 3.040079 3.039853 3.039710 3.039335 3.038844 3.039120 3.038799 3.038521 3.038822 3.038749 3.038468 3.038244 3.038038 3.037851 3.037924 3.037591 3.037550 3.037279 3.036940 3.036750 3.036932 3.037083 3.037138 3.037071 3.036981 3.037024 3.036740 3.037572 3.037446 3.037615 3.037325 3.037631 3.037811 3.037842 3.037525 3.037710 3.037353 3.037380 3.036883 3.036862 3.036380 3.036856 3.036536 3.037068 3.037149 3.037687 3.037291 3.036734 3.036291 3.035960 3.035838 3.036370 3.036085 3.035879 3.035775 3.035514 3.035208 3.034701 3.034420 3.034216 3.034450 3.034245 3.034137 3.033567 3.033398 3.033530 3.033738 3.034053 3.033614 3.034399 3.034388 3.034822 3.034478 3.034474 3.034198 3.034509 3.034150 3.034232 3.034394 3.034124 3.033710 3.033615 3.033353 3.033364 3.033544 3.033604 3.033268 3.033175 3.033162 3.033075 3.032981 3.032510 3.032229 3.031977 3.031945 3.031646 3.031530 3.031280 3.031721 3.031971 3.031610 3.031168 3.031287 3.030778 3.030659 3.030611 3.030273 3.030138 3.030352 3.029942 3.030732 3.030623 3.031277 3.030846 3.031022 3.030599 3.029949 3.029285 3.029053 3.028866 3.028988 3.029072 3.029493 3.029559 3.029210 3.029421 3.029423 3.029471 3.029872 3.029482 3.028940 3.028864 3.028630 3.028024 3.027518 3.027948 3.028252 3.028583 3.028295 3.028213 3.028210 3.028236 3.028033 3.027840 3.027654 3.027235 3.027227 3.026939 3.026764 3.026539 3.026271 3.026678 3.026347 3.026857 3.026573 3.026701 3.026767 3.026962 3.026631 3.026279 3.026041 3.026082 3.026258 3.026627 3.026630 3.026844 3.026604 3.026646 3.026780 3.026680 3.026824 3.026673 3.027295 3.027940 3.027673 3.027332 3.027410 3.027258 3.027103 3.027500 3.027349 3.027306 3.028240 3.028786 3.029072 3.029280 3.029439 3.029425 3.029157 3.028819 3.028438 3.027975 3.028748 3.028505 3.028398 3.028013 3.027844 3.027587 3.027675 3.027387 3.027965 3.027675 3.027974 3.028000 3.028177 3.027726 3.027710 3.027420 3.027111 3.027245 3.027265 3.027122 3.027656 3.027323 3.027066 3.027214 3.027195 3.027139 3.028053 3.027989 3.027473 3.027551 3.027369 3.027633 3.027586 3.027218 3.027674 3.027147 3.026631 3.026174 3.027030 3.026939 3.026621 3.026866 3.027641 3.027415 3.027232 3.026856 3.026696 3.026385 3.027289 3.027448 3.027063 3.027165 3.027121 3.027561 3.027449 3.027529 3.027476 3.026979 3.026818 3.026437 3.025999 3.026561 3.027008 3.027409 3.027834 3.027561 3.028403 3.028295 3.029306 3.029266 3.028720 3.028127 3.027950 3.027824 3.027774 3.027303 3.027077 3.027310 3.026851 3.026578 3.026443 3.026528 3.026127 3.025924 3.026110 3.025884 3.025491 3.025441 3.025024 3.024941 3.024963 3.024839 3.024934 3.024437 3.024155 3.023932 3.023931 3.023700 3.023285 3.023248 3.023428 3.023229 3.022697 3.022749 3.022302 3.022410 3.022338 3.022019 3.022238 3.021736 3.021822 3.022139 3.022035 3.021910 3.021938 3.022471 3.021896 3.021882 3.021891 3.022989 3.023416 3.023463 3.023334 3.023193 3.022679 3.023451 3.023784 3.023288 3.023346 3.022979 3.023050 3.022840 3.023450 3.023333 3.024135 3.024022 3.024587 3.024763 3.024496 3.024311 3.024105 3.024469 3.024120 3.025188 3.024959 3.024858 3.024554 3.024083 3.023720 3.023740 3.023384 3.023031 3.022937 3.022772 3.022913 3.023319 3.023558 3.023415 3.023263 3.022980 3.022498 3.022147 3.022386 3.022345 3.022342 3.021729 3.021362 3.021789 3.021872 3.021968 3.021796 3.021739 3.021785 3.021558 3.021908 3.022328 3.022238 3.022825 3.022411 3.021906 3.021746 3.021782 3.022394 3.021847 
