10.503949 10.436094 10.369578 10.304394 10.240535 10.177993 16.099552 13.889610 12.743871 16.346091 15.225304 15.856392 16.709106 16.189652 13.761152 13.857933 12.846416 15.522650 14.015934 14.982281 13.037259 11.907852 13.382233 13.030833 6.419457 1.353023 -0.613645 -3.315451 -9.390364 -10.526135 -6.659813 -6.469512 -4.449507 -3.052497 -1.488677 -0.783346 1.177392 3.614087 7.337959 5.754907 5.714828 4.313879 5.475570 6.899060 9.006415 9.464175 6.832781 9.345783 8.371464 10.271396 6.411531 9.791225 8.600828 8.271590 10.923065 14.267023 14.626587 9.405580 8.113689 10.727635 6.469310 -1.490924 -5.781479 -5.208581 -4.349208 -9.670860 -11.698201 -7.352278 -2.791704 -1.088705 2.988817 1.725320 7.550946 9.925679 11.993988 14.784139 15.368998 17.296980 17.834947 14.787130 13.888039 15.309668 16.274203 13.478818 12.590346 12.898490 14.932114 11.963594 10.031592 14.043917 16.522160 13.721527 14.312675 16.671746 12.786149 8.683845 12.175653 12.300554 13.049118 9.296938 8.139507 7.952713 10.052568 10.403817 10.836445 10.567469 13.388384 13.356954 13.808889 12.391418 13.507527 16.217663 13.667001 13.965897 13.370896 11.700005 14.019294 13.337417 10.453585 12.056123 12.603780 13.057464 11.536805 10.146105 9.913935 12.172352 8.875649 6.689702 6.611432 8.916736 8.058189 10.455731 11.548788 10.427805 12.378356 9.130931 9.367023 7.288524 9.075585 11.028480 13.364784 14.106230 14.348662 18.685584 16.616048 17.893169 15.862405 15.120149 15.559933 18.159510 17.277748 16.063761 14.975440 17.537115 17.093020 17.996210 17.859611 17.937563 19.043873 16.740666 16.525288 17.234981 18.757678 19.324757 15.710613 15.918978 13.649101 13.202464 13.528318 16.384671 15.414267 14.354464 16.160466 17.547123 15.293128 14.390383 11.824508 15.059561 13.884026 11.898617 10.939851 12.530231 14.720635 15.970140 13.144655 13.553254 11.555290 12.143190 16.801031 12.820058 14.026797 12.167203 15.516017 13.383696 9.548920 14.591665 15.661273 16.893837 14.016093 12.350466 13.871544 16.914730 18.483276 15.992818 14.921973 14.122982 13.725469 13.904280 12.906826 14.263826 13.200479 12.654614 11.497622 13.656656 14.069046 18.362645 14.518594 14.977737 13.979405 17.177065 16.038219 14.542766 15.358477 16.824953 19.547469 20.449657 19.372231 19.795128 23.109632 24.106278 22.220187 19.307427 17.464186 21.141769 21.898595 18.108055 18.588076 18.022300 22.410856 21.315066 22.406143 21.614231 21.262799 21.295144 19.132586 19.888021 20.165341 21.329286 23.553645 21.216223 20.926488 17.277091 21.882765 22.527095 19.465956 18.571539 17.881268 19.840364 20.831661 22.318229 21.448544 18.197554 19.508100 17.759648 19.089559 23.093413 21.942688 20.122987 21.903065 19.413519 20.013633 19.037541 18.093828 16.329040 17.933195 17.613220 15.881312 17.607957 17.261105 19.629643 17.827646 15.261300 16.679095 21.299906 19.254421 17.944547 19.772569 18.035120 18.068398 18.701677 22.485654 21.372016 19.394965 19.912203 19.658276 21.014517 15.822747 19.416317 15.547831 18.467085 16.411452 15.193467 17.557462 19.558703 18.271512 19.362314 21.820159 22.439354 21.187616 17.871713 17.538018 19.096866 19.711084 20.495375 19.119403 20.638228 19.858403 20.126679 18.416752 17.405311 17.044708 17.601322 19.764389 20.723434 19.455028 20.635237 22.683424 21.928958 17.310870 18.567654 17.339099 17.828200 15.805133 17.668493 17.318063 18.403266 16.577159 15.432650 17.847333 17.305465 17.603023 15.715120 17.004265 17.848328 15.181793 15.432794 18.577875 17.848768 17.505910 16.653757 18.674049 21.362899 26.970035 28.422571 26.145660 23.522399 21.868202 22.808649 25.269492 24.515601 26.550428 26.404009 23.895539 22.314478 21.630639 25.040851 23.568132 22.367050 22.148345 23.428805 22.241788 20.914394 20.584302 21.447023 21.782493 21.680765 20.883925 19.623687 21.766460 18.483951 20.747328 19.576642 16.172021 16.801837 16.591150 17.568264 19.931328 20.784950 19.509972 19.498467 18.365463 15.791693 15.710605 17.799868 17.973726 17.428228 17.478096 17.144398 14.937900 17.148192 18.732697 16.472730 18.457125 18.512352 21.366765 18.786556 17.343464 17.997513 16.486433 15.401443 17.172968 15.077413 13.411591 14.374108 15.528668 16.628247 18.567085 17.468652 19.480676 17.163090 14.966204 13.659551 15.782670 18.812775 20.608688 21.743125 21.810715 20.392974 17.772100 15.385708 17.631823 16.936657 17.759669 16.476596 18.006851 18.181454 19.710975 20.699541 18.317512 16.151058 15.145028 15.787133 17.448927 18.950097 18.018242 16.649175 14.471353 13.446871 16.313038 15.848526 13.284427 13.725047 15.751703 16.728732 17.375882 20.790450 19.417536 16.383639 17.696081 18.172662 15.963011 14.919253 16.033169 15.908012 15.164658 12.178233 13.540633 13.515988 16.784164 13.880749 13.903691 13.671416 14.501707 13.820136 13.877705 15.332558 12.335197 11.427387 10.295273 11.690810 10.232566 10.865310 10.765453 9.738873 8.245014 9.253905 10.102735 8.255858 9.818415 10.255920 9.564733 6.044536 7.100543 10.025622 8.326023 5.900466 8.668105 10.159653 9.257023 10.136145 11.448666 11.321468 10.687490 6.128991 7.349386 10.021917 11.254504 9.412069 8.548456 6.385526 4.908387 5.730717 8.887952 7.638352 9.231520 9.059806 9.214326 7.225074 7.875385 11.354850 10.116434 9.071607 8.829907 11.206758 11.284562 10.745925 13.512239 10.807187 8.973194 8.988206 9.528548 11.131040 11.532507 15.827739 14.690020 14.753587 13.362582 11.914823 13.698412 11.670101 8.598037 8.560679 7.427601 9.246892 11.611990 9.518019 9.959312 8.787567 9.487922 9.376383 10.036363 10.620709 11.629187 9.687250 9.421136 10.475414 11.070251 11.911529 10.430576 11.759957 8.065097 10.390646 9.182105 10.937125 9.949601 6.618262 6.050468 8.509568 9.157215 7.599121 8.705758 10.137889 8.002901 9.020221 9.234676 10.255902 9.409694 7.248370 10.005671 10.681564 8.038416 7.047619 7.239494 9.389017 10.748110 6.870067 8.471872 9.975503 8.064991 5.229605 6.745096 10.240387 7.634323 7.454353 7.357620 9.506556 8.306650 9.156142 10.129761 10.573891 10.739104 12.632394 14.924258 14.986507 13.990210 11.911317 11.948947 13.729492 13.532846 13.937692 10.693985 11.057266 10.567280 10.074154 12.221992 15.263799 14.379192 16.148948 14.215904 11.464558 10.531583 11.176080 12.341615 12.191319 9.661039 11.270846 13.451665 13.559773 13.928485 11.696602 10.891909 9.395095 13.112022 11.469749 13.510863 15.998290 12.284217 12.542990 14.839481 16.706220 13.755902 11.988862 9.437633 7.834060 8.409368 11.369920 11.888976 12.663477 10.019187 7.990426 8.794907 11.019727 12.705399 9.406007 8.865655 7.483382 8.540078 11.390451 9.991244 9.989408 12.063070 11.156467 11.871996 10.361652 13.610548 13.426314 12.932876 11.055236 11.136799 12.404134 13.522796 14.008860 16.947403 17.169626 16.229197 15.762519 15.893196 15.898654 13.570191 14.187627 12.981250 12.158714 12.480922 13.755685 15.372347 14.091548 13.568611 16.330127 14.395814 16.399388 12.159320 12.753370 11.362565 10.419378 8.009925 10.899679 14.110308 15.205001 12.871483 12.945018 14.720684 17.122657 16.116855 14.419898 17.671436 18.043632 14.982260 16.537031 16.518748 16.288468 19.946277 19.885313 19.678922 20.146586 19.457330 17.943634 14.767235 16.187181 16.060379 16.365097 16.439892 18.611792 18.226855 17.639943 17.566961 19.539524 17.779234 19.968221 19.785671 19.664053 15.758841 15.539441 17.775183 16.668704 15.519078 15.034212 14.604017 14.927369 12.171019 15.273759 15.318912 17.824896 15.442731 17.015062 13.891216 14.494311 14.093226 13.622508 12.349962 14.229304 13.143777 12.886557 10.157569 13.453324 12.701828 9.806241 6.414510 6.891343 9.336762 7.930842 5.946987 6.175617 6.053788 9.238071 11.630876 10.246494 9.317110 7.544580 7.912946 7.587374 5.289912 3.978160 4.316787 3.875318 1.375867 2.631016 3.846370 7.916160 5.254266 6.508994 8.807668 8.392930 8.497533 7.544479 10.426971 8.932112 5.046352 6.739408 8.245971 12.352075 8.367793 9.118210 10.422734 10.272301 7.734760 6.964226 11.039758 10.208015 9.986732 8.315313 8.969966 8.298508 9.284175 9.072659 11.467888 9.348897 10.738408 13.688648 13.537887 14.790324 10.965327 8.490114 9.714034 10.554447 14.114471 13.716593 13.044856 10.238503 9.866788 10.763121 11.561369 10.765147 14.827796 14.029917 10.540614 12.223338 11.234864 9.349114 8.281418 11.241964 11.172644 10.227467 7.395421 7.220882 12.630113 11.694356 10.485237 9.043485 9.355874 10.230837 9.999821 10.940016 11.411795 11.820293 10.260247 10.305666 12.357419 12.488439 12.142239 12.010881 11.518488 12.941808 9.042092 10.401891 12.321505 11.569140 7.836472 7.714264 7.774429 8.054356 7.696641 8.627487 5.748366 3.916494 4.211252 7.218389 6.596233 3.889516 3.859461 7.189966 9.775366 6.758065 6.955374 6.147246 7.595649 8.758773 9.271047 8.773447 9.369282 9.287329 9.968428 8.391179 10.250606 6.916047 6.620952 7.613086 7.374103 10.501154 13.020121 12.118291 11.227264 10.388380 10.364808 9.748851 11.918487 11.494618 10.070414 11.291608 13.389809 11.622035 10.015882 9.701335 10.793683 10.920756 7.942676 10.158371 10.872815 11.069146 13.490437 12.504839 10.233422 7.804323 11.638876 13.714109 12.034629 12.891231 12.467583 11.527132 11.322488 11.454550 11.499714 8.362754 6.821812 8.134911 10.650844 9.737616 10.708951 9.166400 6.682452 5.120384 8.020304 11.438158 10.677739 12.947637 11.390950 13.487331 12.599917 12.001101 10.687255 9.846953 12.446322 13.562658 10.380531 10.291294 10.084000 10.932708 8.862815 6.746927 9.665369 8.586565 8.486474 9.194887 9.283406 8.254495 9.154836 9.301546 11.817499 9.393565 8.083864 8.576098 10.881137 9.135922 9.313859 14.670852 15.206732 12.005158 12.062941 13.384342 14.637719 13.419443 11.204987 13.112181 14.315808 14.735833 15.445964 15.318733 18.245144 17.887065 14.863253 15.890481 16.070908 17.805898 15.337781 16.020082 16.915134 15.432167 17.997233 17.726116 16.767047 17.678390 17.820390 15.157683 17.621264 16.035112 14.847175 16.502041 17.187020 16.445063 15.386222 16.533181 15.396647 15.117564 15.130217 15.304443 15.172980 14.116716 15.557242 14.537501 13.804515 14.278856 13.869503 14.394634 17.196209 17.222279 14.177694 13.429579 13.779215 17.380716 15.012693 14.429318 15.568035 16.620666 14.988463 14.512036 16.752131 17.944105 15.377037 14.821233 12.474154 15.668952 18.041226 15.407507 16.431226 14.960817 15.529571 12.368558 14.274721 15.704797 16.883149 15.615764 11.443545 12.421370 12.145493 14.357256 13.113133 13.478888 11.454990 13.965640 14.681973 11.856068 13.756840 16.259526 13.236097 12.395514 14.545077 13.580328 13.719647 13.886785 11.064362 9.871383 9.395521 11.320907 9.873054 10.653878 11.637454 11.335224 10.980835 12.646414 13.895956 13.235381 10.951849 11.900103 9.043877 9.723615 10.059574 12.151741 14.901305 14.481299 12.763507 11.880163 10.990464 12.898418 11.676924 10.846493 9.616875 12.007390 14.334923 16.886565 15.539029 14.940372 12.420458 11.046016 10.098958 12.902069 15.293764 12.547421 10.221201 10.602419 12.179956 10.353874 9.710139 8.096232 10.132724 8.389460 9.869795 10.872850 12.363242 12.217635 9.281119 10.832758 10.889417 11.572787 13.294135 15.454189 15.919818 13.153234 11.124743 11.250320 12.084109 11.972759 13.461611 11.011169 10.647182 10.666941 11.735753 11.921588 12.612253 11.591381 9.151531 7.939089 11.100131 11.819998 11.493849 10.499254 10.644104 10.872245 10.598616 10.406735 12.979064 11.812133 10.015302 10.078306 10.613777 12.441065 12.007641 11.059781 9.794280 10.230483 11.442261 10.798274 10.257615 11.994904 10.529161 11.203986 9.796721 13.800029 11.335198 12.263118 15.005782 16.774948 14.646810 14.901705 10.633938 9.755818 14.530064 20.934785 17.343096 16.521207 15.147719 13.129294 12.728173 8.543829 4.577251 3.784420 3.944759 -0.878895 -1.574095 -2.938523 -2.665831 -3.252605 -2.602024 -1.900241 -2.745848 -3.930864 -1.774139 -1.336137 -2.421101 0.442315 -1.079551 -0.271088 1.759889 1.559923 1.052160 -2.192774 -3.291703 -4.061188 -1.098424 -0.535103 -2.476104 -2.390596 -3.507714 -4.119792 -5.026634 -3.574792 -4.605257 -4.616022 -5.250092 -5.397336 -3.767526 -4.808753 -2.704487 -1.546180 -3.453866 -4.752842 -4.270353 -2.707945 -2.557881 -1.800353 -0.068830 -2.627037 -1.473991 -1.436005 -2.293445 -0.585941 -3.997859 -5.744926 -5.073195 -6.006607 -7.088062 -5.381966 -5.481570 -4.083705 -6.208841 -6.954619 -4.568749 -3.276804 -2.853094 -6.631671 -8.114560 -10.349690 -7.277481 -9.541626 -9.526041 -4.634959 -4.096881 -5.176104 -3.306174 1.738167 1.363418 -0.750346 3.392735 4.690876 1.846364 -2.994183 -0.067930 1.944888 1.840963 -2.293250 -2.040618 1.655971 1.403974 -1.320796 -2.712404 -0.642897 -0.633069 -4.139946 -0.537613 0.373593 -0.425512 -5.099654 -2.379693 -2.021744 -1.988688 2.283056 8.865191 8.975332 10.980920 5.027908 4.893337 3.738664 -0.850473 -4.067951 -5.053421 -5.603621 -5.009014 -3.815082 -2.763765 8.603139 13.369961 10.992315 4.910699 1.435696 1.164452 0.274674 -0.088816 0.469382 -2.459533 -2.038456 -0.526437 3.975729 1.332821 -0.537944 0.212896 3.821127 4.369147 2.897758 2.676627 -0.574926 -4.312233 -2.070198 -0.548076 -0.431385 -3.637409 -7.299475 -6.905955 -4.157832 -6.722843 -8.054734 -8.197692 -8.443656 -9.127997 -9.813247 -10.676307 -14.125140 -13.335186 -5.264370 -0.965923 0.449636 4.206118 5.067267 4.586803 7.395054 9.480743 8.363889 9.849231 8.832828 9.292535 9.105238 8.324470 10.576052 7.970727 6.619802 9.527301 5.180804 7.640379 9.902007 8.094554 1.696138 -1.685046 -3.913005 -6.137164 -8.208405 -8.351429 -8.212814 -8.313914 -6.372004 -4.225901 -3.086732 -4.451865 -9.552713 -5.695721 0.392434 -0.565785 -0.395814 -2.020582 -1.671300 0.504909 -1.308229 -1.531599 -3.672634 -5.182762 -6.130146 -5.995022 -2.177460 -1.324611 -1.003580 -2.417122 -5.392384 -4.214952 -3.751856 -4.729403 -4.001925 -4.040815 -4.650716 -0.817019 -2.005570 -2.023055 1.439042 0.417865 -1.494894 -2.027501 0.549853 0.678402 -1.045191 3.017461 2.175387 0.339553 2.777461 -0.506935 -2.773410 -3.611595 -5.915817 -8.643301 -9.806030 -7.843064 -10.740864 -12.930820 -12.666745 -6.592425 -2.767868 -3.249563 1.388359 4.052065 1.980272 0.046163 1.479109 -0.949146 -6.230527 -4.564508 -2.725051 -3.277803 -2.630744 -3.175316 -3.041835 -3.451024 -4.369833 -5.850031 -5.101149 -5.311973 -7.506464 -5.249356 -2.604880 0.553274 3.553878 5.601804 7.139653 3.361969 2.395695 1.202699 4.887802 5.488774 5.347396 4.754607 7.650156 5.953777 2.439442 4.293158 2.204054 5.068912 4.340731 4.391615 4.393289 0.800012 0.055459 -2.500737 -2.885163 -2.577901 1.094072 -1.282485 -3.926814 -2.949080 -0.889142 -0.348858 -1.835502 -4.769122 -3.310753 0.342618 -0.705499 -1.078035 0.092972 -0.268459 -1.964575 -4.041804 -1.931949 -1.848246 -5.977233 -1.910875 -3.442836 -6.443000 -9.644418 -10.516701 -12.596333 -14.047101 -15.410279 -14.272297 -20.107811 -18.986945 -15.016351 -16.573219 -17.483415 -17.717691 -11.076731 -3.546882 -3.712498 -0.144716 0.935987 5.029334 6.671557 9.043745 6.154277 3.343277 0.601601 1.881120 7.728393 7.533225 6.222122 5.954242 6.115041 0.437259 3.708952 5.303234 5.717386 5.100894 -3.621537 -0.358655 1.354974 2.921820 2.452817 1.619663 -4.764539 -3.474437 3.344308 1.204412 1.190904 -0.868373 0.604610 0.632633 0.065989 0.094263 -0.235338 1.739041 -2.731855 -7.234012 -3.934759 -4.364463 -7.440102 -8.035602 -6.108740 -5.880021 -8.669726 -6.141136 -6.892719 -8.727021 -8.210366 -6.436265 -6.426259 -7.197542 -8.038246 -3.608121 -5.872866 -1.224676 -1.127371 0.010429 1.416877 1.375434 0.850978 -2.852709 -5.331302 -3.032367 -4.649497 -3.421972 -2.795930 -2.805508 -1.989588 -5.301541 -7.701772 -8.304083 -8.465843 -6.219970 -8.157533 -8.111453 -6.862860 -4.998039 -4.224753 -4.202993 -1.919915 -2.369183 -0.972617 -2.910013 -2.048584 -4.261549 -5.670668 -7.284147 -5.531804 -4.452074 -5.302913 -8.416758 -9.802412 -8.283164 -6.871967 -10.296280 -11.499387 -8.657450 -11.387577 -13.775727 -17.783885 -18.264983 -17.960237 -17.466748 -14.425814 -11.911596 -10.232566 -6.553731 -8.711903 -7.180511 -8.983993 -6.186871 -6.715300 -7.423894 -6.559642 -8.732086 -3.354735 -3.343329 -1.608825 -6.316414 -6.635354 -5.206185 -12.327325 -14.972507 -14.388740 -16.007376 -19.111490 -19.155953 -17.029901 -19.109870 -19.018305 -19.201794 -18.130541 -20.699890 -20.375177 -16.962174 -17.950569 -17.101725 -15.535995 -13.940671 -9.817157 -11.323088 -7.309091 -7.658143 -5.856724 -7.670672 -13.303932 -11.414745 -12.142204 -9.991655 -14.200613 -14.260954 -12.531454 -10.839805 -5.595404 -2.035548 0.408130 5.382172 7.933367 14.080190 16.337120 19.611512 23.480059 26.750868 26.963270 27.714232 29.715389 30.953753 30.357193 29.076227 31.597033 31.305330 29.880751 26.276569 26.611184 27.065950 24.912341 24.345900 24.337139 26.526142 28.219889 26.299684 25.330705 26.909546 24.387643 26.837100 29.033798 27.722376 25.442688 26.255062 26.588030 27.572675 29.394980 29.543814 28.304012 24.579796 25.449924 24.768224 24.535140 24.790958 21.349284 14.939255 7.568537 4.905890 4.095213 0.891394 -2.260359 -1.620950 -4.110423 -2.126779 -0.980754 1.811478 2.227992 -0.228946 -0.915980 -0.246572 -0.699469 -0.705951 -1.647632 -1.823025 -0.114394 -1.892091 -0.263161 -0.240177 1.804332 2.720784 0.406035 -1.523556 0.226085 0.634699 1.040355 -0.835144 -1.354918 -0.474542 0.753398 -1.447673 -3.908782 -2.990041 -2.172889 -4.971445 -5.168996 -5.527311 -5.607862 -5.271707 -7.736791 -7.112164 -4.088509 -5.886134 -7.466035 -6.354494 -5.802184 -5.223157 -4.471812 -4.388553 -3.525764 -6.765988 -8.392831 -8.321646 -6.423782 -5.756882 -5.856488 -3.624155 -2.050839 0.558204 -0.004587 1.611276 0.010176 -0.035379 -0.935174 -0.611765 -0.440106 -3.371363 -3.925679 -3.157477 -5.317900 -9.832870 -15.013734 -16.333376 -13.583927 -13.583425 -11.385514 -9.893591 -8.394591 -8.482349 -10.418937 -8.441077 -8.358649 -7.686562 -8.497229 -11.398569 -10.927917 -9.745005 -8.212837 -8.869468 -8.238695 -7.306237 -5.001536 -2.949075 -2.850173 -5.476577 -4.023709 -2.747116 -1.501690 -5.014863 -7.696629 -6.693078 -8.893400 -7.031945 -9.005200 -6.111537 -7.243298 -9.788284 -10.963322 -9.683834 -6.039810 -6.721897 -9.915653 -7.561390 -4.603520 -5.227285 -7.391722 -8.926143 -8.155160 -10.034385 -7.831262 -11.957195 -10.715972 -8.869558 -10.461191 -9.978389 -9.774107 -7.910411 -12.146252 -9.162906 -7.680193 -7.218474 -7.541254 -8.289646 -8.924610 -10.762951 -8.892095 -10.618220 -7.384039 -5.491904 -5.204280 -5.215994 -7.750220 -6.765864 -7.520401 -6.255899 -4.863948 -4.114742 -6.248151 -8.391256 -9.078602 -11.310586 -13.018221 -16.900859 -17.931118 -19.386946 -17.597802 -17.622540 -15.119442 -15.287773 -14.428515 -14.623194 -12.905928 -12.765612 -4.849117 -1.097814 -3.997422 -3.820478 -0.692850 6.123365 5.576242 5.870968 6.069719 8.544190 6.083370 6.790200 3.985865 -0.382798 -0.201498 1.946181 -0.569205 -0.322851 -2.126549 -5.320433 -6.732923 -1.871333 -0.754593 -3.179292 -2.476355 -3.584280 -6.124697 -8.342975 -8.202265 -8.153282 -9.719047 -10.468193 -10.525116 -6.836591 -5.870240 -5.651739 -4.526328 -2.478492 -1.273118 -3.853619 -3.308155 -3.542943 -1.066287 -1.917267 1.128343 3.211568 2.454927 1.966114 0.987170 0.871110 -0.673775 -0.750310 -4.324407 -10.134056 -8.673737 -10.192092 -15.318068 -18.037863 -17.615451 -16.171311 -20.221195 -18.796293 -17.186293 -19.131163 -17.183620 -13.888678 -14.368689 -15.591348 -12.157568 -9.399487 -10.553158 -9.817995 -12.152123 -15.188928 -11.833356 -11.416119 -8.082829 -8.641192 -5.466904 -8.780980 -5.559139 -10.497038 -9.185071 -12.027034 -13.741242 -13.705200 -12.198753 -11.773520 -9.645901 -8.815309 -9.134369 -8.494816 -12.483194 -13.761598 -14.636634 -14.955518 -18.353306 -19.640703 -23.294395 -22.754731 -25.295160 -22.370416 -25.250896 -24.402814 -24.393443 -23.426484 -23.813826 -20.818088 -20.350387 -21.461791 -21.994313 -20.028128 -17.891566 -20.137646 -15.930465 -12.059064 -10.873427 -10.860396 -9.401090 -6.886090 -9.780714 -14.406738 -14.745523 -16.289858 -16.886599 -20.525231 -21.275038 -23.176450 -23.541665 -22.835063 -24.410902 -23.488683 -26.545907 -22.570160 -26.691422 -22.070638 -19.217461 -10.387553 -3.800112 -8.724283 -9.830224 -12.336411 -12.096357 -10.781126 -12.408926 -16.692117 -12.804018 -6.805499 -5.794687 -5.519158 -6.244507 -5.569618 -6.703408 -8.492516 -11.274852 -12.983876 -9.185281 -5.320764 -5.490751 -2.191869 -1.199347 -6.740162 -1.352946 7.038326 5.947597 4.343715 4.812463 9.657718 11.005632 6.340039 4.216722 0.895313 4.699432 8.009559 10.175001 12.166938 13.788648 16.382603 13.876852 16.907496 17.955871 13.749358 13.596816 15.109948 16.362192 11.258013 14.884522 15.344527 15.870783 15.549708 14.139111 13.762632 13.920303 13.464884 10.057294 9.871912 9.400228 8.963978 7.324827 2.945992 -3.793562 -5.784153 -6.528494 -6.650206 -9.308553 -10.546802 -10.563447 -8.776592 -7.032028 -9.095438 -9.294113 -8.047590 -4.386557 1.675054 -0.650895 -1.942932 -5.655783 -9.717727 -7.996184 -6.575799 -6.006210 -9.151345 -0.118091 2.316600 6.212354 6.247328 7.299038 4.652754 0.638575 1.664107 0.179960 0.649634 -2.181812 -3.265332 0.917244 -2.203542 -1.722880 -1.454365 1.329725 1.457425 -1.738826 1.713169 2.079597 2.874123 2.751638 2.306094 3.216208 5.183840 7.404608 5.563078 3.552582 3.890068 6.164011 5.076313 8.461507 8.132557 6.198989 8.587172 8.690034 9.466624 7.279725 7.584345 4.371988 4.874810 1.764947 -0.223018 0.398551 -0.895985 -3.589916 -2.792229 -2.434544 -1.639175 -7.178802 -10.854339 -13.270017 -11.927795 -12.598357 -14.607531 -15.377599 -15.297897 -18.752889 -14.824288 -13.148595 -14.313812 -13.755596 -13.483189 -10.091690 -10.888754 -10.376939 -10.752264 -10.844802 -12.678284 -13.961537 -13.535846 -15.210697 -13.676319 -14.591527 -14.972943 -12.585465 -10.068292 -11.480202 -11.890660 -13.182680 -14.562215 -16.756822 -16.204021 -18.450906 -20.184359 -26.463016 -22.438739 -20.796169 -21.538610 -22.559303 -20.514532 -16.661955 -16.422800 -16.427577 -15.145453 -20.398040 -18.251683 -16.790844 -15.095947 -16.017729 -18.110851 -18.321735 -20.536438 -18.215744 -19.876579 -19.266378 -17.954620 -15.960754 -16.754351 -16.658119 -16.891089 -14.340443 -13.125704 -17.231898 -16.830362 -14.179406 -14.347496 -15.572538 -16.947760 -16.830685 -17.127630 -14.838370 -16.189945 -19.050259 -19.540668 -19.232870 -21.137000 -22.032553 -21.186859 -23.218034 -24.826620 -21.897035 -17.960863 -15.496532 -18.177093 -18.124601 -19.187689 -19.017162 -18.542988 -16.640515 -16.379270 -18.265109 -18.044879 -15.722499 -11.806956 -13.843047 -15.136925 -16.078593 -17.951580 -18.605423 -17.477581 -15.702167 -15.149596 -14.816453 -14.149065 -14.534251 -10.346637 -12.502213 -11.340054 -12.379086 -10.655109 -8.081621 -7.017820 -4.417722 -3.991103 -5.155387 -6.795319 -2.961341 -3.401193 -4.481945 -5.141074 -6.482505 -8.225080 -6.976767 -4.961161 -5.169433 -5.659115 -6.274704 -7.152173 -3.414684 -4.045165 -9.323930 -10.636328 -9.372098 -10.553942 -12.630137 -10.697521 -7.036112 -6.455720 -8.345619 -5.206718 -7.368864 -9.180417 -11.373141 -11.107787 -12.073003 -9.674709 -8.825395 -6.707543 -10.043146 -10.802539 -8.966011 -8.032546 -7.224863 -7.111139 -6.346931 -7.745326 -8.614099 -4.394782 -9.271900 -9.085058 -10.432641 -7.764350 -6.980238 -7.032329 -5.549414 -6.588394 -4.211726 -3.003107 -3.255401 -4.592222 -5.999794 -5.483270 -2.785578 -1.461517 -2.839933 -5.340185 -6.105653 -5.403693 -5.502169 -9.623885 -7.398245 -4.608355 -5.032989 -7.898889 -5.339068 -6.554684 -4.549855 -6.381900 -7.917543 -7.921373 -6.917427 -10.746853 -10.074158 -12.615952 -12.158023 -14.223251 -13.450746 -15.497231 -12.533392 -12.264884 -14.217329 -15.426407 -14.683621 -11.230380 -10.132294 -8.729610 -9.470840 -11.323023 -9.490286 -11.101817 -13.312067 -13.985110 -11.917124 -9.925131 -9.489675 -8.070942 -6.855233 -6.982966 -6.301070 -5.785698 -8.195551 -13.446808 -9.826371 -8.138499 -7.152663 -7.334048 -9.178572 -8.766755 -7.066162 -4.125789 -2.172272 -2.141074 -0.728473 0.412875 0.168452 -3.882611 -4.337983 -6.864150 -7.683507 -5.852884 -9.152190 -7.590507 -5.691974 -4.031977 -5.658418 -8.411003 -7.248905 -9.430860 -11.141438 -10.513930 -10.626989 -10.951415 -11.443982 -10.249860 -12.318217 -13.813908 -11.682973 -9.349107 -12.193453 -14.210864 -12.627766 -13.164966 -11.671012 -11.006885 -12.869192 -11.469485 -9.441810 -8.086545 -10.846408 -8.590012 -9.243091 -10.068193 -10.020547 -8.636002 -10.555627 -7.752043 -5.542300 -7.084128 -11.245276 -11.198092 -9.475721 -11.234935 -12.002847 -11.020972 -11.781198 -10.905989 -8.531231 -8.698197 -10.188932 -12.683661 -10.745942 -11.630975 -12.720796 -14.303252 -14.775300 -10.384949 -14.538839 -14.509545 -13.253355 -10.919026 -9.493322 -6.446221 -2.940796 -3.956750 -4.584708 -8.017122 -5.230685 -3.067133 -2.311681 -5.015986 -7.925318 -5.937399 -7.708699 -5.778556 -11.248906 -10.421230 -9.609395 -7.341339 -6.586664 -8.264921 -6.624418 -8.351651 -6.638416 -2.321872 -4.315202 -6.836876 -10.669339 -7.225679 -4.860670 -9.946584 -11.246476 -11.879080 -10.698551 -9.414894 -8.836008 -11.757990 -10.886335 -11.506206 -11.089635 -14.213378 -11.324215 -8.321150 -11.638349 -10.288723 -11.470873 -11.677906 -13.673593 -12.757345 -10.103912 -12.827901 -15.339509 -16.340458 -15.409521 -15.483790 -13.396520 -9.181953 -12.159716 -11.382075 -14.802717 -11.788948 -10.709402 -9.595476 -13.533922 -18.439049 -15.707351 -12.354073 -11.324565 -12.605032 -13.291159 -10.115777 -11.277330 -12.452913 -12.254553 -9.825610 -7.746413 -8.033039 -9.696943 -10.287605 -8.521491 -11.348202 -11.715363 -9.875509 -9.320235 -8.711302 -8.436246 -6.683780 -5.009039 -5.115359 -4.219188 -8.122953 -8.441210 -8.459301 -10.328872 -9.257574 -4.041893 -2.442712 -1.485721 0.325104 0.527828 0.248299 -0.218538 0.821000 1.112714 1.021295 2.943582 4.186269 0.291942 2.422824 -1.146240 -3.377537 -2.472267 -1.420616 -0.207208 -2.138101 -3.274107 -2.766148 -3.420186 -2.266955 0.829660 -0.848481 -1.165299 -2.816932 -2.279349 -1.523519 -3.269996 -2.413462 -4.566353 -6.454319 -4.983729 -6.634736 -4.293934 -5.955008 -6.514550 -5.968192 -3.678852 -4.160176 -7.824804 -5.818907 -5.898276 -8.239053 -7.498363 -6.309738 -2.887016 -1.691137 -4.328191 -7.389575 -9.659109 -9.709411 -11.332372 -9.161230 -10.405767 -9.310837 -10.334146 -6.107729 -3.670774 -6.427453 -7.106869 -5.928268 -3.914076 -5.631743 -8.570287 -5.985205 -10.533285 -5.597141 -4.574687 -3.852717 -4.924880 -4.106940 -3.658183 -7.984517 -10.378031 -10.470894 -9.530930 -9.722965 -9.110953 -8.270498 -5.868315 -6.350163 -8.533493 -8.745569 -8.513655 -9.483380 -6.997973 -5.265278 -5.198806 -5.467284 -8.682533 -9.345610 -9.949686 -10.344441 -10.129877 -11.870314 -11.634850 -9.668895 -7.535296 -11.204423 -11.695457 -12.956000 -14.515557 -13.412865 -13.635030 -11.872863 -13.061584 -14.252987 -12.943597 -14.853943 -16.177962 -15.375871 -12.657046 -15.062328 -16.064360 -14.054849 -13.451396 -12.990238 -14.740589 -13.331054 -12.533119 -14.092333 -15.165669 -11.960544 -11.606774 -13.950612 -15.338670 -15.257511 -13.453393 -14.948523 -15.869911 -14.312022 -16.730647 -15.737462 -14.298456 -13.159340 -13.068338 -13.919715 -13.775056 -13.858232 -14.886864 -12.907918 -11.743458 -12.979391 -14.789463 -15.351901 -12.632283 -13.387564 -12.456654 -13.505988 -13.729563 -16.593448 -12.902037 -12.347707 -13.574600 -12.666989 -10.481312 -10.849696 -11.052507 -8.841380 -9.080608 -9.782196 -11.945835 -11.757021 -10.864965 -12.460098 -12.645539 -11.684526 -8.986041 -9.623877 -12.008973 -12.014556 -11.612737 -12.569215 -14.577529 -12.728597 -15.837896 -16.241316 -11.833576 -12.487741 -11.861301 -11.557561 -11.125433 -12.278645 -14.159245 -11.068368 -15.812574 -17.184134 -16.729005 -14.084287 -11.481113 -10.560203 -11.130692 -12.270248 -11.611972 -9.397990 -11.311981 -11.892356 -10.870819 -10.785166 -11.209422 -8.877841 -7.947490 -9.596093 -10.667589 -7.926554 -7.187341 -5.742926 -7.594297 -10.011798 -8.514291 -7.501769 -6.387817 -7.280703 -6.382693 -8.194370 -7.626732 -8.090859 -5.735163 -6.396312 -3.322093 -6.641954 -10.446728 -10.527328 -7.452120 -7.997810 -10.369289 -10.033761 -9.065204 -8.867389 -9.273999 -9.242720 -12.701854 -13.896155 -13.413858 -13.129897 -12.681312 -12.497715 -14.629481 -13.228112 -10.370299 -10.631221 -6.958763 -8.994742 -10.717065 -10.106964 -11.917646 -9.724689 -14.517894 -15.035458 -17.910272 -13.984421 -15.475617 -14.374351 -12.423055 -15.461620 -15.530386 -14.669893 -12.677677 -13.421297 -13.088699 -13.064220 -10.401110 -11.686802 -12.628604 -10.305568 -5.931362 -5.575847 -6.951848 -8.796653 -10.125234 -8.430461 -7.826859 -9.592517 -8.097065 -5.642611 -8.673107 -8.397538 -6.683523 -6.251880 -8.824644 -8.378699 -8.126837 -6.639629 -11.553369 -8.848448 -7.644056 -3.603989 -2.820294 -4.992044 -7.381991 -9.502565 -4.972967 -5.743108 -7.805386 -7.047895 -9.149741 -10.530062 -9.197430 -12.352355 -8.438145 -8.928438 -10.658383 -10.317151 -7.685472 -9.494895 -9.976595 -9.558078 -11.553331 -9.774568 -6.822006 -5.784954 -8.703867 -6.373496 -4.965277 -2.999032 0.214350 -2.076993 -6.057896 -4.611795 -3.778797 -5.149499 -5.049743 -3.140139 -4.543450 -6.023631 -5.469701 -8.384694 -7.082289 -9.885735 -7.711289 -4.910070 -3.240105 -3.375773 -8.026802 -6.231169 -5.077695 -3.114767 -6.358283 -6.192620 -4.287899 -6.061149 -5.831199 -6.497391 -10.887563 -7.617734 -7.089925 -5.161872 -4.002005 -1.755794 -3.634981 -8.011477 -8.056662 -5.985752 -5.435821 -6.866743 -10.845941 -10.643188 -8.493333 -9.436499 -9.824345 -11.573733 -7.387421 -10.582330 -12.924111 -8.535455 -9.023498 -10.100361 -10.381078 -7.327664 -7.663809 -7.870011 -6.468728 -5.384364 -8.712490 -9.912260 -9.043944 -6.781080 -7.075626 -9.277811 -7.261506 -7.515427 -5.276099 -6.183190 -6.509305 -9.250500 -5.377766 -1.940588 -6.131765 -8.958482 -5.021542 -1.945565 -2.730506 -4.556115 -3.438669 -1.565003 -2.037529 -3.486595 -3.196225 -3.573652 -6.737001 -3.366413 -5.516057 -6.241838 -4.210341 -4.108910 -7.070825 -8.463333 -6.303727 -3.470147 -3.656993 -4.678569 -2.834540 -4.118293 -2.502314 -5.347313 -6.862991 -6.782958 -6.608972 -5.762675 -8.467447 -7.794569 -10.756827 -8.015761 -8.301376 -9.647689 -7.787939 -7.232613 -8.559422 -9.090271 -7.796400 -5.166452 -6.119238 -7.607703 -6.180144 -9.538268 -10.065234 -6.825888 -8.219711 -8.006539 -13.229517 -14.354881 -13.294050 -9.342070 -9.323567 -8.179417 -8.366276 -8.066729 -6.222175 -9.840802 -10.258081 -8.633262 -9.108902 -8.320870 -10.618010 -11.239422 -11.763137 -12.037315 -8.696228 -7.992054 -9.409525 -8.424846 -8.972098 -10.251954 -12.471116 -8.881484 -3.983326 -6.431653 -8.154989 -7.243648 -5.005614 -5.674206 -3.971836 -5.046616 -5.699074 -4.292213 -4.083064 -5.172593 -7.105131 -6.695714 -8.213917 -7.717982 -9.200003 -9.098954 -8.151698 -7.579383 -5.516280 -6.306330 -5.649214 -7.014594 -6.781391 -2.173585 -4.215010 -4.009361 -5.484035 -4.607573 -2.692396 -3.884014 -1.728690 -4.140576 -6.128872 -6.402444 -7.212314 -5.221926 -5.524375 -9.960756 -7.990985 -8.020060 -5.497075 -6.772776 -8.097478 -6.514471 -6.566196 -6.655701 -5.376642 -3.310482 -4.913294 -2.578169 -6.082138 -5.420822 -8.810340 -6.082979 -3.669058 -3.740190 -4.669371 -8.582563 -4.590835 -5.220264 -5.323782 -3.038808 -4.651221 -4.655330 -4.984510 -2.640851 -4.480027 -6.933748 -6.837501 -4.665846 -1.944730 -2.796326 -2.198704 -3.136262 -5.249801 -3.977223 -1.382723 -1.886771 -0.114429 -1.194043 -1.394031 -1.783158 -1.823017 -1.897988 3.074973 3.534897 1.559376 5.963706 6.809309 5.893082 -0.004427 -0.497736 -2.101395 -3.005976 -5.632378 -1.640004 -0.686520 1.121690 -1.422925 -2.403476 0.225337 -0.366808 -4.778651 -4.901879 -4.758876 -3.126996 -3.052359 -1.836796 -4.389392 -1.484673 -1.127260 -0.362993 -1.240260 -0.499863 0.341499 -3.266139 -4.365400 -5.607850 -2.564330 -4.971001 -3.087307 -0.573269 1.950181 3.025227 -1.006310 0.048976 0.837753 -0.685055 -4.188269 -6.817248 -3.927925 -3.591241 -0.418772 1.367758 1.884828 4.962883 3.304154 4.224875 9.906422 11.668202 10.093969 10.807802 12.664961 14.361425 14.382583 11.961557 11.716933 10.837357 13.067798 13.922214 15.110750 14.121249 15.535767 17.619970 15.860324 15.409810 15.428475 14.033302 11.762497 14.105189 13.201049 12.946156 11.810991 11.807659 11.744747 10.447888 8.083567 3.033741 -0.535405 -0.587764 -2.578052 -4.387732 -8.167041 -9.726861 -9.579908 -7.904198 -6.308307 -4.784615 -6.313692 -9.693930 -11.317097 -6.558786 -8.696786 -7.388048 -8.055632 -7.558474 -7.581808 -5.108074 -7.802480 -7.334917 -6.577111 -8.562689 -4.873771 -2.635827 -2.008716 -2.450760 -0.174189 -0.078493 0.941602 -0.217143 -2.445731 -2.901938 -6.611371 -6.972240 -8.361076 -9.009428 -9.654135 -10.030456 -9.017449 -5.961195 -5.081418 -7.529008 -7.009293 -6.032072 -6.541992 -7.614193 -4.342872 -2.962899 -5.488314 -6.113654 -5.622835 -4.394918 -8.140529 -5.786977 -7.446253 -9.553171 -8.364028 -5.339884 -6.413713 -9.838824 -7.314478 -8.760904 -7.714616 -7.498767 -4.986348 -4.649810 -3.859892 -2.855297 -2.339826 -4.806595 -4.527266 -5.812726 -7.629699 -9.876762 -10.034074 -9.013709 -11.594029 -9.558040 -10.709578 -8.616932 -7.710295 -5.236544 -5.595651 -6.968602 -6.330576 -4.955188 -8.890284 -9.870841 -7.109107 -5.269734 -2.459623 -3.668347 -2.720131 -2.058356 -1.565783 -0.647959 -0.404201 -1.811428 -0.931761 -0.141645 2.971357 3.476078 2.816033 3.629782 3.502261 2.483269 0.582281 2.462102 1.846472 1.919042 -0.750616 -0.988312 -0.958539 -3.006962 -5.281009 -5.659489 -1.830258 -3.639621 -3.423954 -2.825818 -4.593725 -3.380530 -3.674722 -2.632560 -3.506929 -3.822397 -1.857566 -6.320158 -4.530105 -0.533186 -3.517002 -6.271090 -5.505396 -4.639723 -4.496967 -3.147011 -4.297226 -3.362308 -2.746255 -3.868421 -2.245716 -3.930564 -2.898099 -5.301968 -5.568717 -3.804258 -2.039572 -3.004202 -5.680029 -3.801380 -3.284918 -4.461347 -4.682060 -3.317599 -2.371520 -3.276741 -3.639029 -1.690559 -1.481523 -3.532225 -2.927934 -3.851539 -2.714229 -1.542337 -3.408559 -1.870692 -2.601277 -1.858509 -3.677927 -2.797982 -1.992940 -3.679275 -3.817226 -3.674929 -2.429323 -1.273486 -0.639006 -0.125087 -1.614109 -2.294428 -1.681641 -0.472945 -0.106991 -4.601536 -6.009301 -4.470066 -3.587762 -3.099945 -2.070207 -3.473797 -4.386755 -3.872234 -0.625533 -0.164970 -1.293860 0.276081 -0.081908 -0.508743 0.683938 -0.081826 0.142734 0.084971 -2.242479 1.624059 1.221164 1.737877 0.721849 -1.940649 -2.365782 -3.859244 -1.832130 -0.255839 -0.369975 -0.388654 -2.808769 -1.114083 0.615087 2.215712 -0.928174 -1.692322 -2.212192 -3.510553 -5.702454 -4.326756 -0.439050 0.427556 1.455692 -1.114253 0.685388 -0.079291 0.039934 0.702721 -1.546123 -0.888317 -0.556575 1.722729 -1.057462 -3.695831 -3.695989 -1.655998 -4.574185 -6.050804 -5.291112 -5.335754 -5.085670 -5.139701 -7.374863 -7.063947 -7.581065 -6.916916 -4.287464 -6.309605 -4.762505 -7.359403 -5.743806 -3.257115 -5.640535 -8.135754 -10.314625 -8.824386 -6.775325 -7.123969 -9.119859 -7.225089 -8.205706 -9.169053 -9.165378 -6.891996 -10.215636 -6.409878 -5.267415 -6.490345 -6.044734 -4.193122 -2.669167 -2.005430 -6.693097 -6.341395 -4.954138 -4.189726 -3.713114 -2.527658 -3.772812 -5.709932 -2.973931 -1.965749 -4.788417 -4.986897 -5.897007 -4.531797 -2.641739 -4.133971 -2.351345 -0.249131 -2.242611 -0.393546 -1.693562 -1.177294 -0.596353 1.789198 2.353150 1.234090 1.084144 2.219605 0.970056 -0.184665 -1.581586 -0.307992 0.291136 -1.475093 -3.381122 -2.312624 -0.481938 -0.896307 2.138651 1.642184 -2.200729 -3.654013 -2.853897 -1.586653 1.617097 2.695708 2.658369 0.007331 -0.954191 -2.213083 0.169339 0.362855 2.856866 1.728504 4.060024 5.713771 4.668766 3.842687 1.666354 0.864871 3.607292 6.030819 4.346506 4.926410 4.362744 2.460469 2.547635 0.992840 1.001912 0.561036 0.621817 -0.248753 1.804044 2.389335 1.531629 2.724831 0.234916 -1.216692 -0.463734 -1.450838 2.018302 1.933433 0.401147 -0.603403 0.276344 -1.716514 1.655484 -2.441160 -1.233846 -3.216046 -2.143681 -0.836402 0.367131 3.214070 0.896729 1.718849 1.526077 2.480959 1.635314 0.077608 2.281495 -0.072441 -1.610306 1.970141 1.847072 1.137847 1.267644 -1.175741 -3.710804 -1.911620 -0.307540 -1.925983 -1.556801 -1.252583 -1.791023 3.611001 1.566342 1.872849 1.056529 3.338434 0.710915 0.196280 -0.239456 4.890384 3.928632 2.849993 2.720540 5.077467 5.386169 2.856003 1.792905 3.397906 5.221855 2.018461 0.951540 2.840474 4.156470 2.280494 2.801599 2.109777 6.116516 7.173946 5.822837 5.034330 2.392054 4.807055 3.823311 5.737679 3.983228 5.888187 4.631913 5.486425 5.159961 7.570836 7.211718 6.656689 3.949760 3.490780 1.598966 -0.776710 -0.427391 -2.834823 -1.569937 -1.888577 -0.014164 -2.741558 0.153943 2.354052 2.388315 1.974867 3.900754 4.732588 2.675419 0.574031 -0.122982 2.257872 -3.164940 -3.918108 0.731368 2.928643 -0.601489 -0.166226 0.023511 2.541818 2.136689 2.036850 0.430694 0.452009 -0.103343 -0.777223 -0.382521 2.612936 3.471406 0.889885 -2.173673 -4.176932 -2.508174 -1.251913 -0.126084 -3.169248 -4.484928 -2.819064 -4.591226 -2.717351 -0.851329 -2.975871 -6.465251 -5.320238 -3.848691 -5.833789 -4.882573 -3.527451 -4.403764 -7.328816 -6.775173 -4.150371 -2.381320 -3.712003 -6.046834 -3.127715 -4.834689 -2.863412 -0.170490 -0.903928 -0.812076 -1.521508 -2.927411 -1.660474 -2.765771 -3.383669 -3.163140 -1.697333 -3.564968 -5.107521 -5.491896 -4.568129 -0.864635 0.975966 0.214059 -1.078086 -2.011221 -1.438917 -1.651227 -5.657080 -4.371889 -3.166482 -3.427211 -3.377531 -5.638973 -2.826835 -3.316352 -2.826278 -1.834812 -0.089594 0.128527 0.738776 -1.201745 2.227997 1.519501 -1.895538 0.498452 3.491459 2.336281 0.500480 1.332031 -0.190230 0.755177 0.363052 3.103701 0.740544 2.955020 3.842258 4.224680 5.037951 3.789025 5.222254 5.753407 4.374860 3.315033 3.822639 6.235315 8.006155 5.159071 7.323235 8.239792 6.882498 7.216344 6.916205 7.952091 5.185522 1.983743 2.264740 0.717504 2.156391 -1.923570 -0.411104 -2.844793 -1.625949 -1.963837 -1.381113 -2.732630 -1.927085 -3.681210 -5.002931 -4.824659 -4.593732 -8.272332 -8.947934 -9.552337 -9.933210 -10.751420 -7.523137 -8.944561 -6.683230 -5.983685 -8.881121 -7.300706 -3.409054 -2.758856 -1.820347 -4.372550 -5.009339 -2.923096 -1.756278 1.156784 -1.202374 -6.532450 -9.251559 -9.377030 -8.846520 -7.027380 -7.734850 -10.493892 -12.733887 -13.430595 -11.218434 -11.593444 -13.013037 -10.884090 -11.783632 -11.593526 -11.787944 -11.468716 -11.477277 -11.763666 -10.705157 -11.091243 -12.288629 -7.508748 -11.756743 -10.179485 -8.188340 -5.491677 -2.989246 -7.302963 -6.141108 -7.169872 -6.736896 -6.292926 -7.928365 -8.529521 -8.983585 -7.032687 -6.209607 -10.562730 -9.311420 -6.155145 -6.224305 -7.320090 -8.437081 -7.222164 -7.886205 -7.683200 -9.256390 -7.410132 -6.205349 -6.580270 -8.774050 -7.940221 -7.868051 -10.132380 -7.198000 -8.672252 -10.586737 -8.384845 -8.993422 -6.108947 -8.688317 -7.725066 -7.988169 -10.870429 -11.668278 -9.468810 -9.677759 -12.456217 -12.979313 -9.663094 -7.996365 -9.696247 -10.502941 -10.190748 -10.822389 -13.530766 -10.598141 -9.457726 -11.946147 -10.107407 -8.145575 -10.560990 -8.423235 -6.422150 -5.076428 -6.199986 -7.270416 -7.215484 -5.754813 -9.539459 -8.435848 -9.248862 -7.741221 -10.996307 -10.155056 -8.152407 -7.333765 -9.051621 -11.840511 -14.479286 -12.456648 -9.674215 -6.869923 -8.351529 -7.860050 -8.580695 -7.223137 -8.620431 -11.526407 -10.338219 -6.698108 -9.268716 -8.850460 -9.637890 -8.584126 -8.691474 -6.198102 -6.241655 -7.616156 -6.286540 -6.014238 -6.095536 -7.514650 -7.008469 -7.491585 -8.952143 -9.777660 -10.079928 -12.930350 -9.424971 -8.962830 -7.147214 -7.365322 -6.941487 -9.066097 -10.654935 -13.017065 -11.846569 -9.532299 -8.509035 -7.183663 -7.056640 -7.359035 -7.661744 -10.508439 -10.402480 -9.507602 -8.123002 -8.629342 -9.786642 -7.187276 -6.513693 -7.385906 -9.044190 -4.960424 -5.130646 -6.901311 -5.182716 -6.987207 -6.460054 -5.779129 -6.635669 -6.612524 -8.499361 -5.413105 -5.725708 -6.201767 -4.637886 -1.572236 0.169836 1.431426 4.365943 3.631135 0.256743 -1.584675 -0.283395 -0.778319 -1.924884 -3.329289 -5.389111 -3.843945 3.267513 4.444350 2.485765 2.722030 2.479858 0.166658 -0.303671 2.611082 0.548860 3.189085 0.758061 0.677204 0.305750 2.108958 0.370731 -2.230516 -0.339581 -0.768571 0.312829 0.556913 4.836999 4.526401 3.075445 -2.760962 -5.642782 -7.082827 -5.738735 -8.233055 -9.146380 -7.159931 -8.343151 -6.710063 -5.893964 -4.980254 -7.601700 -6.323527 -4.969685 -5.516639 -4.464689 -3.539096 -2.699733 -2.655588 -1.508266 -0.658168 0.484488 0.224352 -2.562803 -4.960681 -3.372170 -3.330162 -4.018415 -3.674900 -1.932568 1.816706 0.849404 -0.595522 -0.192235 -1.299089 -2.327384 -3.356701 -6.261140 -6.247424 -5.329041 -1.998257 -1.489379 0.505989 -3.242958 -1.649823 -3.163054 -2.461194 -1.637216 -3.902100 -5.858867 -3.445317 -3.253740 -4.833398 -5.140755 -5.371444 -4.636081 -4.766601 -7.333462 -6.109031 -3.417368 -0.983567 -5.671873 -4.599840 -4.726319 -1.406713 -1.266400 -4.877654 -4.658816 -5.095269 -5.163608 -2.502768 -4.402023 -7.221542 -4.363087 -2.803553 -0.731717 -2.181988 -4.904291 -6.965534 -5.460225 -6.350247 -3.206269 -5.910799 -7.135396 -5.802870 -3.774296 -2.958754 -6.898580 -7.545345 -8.319271 -4.391989 -6.300350 -6.870582 -4.018396 -3.665831 -4.757191 -4.030223 -1.793677 -0.825865 -2.676763 -4.254467 -2.902550 -0.358988 -1.163701 -2.017333 -2.909835 -2.032052 -1.811379 -6.515407 -4.677746 -3.214755 0.233424 -1.325058 -1.105007 0.770709 -0.933177 -0.452152 -0.293873 -0.722066 -2.350524 -3.202340 -2.338738 -3.047589 -1.909028 -1.168518 -3.337141 -2.915082 -5.061605 -3.494216 -2.122385 -4.063406 -3.530493 -2.094078 -1.695804 -0.405444 -3.199712 0.073223 0.105008 -0.918036 -0.916666 -1.443963 0.344632 0.719005 1.082729 1.255323 -0.331880 -2.863881 -5.287021 -1.129514 -2.494016 -4.021084 -2.110064 -1.806685 -1.077108 -0.450175 0.648786 1.073634 2.842499 0.630427 0.070549 -0.128048 0.027975 1.463377 -0.659916 -0.697674 -1.561109 0.892423 -0.645403 -0.114880 -3.974148 -0.628621 -0.367047 -0.674333 -0.219227 -1.369684 1.103218 -2.520689 -2.654104 -2.675727 -0.725195 0.942608 -0.293533 0.356157 0.014490 -2.675842 -2.783363 0.002968 -0.148944 -1.900573 -4.431334 -4.114404 -6.774233 -7.042611 -5.343735 -2.505227 -2.982893 -6.100328 -3.565465 -4.384784 -3.602669 -5.505258 -6.105060 -8.058040 -6.706571 -4.765295 -5.878335 -4.010166 -7.016025 -4.833369 -6.484520 -7.397493 -5.405852 -4.207486 -7.012160 -7.408582 -9.391767 -8.630659 -10.621586 -10.879409 -8.139061 -5.757142 -3.564065 -3.475018 0.727113 3.390615 0.096254 -1.148065 1.539559 -0.167910 1.206596 -2.411792 -0.160401 -0.872208 -0.502720 -1.202517 -2.634628 -0.298395 -1.906127 0.704024 -1.525542 -2.568413 0.461817 -1.212962 0.229157 -2.043009 -6.152907 -4.214583 -2.066469 -1.823123 -5.508033 -4.161175 -4.203666 -3.115672 -2.061668 -0.311300 -1.932705 -1.283893 -0.318344 -1.641189 -1.085199 0.272222 0.447752 -0.911491 -1.495957 0.465303 -0.455466 0.401607 -2.571005 -2.225207 -2.871381 -3.324391 -3.797637 -0.583997 -4.680073 -6.647031 -5.511999 -2.463409 -3.367392 -1.060425 -2.265331 -4.713567 -4.491422 -1.225095 -1.357701 1.987825 3.629291 2.270204 2.061122 2.422874 2.039380 3.586524 3.721689 2.162040 1.946333 1.415517 -2.392113 -5.135775 -7.209123 -6.413074 -9.246697 -10.199812 -10.340723 -10.215463 -9.454429 -11.021040 -9.856023 -11.860534 -9.380413 -10.695373 -7.095697 -4.098971 -6.053056 -4.547381 -10.509656 -7.998269 -8.826570 -9.440677 -6.696421 -4.988581 -3.452181 -5.117348 -5.368513 -6.974246 -9.137840 -10.517448 -8.613468 -6.667971 -5.976082 -7.369555 -7.709979 -5.696176 -7.428080 -8.017332 -10.113319 -8.178670 -5.451214 -6.049720 -5.620477 -5.098318 -5.116612 -6.497214 -9.196744 -11.328262 -9.939377 -7.420189 -8.164420 -7.134204 -7.722003 -6.741207 -8.330613 -9.306858 -13.325275 -11.271997 -8.944800 -9.842275 -9.969598 -10.383336 -6.276799 -6.346255 -6.694540 -7.636366 -8.655230 -9.136337 -9.808499 -11.011142 -8.290765 -8.403253 -7.713168 -4.702419 -5.201062 -7.468535 -6.297128 -4.779357 -2.593904 -4.793191 -10.103102 -8.179722 -6.686329 -5.435795 -3.127872 -4.759439 -7.882868 -7.137665 -4.169286 -1.254065 -5.144123 -4.247959 -0.041907 4.185241 2.921218 1.046006 2.939534 0.709456 -1.266744 0.030782 0.476401 1.105223 0.175140 -1.425231 1.308995 -2.547723 1.301641 0.734110 -0.307574 -0.361950 0.864425 2.967751 2.236490 -0.606925 -1.933767 0.298143 0.582489 1.794763 -4.755134 -2.593862 -1.730513 -2.427744 -1.067113 -1.811191 -2.370178 -4.294130 -5.758362 -3.835466 -2.262525 -5.114323 -6.093094 -5.983515 -2.815098 -2.666084 -2.053163 -1.268111 -4.150262 -4.919872 -4.406263 -3.932264 -1.673299 -1.360462 -0.811435 -0.537616 -1.850111 5.501114 2.371976 2.796192 -0.484093 1.385596 2.270839 0.005554 -0.077402 0.811483 -2.643050 -1.683272 1.011607 1.005571 0.077662 -1.994225 -1.291355 -0.391317 -4.672969 -3.712644 -4.611715 -0.408883 0.466415 -0.034872 -1.745636 2.024227 2.886033 3.346230 1.609579 2.141558 2.750258 0.838243 -0.304234 2.696271 0.227278 -1.811631 -2.858795 0.967916 0.035112 -1.407316 -0.756380 0.213084 -1.273563 -0.896039 -1.029155 -1.139334 0.256016 -0.559243 3.498284 1.185897 0.822145 3.363631 4.331826 4.472788 1.237278 2.107287 2.734549 0.892759 -1.415436 1.072188 1.212570 -1.196412 1.699159 0.610272 0.646343 2.748149 2.930957 3.647583 1.759427 1.473796 0.315145 1.223972 1.796894 