-64.205246 -64.045944 -63.889091 -64.317136 -64.880587 -64.061740 -63.623190 -63.525128 -61.762333 -57.863660 -58.528874 -55.337807 -57.772409 -58.525582 -58.607055 -58.665553 -57.000162 -56.531709 -51.304420 -51.592966 -56.862321 -58.125766 -61.811011 -52.655242 -58.757366 -52.002034 -51.609656 -56.897243 -59.835491 -62.236712 -54.425514 -54.102565 -54.142597 -55.667701 -54.353400 -54.019499 -52.264995 -51.767147 -55.079415 -59.345183 -58.686363 -58.543728 -56.904566 -58.145551 -58.480003 -55.081644 -55.927345 -56.213306 -56.182646 -63.036974 -58.020480 -53.169238 -55.546559 -50.972061 -54.731744 -54.157700 -58.997345 -55.227842 -59.305669 -55.391019 -57.640425 -51.503845 -51.498252 -58.468614 -60.191564 -57.108493 -58.168700 -56.806469 -56.338068 -56.250782 -52.788004 -57.000168 -56.450313 -52.737248 -55.300921 -57.739947 -56.529504 -52.804629 -55.342222 -54.306730 -59.059156 -60.391378 -58.948936 -60.367111 -53.932034 -60.730240 -60.958366 -59.025814 -56.969256 -61.640539 -62.834225 -63.008510 -58.020164 -49.855009 -56.356913 -58.098762 -56.499652 -57.977925 -49.871022 -52.769315 -57.174737 -61.503469 -55.781575 -52.610261 -50.247042 -49.495587 -52.692402 -50.070874 -51.029870 -56.584392 -61.394923 -57.422079 -59.872367 -53.832233 -55.476313 -50.919053 -51.248010 -53.169642 -51.852568 -56.625950 -57.975506 -53.044574 -50.111344 -51.169215 -51.342450 -56.443860 -57.837730 -56.408975 -64.719453 -56.664175 -54.315670 -59.197445 -56.886454 -50.925938 -54.698825 -54.034412 -57.047571 -52.808184 -55.068257 -62.689622 -59.407937 -54.985752 -60.957001 -55.664028 -52.264115 -58.499611 -56.681977 -57.665566 -56.442522 -54.331747 -50.349484 -56.177985 -57.759920 -63.121161 -64.694156 -63.345866 -63.057080 -63.040353 -62.983481 -66.392786 -65.603269 -68.754182 -66.276355 -67.244016 -64.189133 -68.444067 -64.518045 -63.308940 -61.453886 -64.334261 -65.108605 -65.234684 -65.334036 -63.675415 -61.501249 -60.958943 -55.668158 -61.075039 -69.523380 -62.983089 -61.168260 -59.360576 -60.420838 -64.120279 -65.086214 -58.428432 -54.995384 -55.959785 -52.679946 -53.392493 -55.447656 -49.042532 -50.703282 -53.103096 -55.242579 -54.100173 -57.258937 -61.624964 -59.258600 -50.005677 -47.667591 -52.322774 -51.664220 -46.176660 -51.725417 -49.925173 -52.555533 -50.049826 -54.414198 -55.708410 -54.180274 -52.117867 -55.074903 -55.861138 -57.662385 -53.065764 -50.082029 -47.702887 -53.872148 -53.799641 -48.432208 -54.029560 -53.961367 -51.913107 -54.956778 -55.842418 -55.927198 -50.870845 -49.517305 -50.982687 -52.991103 -51.750646 -53.139811 -48.466447 -50.540893 -52.977441 -56.890871 -52.813052 -48.256316 -50.645226 -53.006501 -53.453655 -50.177511 -56.219337 -54.520287 -53.808747 -55.549575 -54.293083 -55.582968 -56.032986 -52.661315 -58.629100 -51.788361 -54.828316 -54.277388 -57.321641 -58.221730 -56.704554 -54.618386 -57.555678 -54.925963 -55.794439 -54.475931 -60.888223 -57.548674 -53.019441 -57.179786 -54.924711 -48.901422 -54.308779 -55.900323 -50.856334 -51.321365 -55.074258 -54.203125 -53.880316 -52.224521 -53.460607 -52.103756 -56.799578 -56.437576 -52.757912 -51.884549 -55.160705 -52.523714 -49.989002 -51.176932 -46.354643 -55.187782 -54.360021 -50.344183 -52.936548 -52.028435 -49.841228 -52.775346 -53.619942 -53.702201 -53.790312 -53.839298 -52.124525 -53.362791 -52.034541 -46.453160 -53.547193 -48.763167 -55.661677 -54.460151 -50.418429 -51.204547 -46.382219 -51.733386 -53.369696 -51.848486 -51.535136 -53.264181 -58.813840 -55.156264 -57.479179 -53.237446 -51.897257 -51.683873 -53.279207 -60.526809 -60.801022 -55.604907 -54.358315 -60.988828 -59.276503 -65.452467 -70.818708 -68.689812 -61.267142 -66.257430 -64.321590 -60.041136 -59.049449 -60.577070 -60.893325 -59.226821 -63.944524 -68.720104 -63.041111 -63.181708 -66.909739 -64.347101 -65.250443 -58.840401 -65.528130 -58.989494 -60.289378 -59.268964 -63.936127 -63.543672 -63.324127 -61.671155 -62.922448 -59.857956 -53.811381 -59.086408 -64.033346 -63.399774 -58.125701 -61.961068 -59.675643 -60.509362 -60.898102 -59.230096 -58.762748 -56.983612 -59.873154 -64.120159 -61.754085 -62.790620 -56.397531 -59.665351 -57.309154 -61.558314 -61.156511 -66.039990 -64.062766 -65.108045 -65.547557 -62.168214 -62.942354 -68.395151 -69.782970 -66.629075 -71.017589 -68.902536 -73.242785 -71.183339 -63.610436 -66.819406 -64.415008 -70.309571 -66.964077 -65.859743 -62.360387 -64.773892 -70.611846 -75.513685 -76.793937 -73.768580 -67.879217 -71.485012 -74.242967 -73.050645 -74.492417 -68.159459 -73.191554 -74.766733 -71.497247 -68.988163 -73.585405 -69.667856 -66.712928 -66.134862 -65.959219 -70.977021 -65.524987 -63.914683 -65.457943 -65.784555 -65.782487 -65.848748 -60.743778 -64.477731 -65.639629 -64.022203 -70.506413 -68.957914 -63.171907 -58.370035 -55.448117 -64.874445 -69.143304 -68.313730 -63.102597 -63.523681 -63.706520 -63.603619 -65.300065 -64.082305 -65.410164 -60.709941 -61.062504 -64.728283 -63.897954 -65.290770 -62.380717 -56.374744 -59.953015 -61.010959 -62.757326 -58.187158 -62.054001 -64.971936 -58.705875 -62.124948 -54.768155 -60.998740 -57.867095 -56.662634 -58.265811 -56.969482 -54.794640 -57.702229 -61.937525 -61.259597 -59.332273 -60.635429 -64.421986 -67.076239 -67.749113 -64.548574 -60.282265 -64.301794 -58.592035 -60.208197 -67.763660 -55.995259 -59.402092 -59.160489 -53.543889 -55.480235 -64.746835 -63.684074 -64.912303 -60.416447 -57.363164 -68.592126 -59.732347 -63.703841 -63.671654 -59.882180 -62.323170 -64.850619 -61.941752 -64.557699 -55.185455 -59.242635 -57.291951 -59.802316 -58.965443 -56.932628 -61.572225 -62.908338 -56.247837 -59.626293 -55.655812 -57.683499 -60.172146 -60.727312 -60.858731 -64.391517 -61.950266 -59.458157 -60.642644 -59.263363 -55.346499 -56.054606 -58.049502 -65.327698 -63.911784 -68.503389 -63.170875 -59.770807 -59.088200 -63.985764 -56.707699 -54.540673 -52.577481 -55.309012 -62.924418 -61.518926 -62.695013 -64.987992 -63.805070 -61.705525 -61.218960 -62.810182 -59.777583 -58.877187 -53.620653 -52.088138 -53.502737 -58.944806 -55.251739 -55.834785 -52.823276 -55.263498 -56.041208 -56.112491 -56.178437 -54.502616 -50.588996 -56.398851 -56.375663 -56.091503 -54.475435 -52.303659 -51.715793 -56.715497 -58.074365 -63.447048 -51.327545 -54.662385 -59.513469 -60.415535 -57.205316 -49.576139 -47.528986 -62.519808 -68.291336 -64.298786 -58.294879 -63.706128 -61.805183 -64.374714 -67.049138 -55.666546 -57.599252 -58.563096 -67.013842 -64.303631 -65.056881 -62.150723 -61.211536 -59.330429 -60.474739 -60.835986 -54.012295 -58.982265 -62.315404 -61.193605 -59.228317 -53.668731 -62.391955 -59.814396 -56.969257 -58.224953 -60.300119 -65.890237 -64.027117 -58.240800 -63.673944 -58.450361 -56.640849 -63.325029 -61.685182 -60.962999 -61.016902 -62.701165 -61.422537 -57.588281 -58.307385 -58.586690 -56.818000 -59.774891 -62.387465 -59.544428 -58.743849 -53.526950 -60.557071 -60.965483 -57.292383 -66.738006 -66.088854 -70.621449 -65.334028 -61.937846 -61.245759 -61.000271 -59.143667 -60.347767 -55.604946 -62.741928 -63.235064 -61.290448 -60.940294 -64.330783 -65.218759 -67.067806 -64.231835 -63.381917 -61.560327 -64.409791 -66.969441 -67.555345 -62.581552 -61.223021 -64.432293 -65.232319 -67.045015 -60.781027 -60.679050 -62.616833 -66.412857 -62.291297 -67.937870 -68.052666 -59.191342 -61.996149 -59.646094 -62.059522 -62.936622 -63.055182 -64.844502 -61.945374 -62.775739 -66.587309 -64.125136 -61.619750 -69.674917 -61.671759 -59.075107 -62.267247 -64.731884 -63.542582 -63.247852 -64.976432 -60.283470 -60.598160 -57.463286 -63.287508 -65.062167 -65.295710 -62.037598 -61.141753 -60.975785 -60.864321 -62.533479 -63.016374 -57.946982 -58.247399 -56.793135 -56.219578 -56.125470 -52.656260 -55.085964 -54.176592 -60.600052 -60.813559 -55.482340 -54.131190 -53.910092 -53.723226 -58.804328 -56.826672 -57.806624 -60.005101 -62.237834 -61.096840 -55.609158 -50.703946 -56.315054 -57.919153 -56.353726 -57.750015 -58.233147 -56.538703 -50.927957 -47.686747 -52.054965 -53.250559 -55.092230 -55.716082 -54.136778 -57.138294 -64.923334 -56.663723 -55.871722 -54.410579 -62.360301 -57.770258 -56.198129 -52.684275 -51.605527 -54.801300 -55.675380 -57.518023 -52.960475 -49.906253 -52.672427 -49.999406 -50.795757 -52.931998 -51.721636 -58.205997 -53.280710 -51.630386 -53.222507 -53.584608 -57.027697 -52.909144 -56.788713 -56.403632 -56.044037 -54.353488 -52.161057 -53.296455 -58.804535 -58.562969 -54.923508 -57.489489 -54.880333 -50.506368 -58.030587 -63.672684 -59.751644 -55.257439 -50.821589 -54.712829 -55.845006 -55.938291 -54.346914 -65.932853 -62.397523 -57.527238 -54.870623 -54.137868 -57.299456 -58.177435 -63.469316 -68.470046 -57.701452 -56.322483 -54.678494 -57.366506 -51.297516 -52.905681 -51.914365 -59.996722 -58.934402 -54.911313 -55.729012 -49.160752 -52.290682 -51.712496 -51.265121 -49.538111 -49.044828 -47.215394 -48.381793 -50.478101 -45.828807 -44.471249 -42.570525 -45.369932 -47.915231 -46.784961 -46.457915 -44.740938 -39.054017 -39.199586 -44.537161 -44.175608 -47.357022 -46.707188 -48.094689 -46.865033 -46.433968 -51.539183 -46.084885 -51.224912 -51.294472 -54.399011 -50.273861 -52.419967 -44.644583 -45.670988 -48.014221 -43.263838 -47.050650 -50.080923 -48.941489 -48.639359 -40.067004 -37.589976 -40.604360 -39.587623 -37.454701 -35.274743 -34.690077 -39.698160 -35.928362 -36.413382 -38.544572 -37.283176 -33.435647 -41.064952 -51.908009 -56.337503 -55.739341 -55.701482 -60.933661 -57.193687 -55.956856 -55.882335 -60.936547 -53.737605 -54.984195 -59.165507 -54.915004 -53.629693 -53.533211 -56.847421 -57.762825 -56.197804 -57.535187 -54.531908 -60.465789 -57.119424 -59.328306 -53.347698 -49.745526 -52.428025 -51.416529 -49.235435 -47.030041 -49.883122 -52.421310 -52.989717 -51.428699 -54.469338 -53.652514 -58.432039 -59.892426 -60.109516 -60.244053 -53.405411 -49.732335 -45.473945 -52.817130 -56.676050 -55.708622 -57.246691 -52.625859 -51.206549 -56.164038 -48.866794 -50.053527 -50.786845 -49.007136 -53.695186 -53.386438 -58.245782 -64.931799 -58.007969 -57.670322 -56.258931 -52.187532 -49.373244 -59.029507 -54.853794 -55.008213 -57.206533 -52.499462 -56.265159 -55.840866 -58.890451 -59.894973 -58.331305 -59.657116 -58.383602 -61.367875 -64.025306 -59.469482 -58.177105 -54.588913 -56.920793 -57.685729 -57.736257 -56.085197 -53.912200 -56.794689 -54.188934 -51.577892 -61.363422 -55.517164 -53.463738 -51.646748 -52.725371 -51.316567 -47.404802 -55.003169 -55.517857 -58.738678 -58.138544 -54.389045 -55.145508 -48.558757 -50.005328 -54.130243 -48.159337 -44.667140 -44.009238 -42.023916 -41.403045 -44.751625 -42.216304 -41.369767 -43.041868 -46.899263 -49.631893 -43.418841 -39.942788 -40.958374 -41.164153 -42.833989 -39.898619 -40.738446 -42.846036 -46.764617 -42.648434 -39.679521 -40.808194 -42.815630 -43.267062 -41.647514 -41.224506 -39.434946 -44.067142 -41.980360 -37.722293 -43.632605 -41.928052 -41.110074 -41.128339 -39.366979 -40.565581 -40.975499 -39.270832 -42.268037 -39.733014 -37.128919 -36.576598 -38.159549 -35.107957 -41.094855 -41.225112 -42.677294 -41.539906 -44.600181 -45.536679 -47.381333 -44.504119 -41.915360 -37.878438 -41.922781 -43.147679 -41.523840 -39.431950 -42.377085 -43.224179 -43.301981 -43.387106 -39.965172 -40.715694 -42.780567 -44.959628 -43.806626 -45.186937 -42.212422 -39.542165 -40.668352 -40.988087 -39.236931 -42.235556 -43.148934 -41.505510 -41.101599 -41.058174 -44.453212 -41.948636 -37.656064 -38.364087 -38.626635 -38.548695 -42.015077 -44.728036 -41.899059 -39.370353 -40.546320 -44.317940 -40.088572 -40.528032 -39.188630 -38.639544 -42.015747 -44.675739 -45.284000 -42.004263 -42.839545 -39.740612 -38.720265 -45.500581 -45.626681 -43.658200 -38.128690 -40.057468 -40.741434 -38.969694 -38.533999 -41.948350 -44.595489 -41.750849 -39.225756 -43.863298 -39.977733 -42.095536 -44.728066 -46.976524 -44.137709 -41.596243 -42.762590 -46.543943 -40.594100 -40.555309 -39.151419 -31.644865 -39.976510 -42.576668 -46.245094 -40.565444 -42.323462 -44.846690 -43.575234 -36.292106 -32.630018 -37.001751 -38.163698 -43.447930 -50.247851 -46.798409 -45.720205 -50.906511 -47.076179 -42.325802 -43.028070 -51.903933 -52.528513 -54.156554 -56.592637 -57.187557 -55.569680 -51.699054 -45.484852 -43.819201 -45.201887 -52.404697 -50.922806 -52.019125 -52.594349 -52.624861 -49.184593 -48.221870 -44.614204 -40.064040 -38.903242 -47.286575 -46.117421 -50.651820 -50.507909 -57.120964 -55.664744 -49.776145 -53.550783 -51.283679 -53.773893 -52.979254 -45.646415 -43.687781 -39.903068 -42.138687 -41.156134 -37.229292 -32.785499 -36.825227 -34.539630 -31.894155 -24.459119 -27.557667 -32.092055 -36.494742 -32.506766 -34.799147 -32.233676 -32.987048 -35.111246 -33.853354 -31.716871 -32.949098 -28.125963 -24.921314 -27.705324 -24.991680 -27.504295 -23.227946 -30.476441 -29.307144 -35.477522 -34.038179 -31.585437 -34.593664 -33.717815 -38.472588 -36.485699 -37.430621 -41.376969 -37.166790 -37.593224 -36.254359 -32.242599 -38.120675 -36.423438 -42.534245 -37.594153 -39.354453 -40.223732 -38.486104 -36.307732 -35.782167 -32.193490 -36.342098 -32.450994 -38.023704 -38.155980 -39.579748 -38.430295 -36.298875 -37.508530 -36.157598 -39.134328 -40.075510 -33.255906 -33.125942 -35.090400 -45.823703 -45.341236 -37.937628 -41.376738 -42.549051 -40.775631 -33.447716 -29.739007 -23.709898 -23.665216 -27.272884 -22.937817 -18.143733 -20.535020 -40.292904 -35.254780 -36.622016 -32.601809 -36.336740 -39.320439 -26.022439 -34.403433 -42.575263 -40.642622 -45.297202 -43.440067 -39.139191 -43.337760 -48.073427 -42.176695 -42.207989 -40.835188 -36.761414 -33.953241 -33.281712 -36.547957 -39.164701 -38.032561 -39.445518 -34.745380 -45.439580 -40.018836 -36.174353 -33.913801 -33.204801 -36.457922 -35.625717 -40.456541 -43.688741 -44.365908 -44.570687 -39.468157 -39.746235 -34.820252 -38.462233 -46.658891 -40.011033 -37.946437 -39.595641 -34.687311 -38.398559 -37.982560 -39.291281 -41.553827 -40.380355 -39.995086 -45.199072 -46.636079 -39.892003 -46.757927 -35.117536 -33.057199 -38.391419 -41.331665 -43.679639 -42.678203 -33.687077 -12.154390 -4.630098 -4.832303 -6.326300 -4.910272 -2.784444 -2.289760 -7.384302 -3.578097 -2.283833 -3.962243 -4.337343 -7.817802 -5.378572 -13.212386 -19.099356 -20.341738 -24.166047 -21.861716 -17.569699 -16.545328 -19.795604 -20.629967 -22.455101 -21.312512 -24.377090 -25.338039 -21.962320 -21.056673 -22.677298 -21.320570 -20.852340 -24.293802 -26.965619 -25.836744 -25.510665 -27.253579 -27.701141 -26.010737 -29.027861 -28.223329 -31.266901 -23.609258 -17.782006 -16.535367 -16.156294 -19.422418 -16.905083 -17.780186 -16.505181 -22.931744 -17.920891 -16.177311 -17.829415 -18.173717 -16.437319 -14.260282 -15.444981 -15.815235 -17.545157 -19.806366 -15.185881 -15.558460 -17.647473 -21.537208 -20.860998 -17.107525 -16.171933 -22.948330 -19.598456 -21.827828 -15.879760 -15.685498 -17.687688 -16.338304 -19.364775 -20.347285 -18.710292 -20.032951 -23.954137 -24.952125 -21.650280 -22.509920 -21.159712 -22.355080 -21.057702 -15.385415 -17.327456 -12.864942 -14.802638 -15.630483 -19.102651 -14.929415 -18.808425 -18.445423 -23.224790 -19.531267 -18.239269 -14.694332 -13.586978 -13.387220 -16.738906 -14.212927 -13.347064 -16.772507 -19.415200 -16.531426 -10.499597 -15.889143 -19.302448 -18.132727 -17.850133 -19.626390 -20.075641 -21.849095 -25.855630 -32.124406 -35.521475 -39.802335 -46.245359 -47.958134 -46.538386 -41.014606 -41.240539 -43.203257 -43.583820 -40.173549 -42.715026 -41.842303 -48.313123 -41.611622 -42.855127 -40.216422 -40.896766 -43.004322 -45.223944 -44.058596 -41.955707 -46.660247 -44.556538 -43.694298 -47.155576 -42.866634 -48.419079 -39.862770 -47.446259 -48.405719 -49.790936 -45.208226 -40.346073 -37.429309 -34.895946 -32.420551 -26.537486 -26.624781 -25.075276 -12.295512 -8.736357 5.706713 11.815064 7.812086 -7.023560 -12.698578 0.042548 0.046791 2.954349 9.467623 5.960285 3.081491 4.370619 8.226792 12.724631 15.693007 21.731000 18.289015 15.440170 14.998924 11.429910 15.632304 11.833512 10.521797 12.251833 14.439148 15.014546 23.873311 22.990530 24.135952 23.054800 22.635897 24.350813 23.090443 22.656672 24.378636 26.568034 25.361240 21.486147 25.677503 21.733396 16.808310 20.903765 23.841501 27.830322 23.772885 20.774490 23.665889 20.997601 20.054391 20.015479 19.956552 18.196310 19.446827 21.620521 18.667257 19.521839 14.747024 13.248835 16.545735 15.673652 11.795237 17.792051 19.632067 18.050428 15.992362 13.763810 16.628023 20.966961 13.346184 18.029261 18.087488 14.163681 16.700066 21.055802 16.853421 12.088278 11.029569 12.517318 18.075514 17.860270 15.873397 17.212545 19.376881 21.606308 20.459560 18.352724 19.587565 19.977708 18.232987 16.023883 17.206836 17.579378 22.784815 19.085274 21.278627 22.213351 23.978735 22.776880 20.634770 18.376030 16.035277 25.829515 30.412319 29.492807 29.338850 25.940331 31.863732 31.958180 31.625150 33.459533 30.493863 31.286796 31.700012 33.420579 32.194647 24.824327 26.298120 28.734855 29.148938 29.247590 32.807811 32.079544 28.236783 25.537736 23.153820 24.215956 22.825209 22.329396 25.775531 24.995846 21.135413 27.133117 22.016804 25.387648 26.789499 23.366738 24.199839 21.136931 20.104288 19.992675 19.904568 19.871080 12.916276 10.926988 12.406025 14.432259 16.665498 15.536855 13.431192 9.458304 10.099257 10.394914 6.859545 9.356987 6.755046 9.256682 13.662252 11.228051 5.214410 5.459841 5.682591 3.812036 5.047257 8.960908 3.001553 4.645127 8.965576 8.159287 7.820871 13.095217 16.287543 18.685420 19.389659 23.019086 24.067144 22.461873 22.059797 20.279348 21.460164 18.390153 22.617631 18.789059 15.659947 11.611290 15.657477 15.171414 11.265809 10.328560 8.450950 9.570419 9.966969 6.497365 7.278795 12.876597 10.842727 13.543484 14.574276 25.082978 21.168636 24.823094 29.839522 27.429556 23.179343 27.426938 23.491292 25.543147 28.203207 26.977249 26.602708 23.137919 20.367718 23.207072 24.028266 22.330723 27.141829 28.591636 20.028937 19.429950 23.127316 18.696032 15.570998 16.739038 18.782211 20.981639 18.091380 18.969695 12.434596 12.165963 14.164704 19.748889 12.572420 12.093539 10.692941 8.297747 14.674162 16.542176 16.720349 15.162068 14.718127 16.385204 15.074808 12.875164 12.356566 10.502348 15.153156 11.320387 13.447304 10.889926 8.164341 7.587879 5.697928 6.852033 8.999506 6.011063 10.338818 6.528217 8.620033 13.021623 12.277302 13.702810 12.521221 12.062452 12.031422 10.247569 11.475947 8.418904 10.922651 11.820476 15.341709 16.402515 11.328248 11.691196 10.285836 9.696364 7.896155 2.133882 -1.169898 1.583268 -6.379383 -7.082224 -5.068040 -4.741929 -2.960613 1.088624 -3.072721 0.849381 2.264808 0.585510 0.201327 -1.557995 -2.104490 -0.439851 -5.226360 -6.664298 -5.057029 -6.447013 -8.668185 -14.404544 -12.501411 -11.767411 -10.067601 -9.517771 -11.168687 -13.356796 -15.643995 -14.512077 -14.147268 -12.410985 -11.884232 -13.552977 -14.001906 -12.310076 -17.101360 -15.057492 -15.955630 -12.980722 -17.236384 -15.136538 -12.512796 -12.022363 -17.144899 -15.068838 -10.775802 -11.569188 -15.379463 -14.562713 -14.224472 -10.802316 -16.776891 -16.881669 -14.806384 -12.685273 -12.149976 -10.287243 -7.993516 -2.199498 -11.073602 -10.305387 -7.793893 -5.696087 -8.627519 -9.480634 -7.803808 -9.146759 -4.384300 0.568652 -5.272458 -6.993320 -5.357911 -3.297102 -4.548527 -6.677832 -5.428441 -3.290592 -4.545135 -1.454302 -3.949700 -1.360946 -5.639519 -3.582813 -2.704670 -4.444458 -1.388544 1.318446 0.147218 3.296595 6.056692 8.390591 14.275909 22.888266 18.149906 13.111723 19.114530 17.344667 16.448972 14.768276 12.499049 15.412892 14.555787 15.873720 18.149878 15.207244 14.327269 12.538486 11.969153 8.399185 5.626891 6.750766 8.837119 9.321399 9.430400 6.019728 6.804634 3.696151 0.934643 3.839599 -0.547088 1.517000 2.416417 -2.808179 -5.966127 -3.111249 -5.819525 -3.278171 -4.061654 -2.746338 -3.977569 -4.419272 -7.925935 -1.953655 -5.343811 -3.181325 -2.190798 -3.898657 -4.326672 -7.840716 -3.631611 1.214034 0.544236 2.050599 4.384877 6.673423 5.523840 6.911935 5.669242 3.461988 6.442779 0.352592 3.682495 3.262500 -0.705956 1.836945 4.450315 -0.284714 -3.370634 -0.463085 3.826828 1.354873 2.335480 1.101525 2.357092 2.821102 1.112079 -1.080734 -1.606513 0.043275 5.727957 3.773106 3.037624 6.593964 9.288094 6.394739 5.588350 3.815921 -0.241891 2.196439 4.775928 1.797657 -0.784976 0.447908 6.060084 5.789803 7.284885 6.154147 3.987425 6.988005 6.148864 5.732923 9.277641 6.764753 4.157328 10.663098 5.526215 8.988338 6.929462 2.509887 1.513438 3.109209 3.493912 3.545586 7.116262 1.141936 2.811171 5.426440 4.144380 5.520640 4.305990 2.110791 1.612989 -0.208982 1.003220 -2.055747 0.487001 -0.342228 2.720177 5.484213 6.100214 4.515792 0.622123 -0.391199 15.199304 10.793493 17.610605 14.989016 20.716909 12.202429 26.927049 42.155719 7.014869 0.475700 7.586149 15.688652 19.441173 23.927474 21.757014 22.774349 33.783127 42.004715 43.884847 37.406083 33.951066 33.292179 33.057655 39.973011 45.458663 36.212008 33.601682 33.438101 36.695919 23.619995 12.823880 8.764681 11.195925 17.082430 18.600195 18.894358 20.857587 19.677003 14.025410 19.571926 19.611394 19.225041 17.601692 24.156763 26.085396 24.553013 27.779610 37.554685 36.617013 32.539982 35.248479 -14.649165 2.580988 20.379921 51.036433 54.501929 65.064093 65.260506 63.004471 66.177823 75.887413 71.419913 69.850146 66.424576 74.107631 74.677420 76.156734 54.071657 61.781466 72.050069 73.890830 69.085897 60.949470 50.135659 49.068367 47.305815 43.084429 42.036559 41.913028 47.076952 46.799746 48.255251 52.365438 58.685276 63.841056 65.138712 68.960675 66.613791 58.796100 55.080914 61.321153 64.783663 65.419062 67.437430 66.319012 64.172194 74.208744 71.853303 72.423509 71.311544 72.595256 76.568283 70.598523 72.303790 66.205206 69.455383 67.276032 62.813030 65.329709 64.430040 67.447530 71.979846 71.339967 64.065998 63.939566 65.967458 64.580711 65.907537 59.433387 64.506720 71.573478 67.874613 68.472799 70.785097 66.005706 66.355842 66.770026 66.715766 66.741731 61.526315 63.566224 74.912985 81.367572 74.014703 68.507522 65.696674 61.387558 72.439511 75.721911 74.270457 77.613744 78.671908 69.997142 69.376455 71.384101 68.193649 67.246233 65.459423 71.892724 72.041260 75.232936 69.357797 57.009532 60.908459 64.130303 69.741333 71.392847 66.427222 58.111042 63.009462 71.611287 71.816718 75.191585 74.636689 69.013415 72.805246 74.094005 75.846340 76.439988 76.539208 74.832847 76.098415 76.529319 74.779928 76.062481 73.008046 72.018670 70.180472 73.095010 72.238465 75.300847 71.061164 74.912178 74.551066 77.601400 80.377932 73.978752 75.628657 79.963002 80.876588 79.270998 77.150514 76.621996 78.257393 80.430408 79.212721 73.570065 79.085589 77.358144 78.174049 76.955316 74.724707 77.689866 82.087738 79.621245 78.824707 82.342266 88.512826 81.323980 77.365152 82.019375 81.492452 79.283789 82.364485 88.543828 86.572070 84.081245 83.651579 81.787660 84.707776 82.118703 86.439694 93.142873 89.468243 95.269481 88.514182 86.156489 82.518108 86.583352 89.621001 86.673211 87.600442 89.821144 93.778048 89.578172 90.010734 88.692574 91.622105 101.302971 91.586039 91.969544 92.842904 87.407949 84.147878 90.507339 90.512904 93.629566 92.981136 87.337923 96.369815 97.384029 98.786219 90.709365 93.558963 98.287804 97.434400 95.348304 89.667281 93.333528 96.314759 96.781740 93.412072 92.488887 97.619898 88.470736 89.101344 89.887793 89.707099 86.185095 85.194535 88.558535 92.923061 90.463912 91.407235 91.899677 95.358936 87.587738 90.456381 95.250794 87.401636 86.830447 85.424789 82.984087 85.885312 86.764290 92.039981 88.334650 85.267783 89.991131 87.791027 88.598150 83.842028 85.834916 83.155388 83.867150 86.039137 88.250153 81.791531 78.152324 80.982987 78.209517 80.695051 79.888693 84.667418 75.634491 79.787500 79.805853 79.248410 77.527675 80.522403 79.669953 79.208334 79.214668 65.153190 38.362288 66.481041 61.268658 57.580717 49.168135 41.303485 49.906276 57.703674 61.018545 61.907664 60.425199 63.500961 55.667247 60.223139 46.223612 43.472392 48.827518 46.447293 50.753342 50.517590 53.600831 47.619970 50.956096 61.039236 45.969838 32.565111 21.033197 17.806485 25.855486 12.210134 -2.613004 8.141622 -2.641968 -10.151885 -2.553231 -0.494406 3.032686 4.213332 11.372380 -2.345195 -4.846068 -4.679002 -3.287762 -6.411375 -2.102763 22.081769 40.855434 52.163992 62.213572 64.936895 65.435866 55.149804 48.702661 26.315402 14.668625 12.296436 9.717095 8.867015 10.495163 7.409880 9.940762 5.589782 11.116466 12.978847 7.795527 6.438342 4.555094 10.898922 7.497736 6.158286 6.151954 4.285956 7.228462 8.138603 8.175719 6.481154 2.483581 6.673951 6.219223 11.012654 16.045073 18.924771 21.395153 18.557525 17.675413 17.603638 17.492217 20.943347 14.893620 14.749015 16.847376 13.693332 10.966056 13.903212 16.477083 15.220899 14.835659 11.320634 6.755172 7.360321 7.610973 5.749799 1.733981 4.177897 3.220980 -0.820656 -1.828486 -5.499801 -8.392853 -5.553290 -8.255969 -9.249765 -4.046371 -0.903305 3.204972 4.374112 -0.709945 -0.359523 -3.533274 -8.154787 -12.785419 -5.233842 2.244626 5.612191 6.472384 1.468486 1.803080 3.880853 0.755393 3.308694 5.989557 8.245396 10.600894 7.705246 10.318829 11.249592 11.254896 11.306264 9.563477 14.309201 17.482670 12.812836 13.245552 13.656838 11.803761 11.295131 14.747017 12.165986 9.494948 12.480585 11.578590 14.602289 10.345518 10.681013 16.345940 12.488849 9.394413 10.636379 10.957364 9.145891 10.420492 10.859946 12.602286 13.115564 7.904341 6.446558 6.280440 4.358875 7.306708 8.226830 10.018550 7.071192 -0.878087 2.318497 3.488503 5.152496 7.471573 9.799815 10.376935 -0.051237 -1.239363 -9.841044 -12.598420 -14.683329 -24.208626 -26.848179 -27.188741 -29.233802 -28.078204 -24.151359 -35.448589 -35.305258 -27.580248 -22.320626 -19.386377 -22.079726 -21.129017 -17.171762 -21.491155 -22.876953 -22.941960 -23.082886 -16.131502 -17.669553 -18.467855 -21.902095 -21.198399 -26.120649 -22.408553 -22.831190 -26.825244 -22.515828 -19.399019 -25.887414 -25.957263 -25.592502 -22.224241 -21.249682 -21.135140 -19.288536 -17.013569 -23.488181 -21.867681 -24.538892 -25.610184 -20.419554 -24.262212 -22.111655 -21.135164 -24.636278 -22.066714 -19.396687 -22.395023 -25.017505 -25.542467 -23.921716 -25.254601 -22.198488 -24.714830 -22.118474 -21.148299 -24.608887 -20.263722 -18.850385 -17.019844 -18.155934 -20.300742 -19.042537 -22.136702 -21.377518 -20.949779 -20.969153 -17.433465 -18.173298 -20.306934 -18.998808 -20.322727 -20.819150 -22.587667 -23.109199 -17.906010 -16.459301 -18.056653 -23.662768 -16.374868 -21.120460 -28.248760 -26.234864 -23.764173 -23.357066 -21.484753 -19.145954 -22.080490 -21.203159 -20.745227 -22.517214 -21.231629 -19.012602 -16.748081 -14.400682 -19.039303 -15.136662 -19.008088 -23.960599 -23.257703 -19.456274 -25.562356 -18.635958 -9.239871 -8.889979 -15.992817 -8.977079 -4.944944 -7.881412 -10.382276 -7.344129 -9.988102 -9.180410 -17.477483 -21.707959 -31.225511 -25.195229 -23.108223 -24.825777 -30.407756 -33.611629 -29.040607 -27.750903 -25.906640 -27.018800 -23.884649 -24.635475 -25.034583 -24.988952 -21.475293 -18.723783 -11.077135 -15.939617 -19.360941 -30.376077 -33.517678 -33.937386 -35.975382 -36.543428 -36.577091 -34.849003 -34.348688 -36.025786 -31.187495 -27.962843 -25.573383 -24.871995 -28.210531 -25.609299 -22.934997 -25.912639 -32.030183 -30.020941 -27.495569 -27.044343 -28.676147 -30.827772 -27.833166 -25.167534 -26.360918 -24.948650 -19.142169 -12.345114 -14.149759 -11.291788 0.331862 5.147698 -2.719185 -6.568340 -10.687487 -8.432791 -7.657295 -7.644548 -12.830246 -19.540278 -17.671185 -16.966099 -18.790837 -19.227770 -17.480736 -13.507088 -10.705788 -10.039146 -9.860537 -6.256955 -6.986492 -3.851891 -4.556286 -1.435543 1.353871 0.206284 5.120248 -0.361586 -2.204050 -7.541455 -12.664456 -19.132233 -19.103750 -11.874900 -15.246372 -16.504044 -14.686983 -17.754991 -18.722101 -15.251781 -17.823529 -18.722178 -20.468301 -19.251584 -24.082469 -18.527436 -11.380923 -8.019358 -7.196495 1.858474 16.746661 -12.796607 -18.108244 -19.459412 -13.595401 -6.583127 -15.397881 4.785306 11.162460 8.133188 19.967932 27.084550 28.381587 23.544304 20.523858 11.143376 10.232270 8.631774 11.463524 15.901121 16.991921 10.177927 11.843799 14.429671 14.863732 14.965198 13.307766 14.598300 13.302670 14.582732 11.562727 14.115009 13.292167 18.103174 14.353000 16.529736 17.500392 21.037143 20.334535 18.233701 17.786847 19.482388 18.171966 21.230040 22.228251 20.561476 20.151913 23.647410 22.851680 24.211321 24.759126 24.809420 23.096798 22.626497 24.337637 21.290915 25.609181 25.297701 24.897529 28.474581 29.482616 31.343509 30.194815 21.026245 20.303480 18.756288 18.072421 19.752322 21.986417 22.535736 22.651297 20.974730 24.016743 21.462649 22.295439 19.268118 14.768023 20.710658 26.035988 28.885361 34.923857 31.380503 26.630854 27.396246 29.457606 33.382788 32.702216 28.876434 29.700193 30.082488 33.540374 25.788538 26.937272 27.762285 29.425885 31.694448 37.545293 32.129115 35.628874 35.310905 38.347047 39.364009 37.721080 42.562379 38.770313 37.389174 39.101884 37.748070 40.759672 41.741390 40.057813 36.120129 38.601598 37.676564 30.147328 33.414183 31.153677 30.101580 33.562123 36.251406 28.032652 25.673371 18.444847 14.460662 3.116298 3.374800 -10.125417 -9.054613 -9.780882 -3.459333 1.969125 1.405785 -2.347989 3.752579 17.878537 28.465029 29.212451 29.297078 27.763325 9.711856 15.167820 31.577435 37.142922 41.674721 39.660329 37.172944 34.897497 34.265210 35.865527 34.527783 32.294298 35.277795 39.683147 38.956266 42.137587 41.434129 37.509321 34.769644 32.384466 36.982018 36.579208 27.396507 23.211861 22.442042 23.895874 24.264519 24.301888 22.592264 23.868432 22.558823 20.316789 21.553822 18.461532 19.218989 14.374428 2.328001 0.956287 4.528686 3.506058 8.339145 9.893481 4.782579 3.419185 5.071221 30.024162 31.738156 34.574271 39.580306 9.184902 35.496188 2.469647 -28.483432 -17.075802 -20.471432 -36.854134 -44.282935 -42.208707 -41.738019 -40.082801 -41.274400 -43.426393 -33.385413 -26.959956 -16.911208 -21.065631 -22.582739 -24.279597 1.467884 -1.699561 -3.913713 -3.550686 -3.568794 -8.923443 -13.917058 -16.820197 -10.531660 -10.481611 -7.320975 -7.955729 -3.049052 -3.280146 -5.377291 -2.284679 -8.354215 -5.023508 -5.416901 -5.895117 -5.866481 -4.097572 -3.606214 -5.296469 -0.468783 4.509710 10.900705 23.172612 24.720403 31.756051 32.278286 35.573686 48.989454 50.859448 54.347952 59.175728 58.610504 42.519035 39.879713 36.380565 38.537809 28.821130 39.922770 38.399049 40.630498 38.250581 40.884505 38.328786 40.915015 40.132115 36.195582 44.001742 35.868490 36.573223 30.446974 24.876542 20.171790 13.670407 1.403990 -7.118603 -9.091606 -11.313357 -13.775923 -12.597437 3.618260 16.906621 18.195014 9.641690 10.995370 11.779139 9.910942 14.713249 14.456199 12.341955 15.442587 21.677390 25.000436 27.516604 24.748870 30.939483 25.889356 31.075711 22.493727 24.880464 15.659032 12.629946 10.609353 16.921808 18.786705 13.710606 12.394278 15.817436 13.183067 15.772704 11.498238 13.575361 14.481737 12.743711 17.568607 15.544698 18.189038 17.457684 22.303203 20.309293 19.474491 19.502183 22.982548 25.720959 29.856811 38.039908 43.753124 39.828090 43.938653 43.690689 46.777917 44.318007 45.204666 40.419717 44.205152 50.841277 55.911388 53.666711 60.007251 51.511293 50.453250 47.279425 53.171125 56.782915 55.684810 60.681066 60.491948 56.629959 59.229374 61.895366 58.899455 56.274654 50.489344 55.907912 59.435601 60.018872 54.952439 51.822795 52.947379 51.514538 54.505690 53.736721 46.306453 47.856874 55.660731 57.582346 54.330000 57.070744 54.522231 55.311326 54.014418 57.035648 52.733294 49.568321 56.016189 50.837506 54.243192 57.452115 58.005637 58.137181 58.234179 58.254639 58.258653 54.748451 51.994579 56.659939 52.747358 49.577699 54.307712 52.153992 52.982689 57.008554 54.507424 53.630878 53.629903 53.574219 53.545485 55.305754 55.808230 52.350191 53.157731 55.325855 57.552445 54.608185 53.728379 57.202256 59.890366 60.471557 55.347482 55.690279 47.260470 51.723479 48.181207 46.698882 48.399289 52.351380 53.362186 50.004539 49.117941 45.532842 47.968492 54.107364 55.628065 54.093794 55.525594 54.266876 57.297333 60.033394 53.584472 51.721701 53.344259 53.684162 55.437020 54.226223 52.041104 48.019958 48.699710 45.517597 42.711061 43.878995 46.011392 55.281528 66.652425 71.233616 70.482888 70.339731 66.892534 67.621385 62.723128 64.701541 62.036513 59.262685 60.454752 57.321652 59.811133 67.760346 73.301602 76.322193 80.647878 80.086498 78.001993 74.027005 78.225389 74.271930 78.090461 77.762638 80.840035 81.861005 80.198384 77.998891 72.186570 70.574333 72.099274 74.195799 71.171287 75.528092 75.210579 73.021936 70.796698 71.987930 68.845959 73.095842 76.266793 75.079679 76.476746 73.484327 72.492547 74.162241 72.819330 75.845074 75.068790 72.872783 75.899213 75.066401 74.600653 76.370754 73.330802 72.358450 75.807725 78.489060 72.019602 73.670304 74.529845 74.472070 76.252151 76.780970 71.553651 71.851471 77.484368 77.151788 76.807515 73.380921 72.382889 79.296810 75.936554 76.377805 76.891500 75.120136 74.617128 78.098734 79.060035 79.153169 75.723487 74.754015 71.130009 70.043719 75.183569 64.289016 46.840874 39.064751 37.376911 35.059241 30.829440 33.258431 35.870399 31.100268 31.460537 33.633297 35.834623 38.143072 36.993672 36.600524 33.081517 33.809345 34.184203 37.669364 33.400865 37.293157 38.718103 40.536163 48.153051 52.011298 56.282427 61.037416 65.763434 66.966637 72.459289 70.550692 57.409212 57.431297 59.769968 60.038071 61.819241 65.900504 59.919148 56.289155 46.864205 28.311496 25.176060 17.913053 11.965518 15.920337 17.143018 18.902170 23.004507 22.329806 25.483020 24.756479 20.815324 19.815991 21.442176 21.828345 23.598217 18.850650 10.365500 9.990921 11.912292 6.964848 3.726778 -0.405923 3.695928 4.997479 3.292905 4.640465 6.886070 7.392952 9.225638 11.538828 12.102424 17.470114 20.785740 16.178040 14.847016 16.529694 16.913980 11.638330 15.447420 16.801527 18.586402 24.445253 41.876072 48.352763 51.222187 55.716733 63.977530 59.111010 50.365364 55.365194 53.534221 56.020124 58.784565 62.875851 56.948869 48.069440 52.966371 49.347045 53.087118 59.819462 50.859300 42.794750 48.157407 32.210818 16.609193 11.410349 31.315796 31.628803 35.889100 37.718369 30.872458 14.855480 -6.945889 3.235194 5.072862 4.497126 6.420111 10.509658 13.297940 19.208401 24.372365 32.628079 29.591288 30.162692 21.887419 14.058337 17.547562 25.727026 27.687116 27.966378 29.921707 25.189084 23.715394 18.310196 16.672771 19.982270 22.613711 14.372261 22.531324 35.914037 42.567462 42.302273 42.229281 40.577166 41.810101 44.000205 42.749452 42.317655 37.036719 30.211211 30.277295 25.215970 30.618413 28.953195 31.556429 30.818745 30.386243 30.381931 30.361930 32.100717 34.357939 36.667679 40.777872 50.684446 60.397477 55.732122 59.431457 53.922697 55.467984 44.008419 52.771241 50.666797 51.021274 49.785768 47.542696 52.254762 51.916173 53.269960 59.099377 62.414865 66.615774 67.802270 62.702584 59.517693 55.348832 50.634390 47.664604 45.184668 42.743602 45.622747 48.264694 50.564321 47.649390 52.028776 46.426054 42.729438 40.327174 44.912896 44.492346 51.117564 63.724719 68.704835 60.861013 51.638565 52.984952 53.574584 46.394502 39.110393 37.397806 40.581430 36.117599 38.180948 35.574565 36.329685 40.274105 41.269442 44.900205 56.551707 56.175966 62.604249 57.734120 57.688076 51.066813 50.747908 52.773309 54.932685 57.227132 50.793323 54.160766 62.542627 57.519490 62.821943 48.979165 26.949826 10.979613 -3.462007 -9.106565 -10.324021 -5.436694 1.219165 1.108142 -4.394461 -7.557886 -8.232387 0.365796 2.786880 6.555687 -1.039996 -6.905354 -2.825054 -6.896396 -11.923804 -11.241389 -10.941275 -9.260844 -8.753185 -6.935569 -6.402637 -6.346983 -9.838579 -10.839895 -9.200202 -7.035333 -8.282172 -6.941788 -4.693662 -4.181157 -2.353815 3.469250 -5.539978 -6.600953 -4.546136 1.065144 2.567681 2.767363 -0.634780 1.902496 1.018078 5.803026 5.531154 3.396817 1.170199 4.115117 6.750542 5.526503 8.648964 7.886273 10.968524 6.683498 7.016998 7.404651 9.106090 11.349957 8.380175 9.215601 7.884932 9.112903 9.556832 13.089684 10.583232 11.448267 8.386953 9.130231 9.522382 9.495680 9.496556 5.977330 8.484628 11.128563 16.930540 11.494336 4.430126 4.592789 8.321611 10.959297 11.565933 8.190548 10.768851 11.675913 9.940514 5.968789 4.933663 6.541966 8.708989 10.999293 9.837264 7.683266 10.700624 8.103112 8.915695 11.136092 8.119306 7.184772 8.889966 5.804834 6.589518 8.782732 9.273894 7.583970 7.137067 8.856337 11.078482 8.104074 8.956724 9.403039 7.630513 7.144267 5.342651 4.799596 6.491480 8.712364 9.257214 12.874920 10.413897 7.775966 5.487079 3.112443 2.487603 2.377764 5.843374 6.834514 6.945396 5.269341 3.033762 0.715852 0.115694 1.763878 2.209412 0.491511 0.029947 1.744086 -1.318234 -2.281208 -0.595851 -3.687705 0.615620 2.045858 0.380335 -1.787801 -0.551283 -1.911444 -0.654363 -1.944401 -2.422205 -2.452454 -0.723571 1.523692 -1.442352 1.171939 0.356687 -0.103557 -1.862299 1.142892 -1.441906 -4.133716 -2.914040 -0.759188 -0.264377 -1.937001 -2.379470 -2.416309 -0.689240 -0.193603 1.630801 2.181007 2.258242 0.546306 0.066881 0.020687 -1.771708 -0.515149 -0.058833 1.727747 2.268227 0.587148 0.137972 0.107053 3.599863 2.840872 -1.060432 -0.263619 1.886049 2.360380 4.205026 1.250906 3.852487 3.036611 -2.692549 -2.422504 -3.851134 -4.419410 -0.937809 0.051959 -1.596178 -2.002195 -3.778494 -2.546701 1.423063 0.696236 -3.174101 -4.124737 1.045662 -1.049387 -1.899237 -5.394980 -6.428762 -6.553299 -3.100618 -0.348328 0.278898 -6.614327 -5.022841 -5.978438 -2.999359 1.512392 -7.939839 -10.762434 -9.219381 -10.685358 -7.676163 -4.914448 4.486440 7.137065 3.975245 4.960835 8.950365 6.422762 5.559787 7.316610 7.779289 2.545283 4.614752 5.480387 7.249425 4.292126 1.626895 -2.448617 -3.560224 -3.719377 1.486485 2.989395 3.178745 -0.198589 0.615604 1.026713 -0.736469 -2.962971 -3.487628 -7.082377 -2.841653 0.322452 -4.342900 -2.160365 0.537414 4.583753 2.192342 3.146366 7.171147 4.681364 7.341745 6.591571 2.648672 1.661002 -0.206335 -2.543632 0.410346 1.339138 6.697375 -0.505427 0.714979 -0.180401 -5.994192 -7.524867 2.862515 4.003689 2.062925 -1.754637 -1.004963 2.864047 10.885316 11.282380 12.874903 10.004040 10.839378 7.750299 -5.571319 11.937816 10.471837 7.084382 -16.111411 -20.935667 -17.741531 0.380976 8.917911 21.152559 37.042904 60.472960 64.915951 68.935915 63.393742 63.368689 53.158237 46.553619 32.887281 36.073744 34.007479 29.409831 30.137247 37.540129 62.382454 58.598586 56.523832 67.337928 77.313921 76.080154 79.084737 76.704995 75.797496 79.269964 76.707394 75.807001 74.026620 75.240389 77.429501 72.680412 76.552146 70.912228 70.737174 72.866947 78.590290 78.395104 74.611234 68.418632 70.324333 72.834160 75.072531 68.647831 65.012909 64.347076 62.388981 60.045650 61.242684 58.136386 60.662519 61.590055 59.882797 61.205630 56.405964 54.921412 56.547744 62.225381 61.998521 59.954172 57.779189 57.223326 57.118848 57.069687 53.542643 54.300874 54.694836 45.874609 43.378759 41.353535 42.405669 42.787855 41.043453 35.288858 40.777275 39.056306 36.379140 39.406059 36.802675 35.840797 35.793682 39.253923 34.948665 33.550966 35.219893 33.861309 28.091615 28.324413 26.866022 20.999550 28.230045 28.783111 30.178271 29.027747 21.561873 21.278258 19.765690 20.895788 17.808042 23.865502 25.787690 31.217212 27.580986 33.329721 33.532405 33.166361 31.473208 32.739888 34.931009 35.446412 33.769749 38.600489 36.545986 37.427459 39.690788 40.207140 38.520297 39.835119 40.298411 40.316580 40.349262 38.607258 39.870193 38.563012 41.600805 40.825693 40.412761 36.914309 35.900801 37.543784 39.731681 42.031749 39.120181 38.232385 36.423713 37.619117 38.047708 41.590138 40.871381 40.500421 38.775611 38.264871 38.203150 41.688839 37.406043 39.538137 35.183008 35.456092 37.601270 36.305218 32.345859 33.107100 33.473219 31.675630 34.715211 28.636212 30.227128 27.557812 28.289167 32.234406 33.237271 35.128985 33.968870 35.314033 37.563171 38.093419 36.418701 39.496375 38.693135 36.503276 37.776491 39.965096 42.227230 42.811109 41.159656 37.189471 37.901215 40.002113 40.458336 40.525192 40.574629 38.821201 36.553446 39.509513 38.645218 39.955393 38.702792 39.996003 40.462342 38.722523 40.004559 42.216375 39.204627 38.282752 36.460222 37.643488 38.056794 38.066878 34.572202 35.340268 37.487301 36.197787 35.766250 39.286146 40.259677 35.076648 35.417084 34.017821 38.728247 40.179816 36.799307 37.670689 39.863593 40.339167 40.411977 43.990823 39.728564 41.858117 42.781574 41.035511 38.819227 41.812136 42.720773 41.019156 40.589914 38.802460 40.022439 42.217341 39.213804 38.296926 40.003152 40.437378 42.228182 44.534028 45.106662 43.445011 41.239250 42.457578 37.580874 39.598520 40.464470 42.225897 39.249645 40.089755 40.521796 40.508594 40.522341 42.295908 39.275142 38.326011 40.013523 40.444014 43.991029 41.511153 40.629502 40.594685 38.775276 41.761470 44.464693 43.271564 41.126609 40.631755 40.542883 38.721497 43.480382 41.404347 42.283157 42.776160 42.788096 44.557154 45.069382 39.841961 40.133947 40.478746 40.410771 43.929832 41.426084 44.055157 43.269020 41.066347 42.324430 40.998567 38.740028 41.732687 44.417374 43.220535 41.086323 38.840986 41.781491 40.919002 42.239944 42.759788 41.047492 40.578259 44.063615 43.272520 39.353836 40.141597 37.003937 37.726811 43.416742 43.157808 42.845786 39.410901 40.174366 42.315619 42.800178 39.355370 40.171765 42.341717 42.825647 39.380842 38.436864 40.104789 40.531852 42.327835 39.354862 38.427290 41.881558 41.064056 40.653875 38.922797 36.652049 36.084381 32.470337 34.938460 35.819475 30.573673 29.122776 32.504740 35.151938 35.728728 35.866789 37.696056 38.212542 36.508252 50.135169 54.110731 54.518510 53.069135 49.153718 46.332291 43.917023 45.026512 43.645166 44.907399 45.383154 43.653556 46.704102 42.387385 44.478342 45.388048 45.411095 43.696847 43.228855 44.942144 43.651353 41.438683 42.691419 44.882524 43.635563 43.226420 44.997883 41.963112 42.773310 43.218024 39.696365 40.480041 44.419370 40.128225 44.044004 43.731780 43.315443 43.356724 50.414625 55.946557 55.427400 56.976785 55.814663 51.847296 54.351141 49.950515 53.755493 53.405709 51.227435 50.766510 48.966693 48.424686 46.610059 40.799297 44.522071 45.837340 45.879873 47.738657 43.014044 48.623968 48.763111 48.385775 46.706616 47.996818 50.206059 50.735659 54.354717 51.903892 52.800386 53.286911 49.777455 47.037531 48.214333 43.304545 43.558570 40.410208 44.649280 47.815964 46.660605 49.843416 50.885259 47.453430 48.289186 50.482178 52.727766 55.068171 53.927518 55.306245 57.580360 52.834383 54.944104 54.087255 53.597254 51.831415 53.089634 57.058152 54.563990 55.470627 54.210230 53.721668 51.931770 51.416993 51.362765 54.860877 52.341204 54.986278 54.216588 53.785848 52.039338 51.541387 55.015714 57.759793 58.374445 60.291696 62.644084 