0.000000 0.000000 0.000000 0.000000 0.000000 0.000000 0.000000 0.000000 0.000000 0.000000 0.000000 0.000000 0.000000 0.000000 0.000000 0.000000 0.000000 0.000000 0.000000 0.000000 0.000000 0.000000 0.000000 0.000000 0.000000 0.000000 0.000000 0.000000 0.000000 0.000000 0.000000 0.000000 0.000000 0.000000 0.000000 0.000000 0.000000 0.000000 0.000000 0.000000 0.000000 0.000000 0.000000 -0.000000 0.000000 0.000000 0.000000 0.000000 0.000000 -0.000000 0.000000 0.000000 0.000000 -0.000000 0.000000 0.000000 0.000000 -0.000000 0.000000 0.000000 0.000000 0.000000 0.000000 0.000000 0.000000 0.000000 -0.000000 0.000000 0.000000 0.000000 0.000000 0.000000 0.000000 0.000000 0.000000 -0.000000 0.000000 0.000000 0.000000 0.000000 0.000000 0.000000 0.000000 0.000000 0.000000 0.000000 0.000000 0.000000 0.000000 0.000003 0.000016 0.000061 0.000177 0.000430 0.000911 0.001743 0.003078 0.005098 0.008014 0.012057 0.017479 0.024544 0.033525 0.044697 0.058332 0.074697 0.094041 0.116601 0.142590 0.172198 0.205589 0.242899 0.284232 0.329664 0.379238 0.432968 0.490837 0.552800 0.618783 0.688687 0.762390 0.839746 0.920589 1.004736 1.091989 1.182136 1.274954 1.370212 1.467672 1.567092 1.668225 1.770827 1.874652 1.979459 2.085007 2.191064 2.297403 2.403804 2.510055 2.615953 2.721306 2.825931 2.929654 3.032313 3.133758 3.233847 3.332452 3.429454 3.524746 3.618228 3.709806 3.799386 3.886865 3.972126 4.055032 4.135427 4.213132 4.287945 4.359644 4.427990 4.492731 4.553604 4.610345 4.662691 4.710383 4.753176 4.790840 4.823173 4.850009 4.871224 4.886750 4.896575 4.900749 4.899386 4.892660 4.880803 4.864102 4.842894 4.817554 4.788497 4.756160 4.721003 4.683496 4.644118 4.603341 4.561635 4.519453 4.477231 4.435384 4.394301 4.354342 4.315837 4.279083 4.244346 4.211858 4.181816 4.154385 4.129700 4.107861 4.088941 4.072986 4.060013 4.050017 4.042968 4.038820 4.037504 4.038938 4.043024 4.049654 4.058707 4.070055 4.083562 4.099090 4.116493 4.135626 4.156341 4.178492 4.201934 4.226521 4.252116 4.278579 4.305781 4.333593 4.361893 4.390566 4.419501 4.448593 4.477739 4.506828 4.535740 4.564339 4.592467 4.619940 4.646554 4.672078 4.696260 4.718830 4.739502 4.757983 4.773974 4.787176 4.797298 4.804058 4.807197 4.806483 4.801725 4.792781 4.779562 4.762041 4.740253 4.714295 4.684325 4.650557 4.613258 4.572741 4.529357 4.483491 4.435550 4.385959 4.335155 4.283574 4.231653 4.179816 4.128476 4.078027 4.028837 3.981254 3.935593 3.892141 3.851154 3.812857 3.777440 3.745063 3.715855 3.689912 3.667304 3.648071 3.632226 3.619760 3.610640 3.604812 3.602204 3.602727 3.606278 3.612739 3.621985 3.633879 3.648277 3.665031 3.683987 3.704988 3.727878 3.752499 3.778695 3.806310 3.835194 3.865196 3.896175 3.927989 3.960505 3.993596 4.027137 4.061014 4.095113 4.129317 4.163502 4.197530 4.231241 4.264456 4.296968 4.328549 4.358947 4.387890 4.415091 4.440251 4.463064 4.483226 4.500432 4.514392 4.524826 4.531482 4.534138 4.532617 4.526793 4.516596 4.502020 4.483119 4.460012 4.432878 4.401949 4.367512 4.329895 4.289465 4.246618 4.201773 4.155364 4.107833 4.059621 4.011166 3.962896 3.915219 3.868528 3.823187 3.779538 3.737891 3.698526 3.661691 3.627601 3.596440 3.568357 3.543473 3.521874 3.503622 3.488747 3.477255 3.469127 3.464322 3.462779 3.464420 3.469147 3.476852 3.487412 3.500696 3.516561 3.534861 3.555442 3.578149 3.602821 3.629299 3.657425 3.687039 3.717986 3.750113 3.783272 3.817317 3.852110 3.887518 3.923413 3.959672 3.996181 4.032826 4.069489 4.106044 4.142350 4.178243 4.213538 4.248026 4.281475 4.313627 4.344210 4.372934 4.399500 4.423602 4.444937 4.463204 4.478114 4.489392 4.496784 4.500056 4.499002 4.493443 4.483232 4.468252 4.448420 4.423685 4.394029 4.359465 4.320038 4.275821 4.226915 4.173449 4.115572 4.053458 3.987296 3.917296 3.843680 3.766683 3.686547 3.603527 3.517877 3.429858 3.339732 3.247760 3.154200 3.059308 2.963334 2.866526 2.769128 2.671392 2.573576 2.475952 2.378807 2.282444 2.187182 2.093355 2.001310 1.911401 1.823992 1.739439 1.658093 1.580300 1.506391 1.436680 1.371458 1.310992 1.255518 1.205247 1.160353 1.120981 1.087239 1.059202 1.036914 1.020383 1.009585 1.004469 1.004952 1.010926 1.022258 1.038791 1.060350 1.086740 1.117751 1.153161 1.192736 1.236233 1.283401 1.333988 1.387735 1.444386 1.503683 1.565371 1.629199 1.694920 1.762294 1.831087 1.901073 1.972035 2.043764 2.116062 2.188740 2.261619 2.334530 2.407316 2.479828 2.551930 2.623493 2.694400 2.764536 2.833783 2.902019 2.969106 3.034892 3.099205 3.161855 3.222631 3.281307 3.337643 3.391382 3.442270 3.490050 3.534464 3.575264 3.612210 3.645080 3.673674 3.697821 3.717392 3.732300 3.742512 3.748048 3.748985 3.745455 3.737644 3.725786 3.710168 3.691104 3.668946 3.644071 3.616877 3.587775 3.557181 3.525511 3.493177 3.460579 3.428103 3.396114 3.364956 3.334950 3.306385 3.279527 3.254608 3.231833 3.211376 3.193381 3.177962 3.165208 3.155178 3.147908 3.143407 3.141666 3.142652 3.146315 3.152589 3.161393 3.172631 3.186198 3.201979 3.219852 3.239687 3.261351 3.284708 3.309617 3.335939 3.363536 3.392269 3.422002 3.452602 3.483940 3.515890 3.548332 3.581150 3.614235 3.647483 3.680793 3.714071 3.747219 3.780132 3.812692 3.844764 3.876194 3.906805 3.936401 3.964765 3.991660 4.016836 4.040034 4.060994 4.079449 4.095138 4.107807 4.117216 4.123145 4.125401 4.123829 4.118318 4.108809 4.095295 4.077826 4.056507 4.031498 4.003010 3.971299 3.936657 3.899412 3.859921 3.818561 3.775724 3.731807 3.687212 3.642334 3.597559 3.553262 3.509797 3.467498 3.426675 3.387612 3.350567 3.315767 3.283410 3.253667 3.226678 3.202554 3.181380 3.163213 3.148087 3.136009 3.126967 3.120928 3.117839 3.117633 3.120226 3.125521 3.133412 3.143781 3.156502 3.171444 3.188472 3.207444 3.228220 3.250655 3.274607 3.299934 3.326496 3.354154 3.382776 3.412231 3.442394 3.473144 3.504365 3.535948 3.567788 3.599783 3.631831 3.663819 3.695624 3.727105 3.758102 3.788432 3.817892 3.846257 3.873287 3.898721 3.922302 3.943758 3.962818 3.979214 3.992687 4.002991 4.009901 4.013223 4.012799 4.008517 4.000319 3.988197 3.972202 3.952441 3.929071 3.902307 3.872400 3.839641 3.804357 3.766900 3.727643 3.686973 3.645282 3.602965 3.560410 3.517997 3.476093 3.435043 3.395175 3.356791 3.320168 3.285555 3.253173 3.223214 3.195841 3.171188 3.149361 3.130440 3.114477 3.101502 3.091519 3.084513 3.080447 3.079267 3.080904 3.085272 3.092275 3.101804 3.113743 3.127966 3.144342 3.162736 3.183009 3.205020 3.228628 3.253691 3.280069 3.307624 3.336220 3.365725 3.396012 3.426957 3.458441 3.490352 3.522582 3.555028 3.587588 3.620161 3.652633 3.684878 3.716752 3.748091 3.778709 3.808399 3.836935 3.864070 3.889546 3.913102 3.934468 3.953372 3.969548 3.982741 3.992705 3.999214 4.002062 4.001065 3.996065 3.986931 3.973559 3.955876 3.933836 3.907424 3.876651 3.841557 3.802207 3.758692 3.711125 3.659640 3.604389 3.545544 3.483289 3.417821 3.349350 3.278091 3.204269 3.128113 3.049852 2.969720 2.887948 2.804766 2.720402 2.635077 2.549010 2.462419 2.375523 2.288549 2.201735 2.115333 2.029608 1.944841 1.861326 1.779368 1.699289 1.621400 1.546023 1.473473 1.404061 1.338085 1.275828 1.217553 1.163503 1.113895 1.068921 1.028743 0.993494 0.963278 0.938167 0.918203 0.903400 0.893743 0.889186 0.889663 0.895078 0.905316 0.920240 0.939695 0.963509 0.991495 1.023455 1.059181 1.098455 1.141053 1.186749 1.235310 1.286506 1.340105 1.395878 1.453597 1.513041 1.573992 1.636239 1.699577 1.763811 1.828750 1.894216 1.960036 2.026048 2.092099 2.158046 2.223754 2.289098 2.353963 2.418240 2.481827 2.544619 2.606508 2.667373 2.727081 2.785481 2.842405 2.897667 2.951068 3.002388 3.051407 3.097895 3.141620 3.182350 3.219859 3.253929 3.284359 3.310965 3.333594 3.352127 3.366486 3.376640 3.382608 3.384460 3.382312 3.376334 3.366737 3.353773 3.337723 3.318904 3.297650 3.274317 3.249271 3.222880 3.195516 3.167544 3.139319 3.111182 3.083458 3.056451 3.030444 3.005696 2.982438 2.960878 2.941195 2.923544 2.908050 2.894815 2.883917 2.875407 2.869317 2.865655 2.864411 2.865557 2.869049 2.874828 2.882821 2.892946 2.905108 2.919206 2.935132 2.952773 2.972010 2.992723 3.014790 3.038087 3.062492 3.087884 3.114143 3.141152 3.168798 3.196970 3.225562 3.254474 3.283608 3.312874 3.342184 3.371453 3.400594 3.429510 3.458094 3.486222 3.513752 3.540521 3.566348 3.591036 3.614369 3.636118 3.656054 3.673938 3.689532 3.702601 3.712919 3.720273 3.724470 3.725346 3.722772 3.716661 3.706973 3.693717 3.676953 3.656789 3.633382 3.606935 3.577689 3.545914 3.511913 3.476010 3.438547 3.399876 3.360355 3.320340 3.280183 3.240226 3.200797 3.162208 3.124750 3.088693 3.054283 3.021740 2.991261 2.963014 2.937141 2.913761 2.892964 2.874818 2.859367 2.846633 2.836619 2.829305 2.824658 2.822625 2.823142 2.826130 2.831500 2.839153 2.848982 2.860874 2.874709 2.890365 2.907717 2.926637 2.946997 2.968671 2.991533 3.015457 3.040322 3.066011 3.092408 3.119402 3.146888 3.174765 3.202935 3.231307 3.259789 3.288287 3.316697 3.344901 3.372767 3.400142 3.426854 3.452713 3.477510 3.501024 3.523015 3.543249 3.561480 3.577466 3.590967 3.601755 3.609615 3.614356 3.615819 3.613880 3.608463 3.599536 3.587119 3.571283 3.552146 3.529873 3.504677 3.476801 3.446522 3.414142 3.379989 3.344401 3.307727 3.270320 3.232530 3.194701 3.157164 3.120240 3.084227 3.049408 3.016039 2.984356 2.954568 2.926858 2.901384 2.878279 2.857649 2.839576 2.824118 2.811311 2.801171 2.793691 2.788847 2.786599 2.786891 2.789655 2.794807 2.802257 2.811903 2.823638 2.837347 2.852911 2.870208 2.889113 2.909499 2.931241 2.954214 2.978292 3.003354 3.029282 3.055958 3.083272 3.111116 3.139386 3.167984 3.196817 3.225794 3.254825 3.283811 3.312646 3.341207 3.369354 3.396927 3.423748 3.449620 3.474328 3.497645 3.519333 3.539152 3.556859 3.572212 3.584977 3.594927 3.601853 3.605561 3.605877 3.602648 3.595748 3.585072 3.570543 3.552110 3.529749 3.503459 3.473267 3.439222 3.401396 3.359883 3.314797 3.266268 3.214444 3.159486 3.101567 3.040871 2.977591 2.911926 2.844079 2.774258 2.702672 2.629530 2.555039 2.479405 2.402830 2.325512 2.247650 2.169444 2.091106 2.012858 1.934940 1.857610 1.781144 1.705837 1.631997 1.559948 1.490022 1.422552 1.357868 1.296301 1.238167 1.183772 1.133400 1.087316 1.045758 1.008937 0.977034 0.950200 0.928553 0.912178 0.901128 0.895425 0.895057 0.899986 0.910143 0.925432 0.945734 0.970906 1.000783 1.035185 1.073914 1.116758 1.163493 1.213888 1.267702 1.324691 1.384606 1.447196 1.512213 1.579409 1.648537 1.719359 1.791638 1.865146 1.939662 2.014973 2.090875 2.167172 2.243679 2.320220 2.396630 2.472754 2.548447 2.623574 2.698011 2.771643 2.844359 2.916052 2.986607 3.055898 3.123787 3.190114 3.254703 3.317355 3.377856 3.435976 3.491469 3.544086 3.593575 3.639682 3.682158 3.720764 3.755277 3.785493 3.811241 3.832387 3.848844 3.860575 3.867600 3.869991 3.867879 3.861445 3.850923 3.836591 3.818763 3.797784 3.774028 3.747886 3.719763 3.690071 3.659221 3.627617 3.595656 3.563718 3.532165 3.501336 3.471547 3.443086 3.416216 3.391167 3.368143 3.347317 3.328833 3.312808 3.299329 3.288458 3.280233 3.274667 3.271753 3.271463 3.273751 3.278555 3.285797 3.295389 3.307229 3.321209 3.337210 3.355110 3.374781 3.396090 3.418905 3.443092 3.468516 3.495044 3.522547 3.550895 3.579965 3.609635 3.639790 3.670318 3.701113 3.732076 3.763110 3.794121 3.825014 3.855682 3.886006 3.915849 3.945054 3.973441 4.000809 4.026939 4.051592 4.074516 4.095451 4.114134 4.130301 4.143691 4.154054 4.161154 4.164780 4.164757 4.160948 4.153266 4.141678 4.126203 4.106919 4.083956 4.057496 4.027768 3.995049 3.959641 3.921881 3.882128 3.840760 3.798164 3.754729 3.710844 3.666893 3.623244 3.580251 3.538251 3.497555 3.458451 3.421202 3.386042 3.353176 3.322782 3.295009 3.269977 3.247780 3.228485 3.212135 3.198747 3.188318 3.180824 3.176222 3.174453 3.175442 3.179100 3.185327 3.194013 3.205041 3.218285 3.233613 3.250893 3.269987 3.290755 3.313060 3.336762 3.361726 3.387815 3.414900 3.442851 3.471545 3.500863 3.530691 3.560920 3.591447 3.622169 3.652988 3.683794 3.714468 3.744874 3.774856 3.804236 3.832815 3.860375 3.886678 3.911472 3.934490 3.955463 3.974123 3.990200 4.003432 4.013571 4.020388 4.023683 4.023294 4.019105 4.011048 3.999111 3.983340 3.963833 3.940742 3.914271 3.884670 3.852227 3.817261 3.780118 3.741167 3.700790 3.659376 3.617315 3.574994 3.532790 3.491066 3.450168 3.410421 3.372126 3.335560 3.300971 3.268580 3.238580 3.211135 3.186378 3.164418 3.145335 3.129183 3.115992 3.105769 3.098500 3.094149 3.092665 3.093980 3.098010 3.104660 3.113824 3.125387 3.139224 3.155207 3.173202 3.193071 3.214675 3.237873 3.262526 3.288495 3.315641 3.343832 3.372936 3.402826 3.433379 3.464479 3.496011 3.527869 3.559952 3.592158 3.624384 3.656519 3.688436 3.719992 3.751022 3.781342 3.810744 3.839001 3.865870 3.891094 3.914402 3.935529 3.954205 3.970162 3.983145 3.992908 3.999226 4.001892 4.000721 3.995555 3.986263 3.972741 3.954916 3.932742 3.906202 3.875308 3.840100 3.800643 3.757027 3.709365 3.657791 3.602457 3.543533 3.481205 3.415669 3.347134 3.275816 3.201940 3.125733 3.047426 2.967251 2.885440 2.802223 2.717827 2.632473 2.546380 2.459759 2.372825 2.285796 2.198904 2.112395 2.026536 1.941613 1.857933 1.775823 1.695625 1.617697 1.542401 1.470099 1.401155 1.335923 1.274747 1.217950 1.165837 1.118684 1.076741 1.040222 1.009312 0.984159 0.964875 0.951536 0.944181 0.942816 0.947412 0.957906 0.974206 0.996189 1.023709 1.056591 1.094641 1.137647 1.185376 1.237584 1.294015 1.354402 1.418474 1.485950 1.556553 1.629999 1.706009 1.784304 1.864613 1.946666 2.030203 2.114971 2.200724 2.287228 2.374257 2.461599 2.549048 2.636413 2.723514 2.810182 2.896259 2.981599 3.066068 3.149540 3.231895 3.313008 3.392748 3.470970 3.547508 3.622177 3.694769 3.765055 3.832786 3.897696 3.959507 4.017940 4.072708 4.123529 4.170127 4.212240 4.249624 4.282066 4.309387 4.331459 4.348207 4.359613 4.365726 4.366653 4.362566 4.353693 4.340320 4.322776 4.301428 4.276681 4.248964 4.218727 4.186429 4.152534 4.117503 4.081791 4.045835 4.010057 3.974855 3.940602 3.907640 3.876285 3.846815 3.819481 3.794498 3.772048 3.752281 3.735315 3.721238 3.710110 3.701960 3.696797 3.694601 3.695333 3.698935 3.705330 3.714426 3.726118 3.740287 3.756809 3.775547 3.796361 3.819105 3.843631 3.869789 3.897427 3.926396 3.956547 3.987735 4.019816 4.052653 4.086111 4.120064 4.154388 4.188966 4.223689 4.258449 4.293142 4.327655 4.361865 4.395629 4.428785 4.461144 4.492497 4.522608 4.551221 4.578060 4.602837 4.625261 4.645034 4.661857 4.675442 4.685512 4.691811 4.694112 4.692231 4.686031 4.675432 4.660414 4.641019 4.617352 4.589578 4.557922 4.522661 4.484110 4.442627 4.398603 4.352453 4.304607 4.255507 4.205596 4.155312 4.105087 4.055335 4.006453 3.958814 3.912765 3.868626 3.826684 3.787197 3.750389 3.716453 3.685548 3.657803 3.633315 3.612152 3.594355 3.579936 3.568884 3.561167 3.556730 3.555499 3.557385 3.562283 3.570077 3.580637 3.593827 3.609503 3.627514 3.647706 3.669924 3.694007 3.719800 3.747143 3.775883 3.805866 3.836945 3.868974 3.901814 3.935331 3.969396 4.003888 4.038690 4.073687 4.108766 4.143800 4.178652 4.213163 4.247153 4.280418 4.312727 4.343829 4.373454 4.401309 4.427100 4.450525 4.471276 4.489053 4.503563 4.514528 4.521696 4.524847 4.523802 4.518437 4.508683 4.494533 4.476043 4.453331 4.426577 4.396019 4.361940 4.324668 4.284569 4.242041 4.197502 4.151387 4.104138 4.056198 4.008004 3.959984 3.912547 3.866086 3.820967 3.777530 3.736086 3.696916 3.660267 3.626356 3.595365 3.567446 3.542718 3.521269 3.503159 3.488420 3.477058 3.469053 3.464367 3.462936 3.464683 3.469512 3.477313 3.487964 3.501334 3.517281 3.535658 3.556312 3.579086 3.603823 3.630361 3.658543 3.688210 3.719206 3.751378 3.784578 3.818663 3.853492 3.888932 3.924856 3.961142 3.997675 4.034340 4.071022 4.107594 4.143913 4.179818 4.215123 4.249618 4.283072 4.315228 4.345810 4.374528 4.401086 4.425180 4.446505 4.464761 4.479659 4.490924 4.498302 4.501559 4.500489 4.494914 4.484685 4.469687 4.449837 4.425082 4.395406 4.360822 4.321374 4.277136 4.228209 4.174721 4.116822 4.054685 3.988501 3.918478 3.844839 3.767819 3.687661 3.604617 3.518944 3.430902 3.340753 3.248758 3.155175 3.060260 2.964264 2.867433 2.770011 2.672248 2.574398 2.476727 2.379512 2.283047 2.187636 2.093596 2.001254 1.910945 1.823011 1.737782 1.655586 1.576745 1.501566 1.430339 1.363333 1.300795 1.242944 1.189972 1.142041 1.099284 1.061799 1.029657 1.002897 0.981527 0.965526 0.954845 0.949411 0.949122 0.953858 0.963476 0.977815 0.996696 1.019928 1.047308 1.078619 1.113642 1.152146 1.193900 1.238668 1.286214 1.336302 1.388699 1.443175 1.499503 1.557464 1.616842 1.677431 1.739030 1.801449 1.864504 1.928021 1.991837 2.055795 2.119750 2.183565 2.247114 2.310278 2.372947 2.435014 2.496373 2.556907 2.616492 2.674986 2.732233 2.788057 2.842268 2.894658 2.945009 2.993086 3.038659 3.081494 3.121358 3.158023 3.191273 3.220910 3.246763 3.268692 3.286600 3.300433 3.310188 3.315910 3.317696 3.315689 3.310077 3.301092 3.289004 3.274101 3.256703 3.237148 3.215787 3.192976 3.169074 3.144436 3.119408 3.094325 3.069505 3.045249 3.021837 2.999524 2.978542 2.959100 2.941378 2.925531 2.911691 2.899962 2.890424 2.883137 2.878134 2.875432 2.875026 2.876893 2.880996 2.887283 2.895686 2.906130 2.918526 2.932780 2.948790 2.966448 2.985641 3.006255 3.028173 3.051276 3.075447 3.100570 3.126528 3.153209 3.180502 3.208303 3.236507 3.265017 3.293739 3.322583 3.351466 3.380305 3.409012 3.437495 3.465648 3.493346 3.520450 3.546798 3.572211 3.596491 3.619423 3.640784 3.660334 3.677840 3.693064 3.705772 3.715737 3.722748 3.726608 3.727153 3.724248 3.717803 3.707773 3.694162 3.677025 3.656465 3.632636 3.605734 3.575998 3.543703 3.509143 3.472646 3.434552 3.395216 3.354996 3.314253 3.273341 3.232607 3.192383 3.152984 3.114707 3.077827 3.042594 3.009235 2.977948 2.948908 2.922262 2.898130 2.876609 2.857768 2.841655 2.828295 2.817692 2.809830 2.804675 2.802177 2.802273 2.804883 2.809920 2.817284 2.826868 2.838558 2.852234 2.867774 2.885049 2.903932 2.924294 2.946006 2.968940 2.992970 3.017972 3.043828 3.070419 3.097635 3.125366 3.153509 3.181967 3.210647 3.239455 3.268298 3.297074 3.325668 3.353950 3.381770 3.408962 3.435336 3.460690 3.484802 3.507439 3.528358 3.547320 3.564080 3.578399 3.590045 3.598799 3.604463 3.606868 3.605880 3.601407 3.593405 3.581878 3.566881 3.548519 3.526944 3.502354 3.474988 3.445115 3.413030 3.379057 3.343532 3.306806 3.269233 3.231166 3.192956 3.154940 3.117446 3.080783 3.045239 3.011083 2.978560 2.947887 2.919260 2.892845 2.868784 2.847192 2.828161 2.811757 2.798023 2.786980 2.778628 2.772951 2.769911 2.769458 2.771525 2.776033 2.782894 2.792007 2.803267 2.816558 2.831763 2.848759 2.867419 2.887618 2.909227 2.932119 2.956169 2.981252 3.007246 3.034035 3.061503 3.089540 3.118041 3.146904 3.176034 3.205339 3.234727 3.264105 3.293369 3.322403 3.351073 3.379228 3.406697 3.433289 3.458798 3.483000 3.505661 3.526540 3.545395 3.561984 3.576069 3.587420 3.595822 3.601073 3.602991 3.601415 3.596208 3.587256 3.574472 3.557795 3.537189 3.512645 3.484178 3.451830 3.415663 3.375763 3.332237 3.285207 3.234817 3.181220 3.124587 3.065098 3.002941 2.938314 2.871420 2.802463 2.731653 2.659199 2.585310 2.510192 2.434048 2.357079 2.279484 2.201461 2.123223 2.044990 1.967005 1.889531 1.812850 1.737269 1.663114 1.590725 1.520458 1.452679 1.387747 1.326025 1.267865 1.213608 1.163577 1.118072 1.077368 1.041709 1.011310 0.986349 0.966973 0.953290 0.945373 0.943259 0.946952 0.956419 0.971597 0.992392 1.018682 1.050317 1.087126 1.128914 1.175469 1.226561 1.281947 1.341374 1.404578 1.471289 1.541232 1.614131 1.689708 1.767688 1.847796 1.929764 2.013330 2.098235 2.184234 2.271084 2.358558 2.446433 2.534503 2.622567 2.710439 2.797943 2.884916 2.971204 3.056666 3.141173 3.224601 3.306832 3.387745 3.467207 3.545070 3.621167 3.695311 3.767291 3.836876 3.903815 3.967843 4.028679 4.086045 4.139656 4.189234 4.234505 4.275213 4.311123 4.342030 4.367771 4.388234 4.403362 4.413158 4.417689 4.417083 4.411531 4.401277 4.386622 4.367907 4.345511 4.319844 4.291343 4.260457 4.227646 4.193373 4.158094 4.122255 4.086289 4.050607 4.015597 3.981621 3.949012 3.918070 3.889066 3.862236 3.837784 3.815882 3.796668 3.780251 3.766710 3.756094 3.748428 3.743710 3.741916 3.743002 3.746904 3.753541 3.762819 3.774630 3.788855 3.805366 3.824029 3.844702 3.867241 3.891498 3.917325 3.944572 3.973093 4.002740 4.033372 4.064848 4.097033 4.129798 4.163017 4.196571 4.230346 4.264236 4.298135 4.331937 4.365526 4.398772 4.431526 4.463615 4.494842 4.524988 4.553809 4.581040 4.606401 4.629600 4.650344 4.668332 4.683271 4.694876 4.702875 4.707021 4.707101 4.702944 4.694429 4.681494 4.664137 4.642419 4.616464 4.586455 4.552631 4.515286 4.474752 4.431397 4.385622 4.337850 4.288518 4.238071 4.186955 4.135612 4.084469 4.033942 3.984422 3.936279 3.889854 3.845462 3.803383 3.763867 3.727131 3.693361 3.662707 3.635291 3.611201 3.590498 3.573214 3.559355 3.548905 3.541821 3.538044 3.537494 3.540076 3.545681 3.554186 3.565459 3.579359 3.595738 3.614443 3.635318 3.658203 3.682937 3.709362 3.737319 3.766651 3.797205 3.828832 3.861386 3.894729 3.928725 3.963248 3.998173 4.033386 4.068772 4.104212 4.139580 4.174733 4.209508 4.243719 4.277155 4.309583 4.340747 4.370372 4.398165 4.423826 4.447053 4.467539 4.484985 4.499102 4.509614 4.516276 4.518875 4.517242 4.511265 4.500886 4.486110 4.467007 4.443708 4.416403 4.385336 4.350809 4.313153 4.272743 4.229980 4.185287 4.139100 4.091862 4.044016 3.995998 3.948231 3.901123 3.855061 3.810407 3.767494 3.726629 3.688084 3.652103 3.618893 3.588633 3.561466 3.537506 3.516835 3.499508 3.485551 3.474965 3.467726 3.463790 3.463093 3.465551 3.471067 3.479528 3.490810 3.504779 3.521294 3.540204 3.561358 3.584597 3.609763 3.636696 3.665237 3.695230 3.726517 3.758949 3.792376 3.826656 3.861651 3.897229 3.933263 3.969634 4.006226 4.042926 4.079616 4.116166 4.152431 4.188244 4.223415 4.257731 4.290953 4.322823 4.353063 4.381378 4.407468 4.431032 4.451764 4.469368 4.483556 4.494058 4.500622 4.503021 4.501054 4.494548 4.483363 4.467388 4.446546 4.420795 4.390120 4.354544 4.314115 4.268914 4.219047 4.164646 4.105868 4.042887 3.975900 3.905116 3.830763 3.753076 3.672300 3.588690 3.502503 3.413999 3.323440 3.231086 3.137197 3.042026 2.945823 2.848831 2.751291 2.653445 2.555538 2.457827 2.360576 2.264068 2.168594 2.074461 1.981985 1.891494 1.803319 1.717786 1.635219 1.555939 1.480251 1.408448 1.340801 1.277561 1.218954 1.165176 1.116399 1.072761 1.034371 1.001307 0.973617 0.951318 0.934397 0.922814 0.916502 0.915369 0.919299 0.928156 0.941784 0.960010 0.982647 1.009495 1.040340 1.074965 1.113141 1.154637 1.199219 1.246649 1.296692 1.349113 1.403681 1.460167 1.518350 1.578011 1.638941 1.700938 1.763807 1.827362 1.891426 1.955831 2.020419 2.085039 2.149553 2.213830 2.277748 2.341196 2.404067 2.466254 2.527645 2.588122 2.647549 2.705778 2.762639 2.817950 2.871509 2.923103 2.972499 3.019473 3.063789 3.105212 3.143514 3.178471 3.209879 3.237552 3.261335 3.281109 3.296799 3.308375 3.315860 3.319325 3.318891 3.314725 3.307042 3.296090 3.282150 3.265531 3.246564 3.225598 3.202990 3.179100 3.154289 3.128912 3.103313 3.077821 3.052749 3.028392 3.005019 2.982877 2.962190 2.943153 2.925937 2.910687 2.897522 2.886536 2.877799 2.871360 2.867243 2.865454 2.865980 2.868791 2.873842 2.881072 2.890408 2.901770 2.915063 2.930189 2.947042 2.965509 2.985477 3.006829 3.029444 3.053205 3.077992 3.103688 3.130178 3.157348 3.185090 3.213298 3.241869 3.270708 3.299720 3.328819 3.357921 3.386942 3.415792 3.444373 3.472572 3.500259 3.527285 3.553481 3.578660 3.602616 3.625131 3.645971 3.664906 3.681697 3.696107 3.707904 3.716867 3.722789 3.725483 3.724793 3.720599 3.712824 3.701437 3.686459 3.667958 3.646055 3.620915 3.592754 3.561819 3.528389 3.492776 3.455313 3.416347 3.376238 3.335348 3.294038 3.252665 3.211573 3.171092 3.131538 3.093201 3.056352 3.021238 2.988079 2.957068 2.928373 2.902136 2.878470 2.857466 2.839187 2.823674 2.810948 2.801005 2.793825 2.789368 2.787581 2.788394 2.791725 2.797481 2.805560 2.815852 2.828239 2.842600 2.858808 2.876735 2.896251 2.917226 2.939530 2.963033 2.987610 3.013136 3.039492 3.066560 3.094228 3.122388 3.150938 3.179779 3.208819 3.237965 3.267120 3.296181 3.325030 3.353531 3.381533 3.408862 3.435329 3.460724 3.484822 3.507389 3.528187 3.546972 3.563500 3.577531 3.588838 3.597204 3.602436 3.604373 3.602889 3.597900 3.589372 3.577320 3.561808 3.542953 3.520915 3.495905 3.468162 3.437961 3.405606 3.371423 3.335754 3.298949 3.261363 3.223349 3.185255 3.147419 3.110163 3.073793 3.038595 3.004831 2.972741 2.942540 2.914416 2.888531 2.865022 2.843999 2.825549 2.809733 2.796590 2.786136 2.778370 2.773269 2.770794 2.770890 2.773490 2.778511 2.785863 2.795445 2.807148 2.820858 2.836454 2.853814 2.872812 2.893320 2.915212 2.938359 2.962637 2.987922 3.014094 3.041034 3.068630 3.096771 3.125355 3.154280 3.183451 3.212777 3.242168 3.271527 3.300749 3.329715 3.358287 3.386310 3.413609 3.439990 3.465244 3.489141 3.511448 3.531927 3.550334 3.566425 3.579966 3.590727 3.598497 3.603077 3.604290 3.601980 3.596013 3.586281 3.572703 3.555222 3.533807 3.508456 3.479188 3.446049 3.409107 3.368452 3.324193 3.276458 3.225391 3.171152 3.113912 3.053852 2.991164 2.926046 2.858701 2.789336 2.718159 2.645381 2.571209 2.495849 2.419504 2.342374 2.264656 2.186551 2.108266 2.030023 1.952058 1.874625 1.797997 1.722464 1.648334 1.575926 1.505572 1.437605 1.372356 1.310156 1.251326 1.196171 1.144984 1.098031 1.055556 1.017777 0.984881 0.957025 0.934332 0.916896 0.904776 0.897998 0.896560 0.900428 0.909538 0.923800 0.943099 0.967298 0.996235 1.029734 1.067600 1.109622 1.155582 1.205246 1.258378 1.314733 1.374063 1.436119 1.500650 1.567408 1.636148 1.706628 1.778611 1.851869 1.926178 2.001323 2.077098 2.153307 2.229762 2.306285 2.382710 2.458878 2.534644 2.609869 2.684429 2.758205 2.831089 2.902970 2.973737 3.043268 3.111424 3.178053 3.242980 3.306012 3.366937 3.425529 3.481544 3.534733 3.584844 3.631625 3.674824 3.714201 3.749530 3.780607 3.807263 3.829367 3.846836 3.859637 3.867796 3.871390 3.870555 3.865475 3.856384 3.843565 3.827325 3.808009 3.785986 3.761643 3.735376 3.707589 3.678683 3.649053 3.619084 3.589144 3.559585 3.530734 3.502895 3.476347 3.451340 3.428096 3.406809 3.387643 3.370734 3.356193 3.344101 3.334515 3.327469 3.322973 3.321016 3.321570 3.324588 3.330007 3.337752 3.347735 3.359856 3.374010 3.390081 3.407949 3.427491 3.448579 3.471085 3.494877 3.519829 3.545810 3.572697 3.600365 3.628694 3.657571 3.686882 3.716522 3.746389 3.776388 3.806427 3.836412 3.866246 3.895820 3.925010 3.953672 3.981640 4.008727 4.034725 4.059408 4.082534 4.103842 4.123075 4.139968 4.154259 4.165689 4.174013 4.179003 4.180458 4.178215 4.172150 4.162193 4.148326 4.130586 4.109066 4.083912 4.055323 4.023540 3.988854 3.951578 3.912057 3.870661 3.827771 3.783778 3.739077 3.694057 3.649100 3.604574 3.560833 3.518205 3.477002 3.437504 3.399969 3.364624 3.331668 3.301273 3.273580 3.248703 3.226728 3.207716 3.191702 3.178697 3.168692 3.161658 3.157544 3.156287 3.157807 3.162010 3.168792 3.178039 3.189630 3.203436 3.219323 3.237155 3.256793 3.278094 3.300920 3.325131 3.350587 3.377155 3.404700 3.433097 3.462219 3.491948 3.522170 3.552775 3.583661 3.614726 3.645867 3.676973 3.707922 3.738573 3.768765 3.798316 3.827023 3.854661 3.880990 3.905756 3.928688 3.949519 3.967978 3.983797 3.996717 4.006493 4.012903 4.015756 4.014904 4.010242 4.001722 3.989348 3.973179 3.953332 3.929973 3.903319 3.873629 3.841205 3.806369 3.769473 3.730887 3.690994 3.650180 3.608833 3.567333 3.526050 3.485340 3.445539 3.406962 3.369900 3.334619 3.301357 3.270324 3.241701 3.215642 3.192271 3.171687 3.153959 3.139136 3.127239 3.118267 3.112201 3.109000 3.108608 3.110952 3.115947 3.123493 3.133484 3.145802 3.160323 3.176918 3.195453 3.215791 3.237794 3.261325 3.286243 3.312413 3.339699 3.367970 3.397098 3.426958 3.457431 3.488402 3.519761 3.551405 3.583234 3.615146 3.647037 3.678790 3.710274 3.741337 3.771806 3.801488 3.830167 3.857612 3.883571 3.907786 3.929983 3.949894 3.967252 3.981793 3.993266 4.001432 4.006072 4.006989 4.004009 3.996984 3.985793 3.970345 3.950577 3.926455 3.897975 3.865158 3.828055 3.786741 3.741316 3.691900 3.638636 3.581683 3.521218 3.457429 3.390520 3.320702 3.248194 3.173222 3.096016 3.016807 2.935827 2.853307 2.769476 2.684559 2.598776 2.512345 2.425482 2.338413 2.251374 2.164616 2.078411 1.993052 1.908851 1.826142 1.745272 1.666602 1.590503 1.517347 1.447500 1.381321 1.319158 1.261342 1.208181 1.159955 1.116919 1.079292 1.047263 1.020982 1.000565 0.986092 0.977605 0.975112 0.978586 0.987968 1.003167 1.024062 1.050508 1.082333 1.119343 1.161327 1.208054 1.259280 1.314750 1.374198 1.437352 1.503933 1.573663 1.646259 1.721441 1.798932 1.878459 1.959752 2.042552 2.126604 2.211664 2.297495 2.383874 2.470584 2.557423 2.644198 2.730729 2.816844 2.902388 2.987213 3.071185 3.154177 3.236068 3.316734 3.396044 3.473850 3.549988 3.624272 3.696493 3.766422 3.833811 3.898393 3.959892 4.018020 4.072496 4.123037 4.169367 4.211223 4.248366 4.280583 4.307707 4.329616 4.346246 4.357593 4.363716 4.364734 4.360830 4.352242 4.339258 4.322221 4.301497 4.277493 4.250636 4.221373 4.190158 4.157448 4.123696 4.089347 4.054827 4.020548 3.986894 3.954225 3.922874 3.893141 3.865294 3.839572 3.816177 3.795282 3.777026 3.761519 3.748840 3.739042 3.732148 3.728160 3.727054 3.728789 3.733302 3.740514 3.750333 3.762652 3.777354 3.794313 3.813396 3.834464 3.857374 3.881980 3.908134 3.935689 3.964499 3.994419 4.025308 4.057026 4.089440 4.122422 4.155845 4.189594 4.223554 4.257619 4.291685 4.325646 4.359388 4.392780 4.425673 4.457897 4.489253 4.519523 4.548463 4.575809 4.601284 4.624590 4.645436 4.663524 4.678559 4.690257 4.698346 4.702583 4.702756 4.698699 4.690297 4.677492 4.660290 4.638757 4.613024 4.583278 4.549764 4.512776 4.472652 4.429761 4.384502 4.337297 4.288583 4.238802 4.188395 4.137799 4.087439 4.037722 3.989036 3.941743 3.896181 3.852655 3.811441 3.772783 3.736894 3.703951 3.674102 3.647463 3.624119 3.604126 3.587513 3.574284 3.564419 3.557876 3.554591 3.554485 3.557461 3.563411 3.572212 3.583731 3.597829 3.614359 3.633169 3.654103 3.677004 3.701713 3.728073 3.755926 3.785120 3.815501 3.846925 3.879246 3.912329 3.946042 3.980257 4.014856 4.049722 4.084743 4.119800 4.154763 4.189487 4.223804 4.257524 4.290432 4.322290 4.352839 4.381800 4.408879 4.433772 4.456177 4.475791 4.492313 4.505458 4.514956 4.520566 4.522083 4.519350 4.512264 4.500780 4.484916 4.464754 4.440435 4.412163 4.380192 4.344833 4.306424 4.265344 4.222001 4.176821 4.130241 4.082705 4.034654 3.986522 3.938731 3.891682 3.845759 3.801317 3.758686 3.718163 3.680017 3.644482 3.611763 3.582027 3.555415 3.532031 3.511955 3.495233 3.481886 3.471912 3.465281 3.461945 3.461835 3.464866 3.470936 3.479930 3.491722 3.506177 3.523150 3.542491 3.564047 3.587659 3.613169 3.640416 3.669243 3.699491 3.731006 3.763637 3.797237 3.831664 3.866781 3.902457 3.938567 3.974991 4.011616 4.048327 4.085005 4.121517 4.157714 4.193424 4.228453 4.262582 4.295568 4.327149 4.357044 4.384954 4.410580 4.433620 4.453769 4.470732 4.484224 4.493979 4.499749 4.501313 4.498474 4.491067 4.478955 4.462037 4.440241 4.413530 4.381898 4.345372 4.304008 4.257890 4.207132 4.151869 4.092262 4.028491 3.960754 3.889265 3.814252 3.735954 3.654618 3.570498 3.483853 3.394943 3.304031 3.211375 3.117235 3.021863 2.925508 2.828415 2.730826 2.632990 2.535162 2.437607 2.340605 2.244447 2.149439 2.055900 1.964154 1.874535 1.787383 1.703024 1.621785 1.543981 1.469915 1.399872 1.334113 1.272878 1.216381 1.164804 1.118303 1.077002 1.040994 1.010341 0.985074 0.965195 0.950676 0.941462 0.937473 0.938604 0.944728 0.955697 0.971347 0.991497 1.015951 1.044503 1.076937 1.113028 1.152548 1.195262 1.240936 1.289332 1.340215 1.393353 1.448516 1.505479 1.564023 1.623934 1.685007 1.747045 1.809857 1.873262 1.937088 2.001174 2.065365 2.129518 2.193498 2.257180 2.320449 2.383195 2.445312 2.506692 2.567217 2.626760 2.685177 2.742307 2.797973 2.851979 2.904117 2.954165 3.001888 3.047056 3.089433 3.128789 3.164896 3.197542 3.226530 3.251686 3.272870 3.289982 3.302963 3.311805 3.316550 3.317290 3.314165 3.307361 3.297111 3.283680 3.267362 3.248481 3.227378 3.204411 3.179943 3.154342 3.127972 3.101188 3.074335 3.047743 3.021723 2.996563 2.972530 2.949867 2.928790 2.909488 2.892126 2.876841 2.863744 2.852922 2.844439 2.838332 2.834622 2.833305 2.834363 2.837756 2.843434 2.851330 2.861366 2.873453 2.887494 2.903384 2.921013 2.940265 2.961022 2.983163 3.006566 3.031109 3.056671 3.083131 3.110374 3.138284 3.166751 3.195667 3.224931 3.254443 3.284112 3.313849 3.343568 3.373185 3.402607 3.431733 3.460446 3.488610 3.516073 3.542660 3.568181 3.592428 3.615177 3.636195 3.655248 3.672100 3.686512 3.698255 3.707110 3.712872 3.715359 3.714419 3.709936 3.701838 3.690100 3.674747 3.655853 3.633545 3.607992 3.579417 3.548069 3.514234 3.478227 3.440384 3.401058 3.360610 3.319406 3.277810 3.236179 3.194861 3.154187 3.114471 3.076008 3.039067 3.003895 2.970711 2.939710 2.911058 2.884896 2.861336 2.840467 2.822352 2.807031 2.794520 2.784818 2.777900 2.773727 2.772242 2.773374 2.777039 2.783144 2.791584 2.802246 2.815013 2.829761 2.846362 2.864687 2.884605 2.905983 2.928690 2.952597 2.977576 3.003503 3.030255 3.057716 3.085772 3.114315 3.143241 3.172453 3.201856 3.231357 3.260861 3.290262 3.319442 3.348266 3.376582 3.404217 3.430980 3.456662 3.481038 3.503874 3.524933 3.543970 3.560740 3.575006 3.586538 3.595122 3.600564 3.602702 3.601411 3.596607 3.588257 3.576375 3.561028 3.542329 3.520440 3.495575 3.467969 3.437898 3.405668 3.371604 3.336049 3.299351 3.261868 3.223952 3.185951 3.148203 3.111031 3.074740 3.039617 3.005924 2.973902 2.943764 2.915699 2.889870 2.866413 2.845440 2.827036 2.811263 2.798160 2.787744 2.780012 2.774942 2.772496 2.772619 2.775243 2.780286 2.787658 2.797257 2.808975 2.822698 2.838306 2.855675 2.874680 2.895194 2.917089 2.940239 2.964518 2.989802 3.015971 3.042907 3.070498 3.098633 3.127209 3.156125 3.185286 3.214601 3.243980 3.273325 3.302533 3.331483 3.360039 3.388045 3.415327 3.441690 3.466924 3.490800 3.513087 3.533545 3.551930 3.568000 3.581518 3.592257 3.600003 3.604560 3.605749 3.603414 3.597423 3.587667 3.574064 3.556558 3.535119 3.509743 3.480450 3.447286 3.410319 3.369638 3.325354 3.277595 3.226503 3.172240 3.114974 3.054890 2.992178 2.927036 2.859667 2.790279 2.719079 2.646278 2.572083 2.496700 2.420333 2.343181 2.265440 2.187308 2.108990 2.030702 1.952676 1.875161 1.798424 1.722751 1.648443 1.575817 1.505202 1.436925 1.371319 1.308712 1.249427 1.193771 1.142038 1.094498 1.051399 1.012962 0.979379 0.950812 0.927390 0.909212 0.896342 0.888813 0.886627 0.889755 0.898139 0.911693 0.930306 0.953844 0.982152 1.015053 1.052357 1.093856 1.139331 1.188553 1.241285 1.297283 1.356301 1.418087 1.482393 1.548970 1.617571 1.687953 1.759880 1.833120 1.907449 1.982651 2.058518 2.134851 2.211460 2.288168 2.364803 2.441207 2.517232 2.592738 2.667597 2.741691 2.814908 2.887141 2.958278 3.028198 3.096770 3.163841 3.229242 3.292785 3.354261 3.413445 3.470095 3.523968 3.574812 3.622371 3.666395 3.706640 3.742876 3.774890 3.802498 3.825549 3.843937 3.857605 3.866549 3.870822 3.870530 3.865835 3.856952 3.844142 3.827702 3.807966 3.785299 3.760085 3.732725 3.703630 3.673210 3.641874 3.610022 3.578041 3.546301 3.515150 3.484915 3.455894 3.428361 3.402559 3.378703 3.356978 3.337539 3.320514 3.306003 3.294076 3.284783 3.278145 3.274163 3.272818 3.274070 3.277863 3.284127 3.292776 3.303715 3.316838 3.332029 3.349168 3.368129 3.388781 3.410991 3.434627 3.459552 3.485635 3.512744 3.540749 3.569524 3.598947 3.628900 3.659271 3.689950 3.720836 3.751831 3.782841 3.813771 3.844520 3.874976 3.905007 3.934466 3.963181 3.990960 4.017591 4.042843 4.066464 4.088203 4.107798 4.124983 4.139494 4.151077 4.159488 4.164502 4.165923 4.163591 4.157390 4.147253 4.133169 4.115181 4.093388 4.067943 4.039048 4.006957 3.971957 3.934369 3.894545 3.852857 3.809693 3.765446 3.720514 3.675289 3.630157 3.585486 3.541632 3.498926 3.457677 3.418169 3.380658 3.345372 3.312510 3.282242 3.254708 3.230022 3.208268 3.189506 3.173769 3.161067 3.151388 3.144702 3.140958 3.140088 3.142011 3.146632 3.153846 3.163535 3.175578 3.189843 3.206196 3.224497 3.244607 3.266383 3.289684 3.314367 3.340295 3.367329 3.395339 3.424192 3.453766 3.483940 3.514598 3.545632 3.576937 3.608412 3.639954 3.671451 3.702780 3.733800 3.764350 3.794249 3.823291 3.851255 3.877899 3.902963 3.926186 3.947298 3.966028 3.982107 3.995276 4.005288 4.011916 4.014959 4.014253 4.009678 4.001163 3.988691 3.972301 3.952088 3.928202 3.900844 3.870265 3.836748 3.800618 3.762225 3.721944 3.680163 3.637279 3.593694 3.549802 3.505993 3.462640 3.420102 3.378715 3.338792 3.300620 3.264460 3.230542 3.199070 3.170214 3.144120 3.120900 3.100643 3.083407 3.069228 3.058116 3.050059 3.045025 3.042964 3.043806 3.047469 3.053857 3.062861 3.074364 3.088240 3.104356 3.122575 3.142755 3.164754 3.188425 3.213626 3.240212 3.268040 3.296973 3.326874 3.357610 3.389056 3.421089 3.453591 3.486450 3.519562 3.552823 3.586131 3.619376 3.652437 3.685177 3.717439 3.749046 3.779798 3.809475 3.837841 3.864638 3.889608 3.912481 3.932987 3.950858 3.965831 3.977658 3.986105 3.990956 3.992019 3.989126 3.982134 3.970930 3.955427 3.935569 3.911329 3.882707 3.849734 3.812463 3.770977 3.725380 3.675796 3.622374 3.565276 3.504682 3.440784 3.373788 3.303908 3.231365 3.156386 3.079200 3.000041 2.919142 2.836732 2.753040 2.668292 2.582705 2.496495 2.409866 2.323017 2.236139 2.149412 2.063009 1.977092 1.891813 1.807315 1.723732 1.641189 1.559795 1.479651 