-61.14143696215435852537 -66.22756916615011846261 -66.22756916615011846261 -66.22756916615011846261 -63.68450306415223138856 -63.68450306415223138856 -63.68450306415223138856 -61.14143696215435852537 -56.05530475815859148270 -58.59837086015647855675 -53.51223865616071151408 -58.59837086015647855675 -58.59837086015647855675 -58.59837086015647855675 -58.59837086015647855675 -56.05530475815859148270 -56.05530475815859148270 -48.42610645216495868226 -50.96917255416283154545 -58.59837086015647855675 -58.59837086015647855675 -63.68450306415223138856 -48.42610645216495868226 -61.14143696215435852537 -48.42610645216495868226 -50.96917255416283154545 -58.59837086015647855675 -61.14143696215435852537 -63.68450306415223138856 -50.96917255416283154545 -53.51223865616071151408 -53.51223865616071151408 -56.05530475815859148270 -53.51223865616071151408 -53.51223865616071151408 -50.96917255416283154545 -50.96917255416283154545 -56.05530475815859148270 -61.14143696215435852537 -58.59837086015647855675 -58.59837086015647855675 -56.05530475815859148270 -58.59837086015647855675 -58.59837086015647855675 -53.51223865616071151408 -56.05530475815859148270 -56.05530475815859148270 -56.05530475815859148270 -66.22756916615011846261 -56.05530475815859148270 -50.96917255416283154545 -56.05530475815859148270 -48.42610645216495868226 -56.05530475815859148270 -53.51223865616071151408 -61.14143696215435852537 -53.51223865616071151408 -61.14143696215435852537 -53.51223865616071151408 -58.59837086015647855675 -48.42610645216495868226 -50.96917255416283154545 -61.14143696215435852537 -61.14143696215435852537 -56.05530475815859148270 -58.59837086015647855675 -56.05530475815859148270 -56.05530475815859148270 -56.05530475815859148270 -50.96917255416283154545 -58.59837086015647855675 -56.05530475815859148270 -50.96917255416283154545 -56.05530475815859148270 -58.59837086015647855675 -56.05530475815859148270 -50.96917255416283154545 -56.05530475815859148270 -53.51223865616071151408 -61.14143696215435852537 -61.14143696215435852537 -58.59837086015647855675 -61.14143696215435852537 -50.96917255416283154545 -63.68450306415223138856 -61.14143696215435852537 -58.59837086015647855675 -56.05530475815859148270 -63.68450306415223138856 -63.68450306415223138856 -63.68450306415223138856 -56.05530475815859148270 -45.88304035016707160821 -58.59837086015647855675 -58.59837086015647855675 -56.05530475815859148270 -58.59837086015647855675 -45.88304035016707160821 -53.51223865616071151408 -58.59837086015647855675 -63.68450306415223138856 -53.51223865616071151408 -50.96917255416283154545 -48.42610645216495868226 -48.42610645216495868226 -53.51223865616071151408 -48.42610645216495868226 -50.96917255416283154545 -58.59837086015647855675 -63.68450306415223138856 -56.05530475815859148270 -61.14143696215435852537 -50.96917255416283154545 -56.05530475815859148270 -48.42610645216495868226 -50.96917255416283154545 -53.51223865616071151408 -50.96917255416283154545 -58.59837086015647855675 -58.59837086015647855675 -50.96917255416283154545 -48.42610645216495868226 -50.96917255416283154545 -50.96917255416283154545 -58.59837086015647855675 -58.59837086015647855675 -56.05530475815859148270 -68.77063526814799843123 -53.51223865616071151408 -53.51223865616071151408 -61.14143696215435852537 -56.05530475815859148270 -48.42610645216495868226 -56.05530475815859148270 -53.51223865616071151408 -58.59837086015647855675 -50.96917255416283154545 -56.05530475815859148270 -66.22756916615011846261 -58.59837086015647855675 -53.51223865616071151408 -63.68450306415223138856 -53.51223865616071151408 -50.96917255416283154545 -61.14143696215435852537 -56.05530475815859148270 -58.59837086015647855675 -56.05530475815859148270 -53.51223865616071151408 -48.42610645216495868226 -58.59837086015647855675 -58.59837086015647855675 -66.22756916615011846261 -66.22756916615011846261 -63.68450306415223138856 -63.68450306415223138856 -63.68450306415223138856 -63.68450306415223138856 -68.77063526814799843123 -66.22756916615011846261 -71.31370137014587839985 -66.22756916615011846261 -68.77063526814799843123 -63.68450306415223138856 -71.31370137014587839985 -63.68450306415223138856 -63.68450306415223138856 -61.14143696215435852537 -66.22756916615011846261 -66.22756916615011846261 -66.22756916615011846261 -66.22756916615011846261 -63.68450306415223138856 -61.14143696215435852537 -61.14143696215435852537 -53.51223865616071151408 -63.68450306415223138856 -73.85676747214375836847 -61.14143696215435852537 -61.14143696215435852537 -58.59837086015647855675 -61.14143696215435852537 -66.22756916615011846261 -66.22756916615011846261 -56.05530475815859148270 -53.51223865616071151408 -56.05530475815859148270 -50.96917255416283154545 -53.51223865616071151408 -56.05530475815859148270 -45.88304035016707160821 -50.96917255416283154545 -53.51223865616071151408 -56.05530475815859148270 -53.51223865616071151408 -58.59837086015647855675 -63.68450306415223138856 -58.59837086015647855675 -45.88304035016707160821 -45.88304035016707160821 -53.51223865616071151408 -50.96917255416283154545 -43.33997424816919163959 -53.51223865616071151408 -48.42610645216495868226 -53.51223865616071151408 -48.42610645216495868226 -56.05530475815859148270 -56.05530475815859148270 -53.51223865616071151408 -50.96917255416283154545 -56.05530475815859148270 -56.05530475815859148270 -58.59837086015647855675 -50.96917255416283154545 -48.42610645216495868226 -45.88304035016707160821 -56.05530475815859148270 -53.51223865616071151408 -45.88304035016707160821 -56.05530475815859148270 -53.51223865616071151408 -50.96917255416283154545 -56.05530475815859148270 -56.05530475815859148270 -56.05530475815859148270 -48.42610645216495868226 -48.42610645216495868226 -50.96917255416283154545 -53.51223865616071151408 -50.96917255416283154545 -53.51223865616071151408 -45.88304035016707160821 -50.96917255416283154545 -53.51223865616071151408 -58.59837086015647855675 -50.96917255416283154545 -45.88304035016707160821 -50.96917255416283154545 -53.51223865616071151408 -53.51223865616071151408 -48.42610645216495868226 -58.59837086015647855675 -53.51223865616071151408 -53.51223865616071151408 -56.05530475815859148270 -53.51223865616071151408 -56.05530475815859148270 -56.05530475815859148270 -50.96917255416283154545 -61.14143696215435852537 -48.42610645216495868226 -56.05530475815859148270 -53.51223865616071151408 -58.59837086015647855675 -58.59837086015647855675 -56.05530475815859148270 -53.51223865616071151408 -58.59837086015647855675 -53.51223865616071151408 -56.05530475815859148270 -53.51223865616071151408 -63.68450306415223138856 -56.05530475815859148270 -50.96917255416283154545 -58.59837086015647855675 -53.51223865616071151408 -45.88304035016707160821 -56.05530475815859148270 -56.05530475815859148270 -48.42610645216495868226 -50.96917255416283154545 -56.05530475815859148270 -53.51223865616071151408 -53.51223865616071151408 -50.96917255416283154545 -53.51223865616071151408 -50.96917255416283154545 -58.59837086015647855675 -56.05530475815859148270 -50.96917255416283154545 -50.96917255416283154545 -56.05530475815859148270 -50.96917255416283154545 -48.42610645216495868226 -50.96917255416283154545 -43.33997424816919163959 -58.59837086015647855675 -53.51223865616071151408 -48.42610645216495868226 -53.51223865616071151408 -50.96917255416283154545 -48.42610645216495868226 -53.51223865616071151408 -53.51223865616071151408 -53.51223865616071151408 -53.51223865616071151408 -53.51223865616071151408 -50.96917255416283154545 -53.51223865616071151408 -50.96917255416283154545 -43.33997424816919163959 -56.05530475815859148270 -45.88304035016707160821 -58.59837086015647855675 -53.51223865616071151408 -48.42610645216495868226 -50.96917255416283154545 -43.33997424816919163959 -53.51223865616071151408 -53.51223865616071151408 -50.96917255416283154545 -50.96917255416283154545 -53.51223865616071151408 -61.14143696215435852537 -53.51223865616071151408 -58.59837086015647855675 -50.96917255416283154545 -50.96917255416283154545 -50.96917255416283154545 -53.51223865616071151408 -63.68450306415223138856 -61.14143696215435852537 -53.51223865616071151408 -53.51223865616071151408 -63.68450306415223138856 -58.59837086015647855675 -68.77063526814799843123 -73.85676747214375836847 -68.77063526814799843123 -58.59837086015647855675 -68.77063526814799843123 -63.68450306415223138856 -58.59837086015647855675 -58.59837086015647855675 -61.14143696215435852537 -61.14143696215435852537 -58.59837086015647855675 -66.22756916615011846261 -71.31370137014587839985 -61.14143696215435852537 -63.68450306415223138856 -68.77063526814799843123 -63.68450306415223138856 -66.22756916615011846261 -56.05530475815859148270 -68.77063526814799843123 -56.05530475815859148270 -61.14143696215435852537 -58.59837086015647855675 -66.22756916615011846261 -63.68450306415223138856 -63.68450306415223138856 -61.14143696215435852537 -63.68450306415223138856 -58.59837086015647855675 -50.96917255416283154545 -61.14143696215435852537 -66.22756916615011846261 -63.68450306415223138856 -56.05530475815859148270 -63.68450306415223138856 -58.59837086015647855675 -61.14143696215435852537 -61.14143696215435852537 -58.59837086015647855675 -58.59837086015647855675 -56.05530475815859148270 -61.14143696215435852537 -66.22756916615011846261 -61.14143696215435852537 -63.68450306415223138856 -53.51223865616071151408 -61.14143696215435852537 -56.05530475815859148270 -63.68450306415223138856 -61.14143696215435852537 -68.77063526814799843123 -63.68450306415223138856 -66.22756916615011846261 -66.22756916615011846261 -61.14143696215435852537 -63.68450306415223138856 -71.31370137014587839985 -71.31370137014587839985 -66.22756916615011846261 -73.85676747214375836847 -68.77063526814799843123 -76.39983357414163833710 -71.31370137014587839985 -61.14143696215435852537 -68.77063526814799843123 -63.68450306415223138856 -73.85676747214375836847 -66.22756916615011846261 -66.22756916615011846261 -61.14143696215435852537 -66.22756916615011846261 -73.85676747214375836847 -78.94289967613951830572 -78.94289967613951830572 -73.85676747214375836847 -66.22756916615011846261 -73.85676747214375836847 -76.39983357414163833710 -73.85676747214375836847 -76.39983357414163833710 -66.22756916615011846261 -76.39983357414163833710 -76.39983357414163833710 -71.31370137014587839985 -68.77063526814799843123 -76.39983357414163833710 -68.77063526814799843123 -66.22756916615011846261 -66.22756916615011846261 -66.22756916615011846261 -73.85676747214375836847 -63.68450306415223138856 -63.68450306415223138856 -66.22756916615011846261 -66.22756916615011846261 -66.22756916615011846261 -66.22756916615011846261 -58.59837086015647855675 -66.22756916615011846261 -66.22756916615011846261 -63.68450306415223138856 -73.85676747214375836847 -68.77063526814799843123 -61.14143696215435852537 -56.05530475815859148270 -53.51223865616071151408 -68.77063526814799843123 -71.31370137014587839985 -68.77063526814799843123 -61.14143696215435852537 -63.68450306415223138856 -63.68450306415223138856 -63.68450306415223138856 -66.22756916615011846261 -63.68450306415223138856 -66.22756916615011846261 -58.59837086015647855675 -61.14143696215435852537 -66.22756916615011846261 -63.68450306415223138856 -66.22756916615011846261 -61.14143696215435852537 -53.51223865616071151408 -61.14143696215435852537 -61.14143696215435852537 -63.68450306415223138856 -56.05530475815859148270 -63.68450306415223138856 -66.22756916615011846261 -56.05530475815859148270 -63.68450306415223138856 -50.96917255416283154545 -63.68450306415223138856 -56.05530475815859148270 -56.05530475815859148270 -58.59837086015647855675 -56.05530475815859148270 -53.51223865616071151408 -58.59837086015647855675 -63.68450306415223138856 -61.14143696215435852537 -58.59837086015647855675 -61.14143696215435852537 -66.22756916615011846261 -68.77063526814799843123 -68.77063526814799843123 -63.68450306415223138856 -58.59837086015647855675 -66.22756916615011846261 -56.05530475815859148270 -61.14143696215435852537 -71.31370137014587839985 -50.96917255416283154545 -61.14143696215435852537 -58.59837086015647855675 -50.96917255416283154545 -56.05530475815859148270 -68.77063526814799843123 -63.68450306415223138856 -66.22756916615011846261 -58.59837086015647855675 -56.05530475815859148270 -73.85676747214375836847 -56.05530475815859148270 -66.22756916615011846261 -63.68450306415223138856 -58.59837086015647855675 -63.68450306415223138856 -66.22756916615011846261 -61.14143696215435852537 -66.22756916615011846261 -50.96917255416283154545 -61.14143696215435852537 -56.05530475815859148270 -61.14143696215435852537 -58.59837086015647855675 -56.05530475815859148270 -63.68450306415223138856 -63.68450306415223138856 -53.51223865616071151408 -61.14143696215435852537 -53.51223865616071151408 -58.59837086015647855675 -61.14143696215435852537 -61.14143696215435852537 -61.14143696215435852537 -66.22756916615011846261 -61.14143696215435852537 -58.59837086015647855675 -61.14143696215435852537 -58.59837086015647855675 -53.51223865616071151408 -56.05530475815859148270 -58.59837086015647855675 -68.77063526814799843123 -63.68450306415223138856 -71.31370137014587839985 -61.14143696215435852537 -58.59837086015647855675 -58.59837086015647855675 -66.22756916615011846261 -53.51223865616071151408 -53.51223865616071151408 -50.96917255416283154545 -56.05530475815859148270 -66.22756916615011846261 -61.14143696215435852537 -63.68450306415223138856 -66.22756916615011846261 -63.68450306415223138856 -61.14143696215435852537 -61.14143696215435852537 -63.68450306415223138856 -58.59837086015647855675 -58.59837086015647855675 -50.96917255416283154545 -50.96917255416283154545 -53.51223865616071151408 -61.14143696215435852537 -53.51223865616071151408 -56.05530475815859148270 -50.96917255416283154545 -56.05530475815859148270 -56.05530475815859148270 -56.05530475815859148270 -56.05530475815859148270 -53.51223865616071151408 -48.42610645216495868226 -58.59837086015647855675 -56.05530475815859148270 -56.05530475815859148270 -53.51223865616071151408 -50.96917255416283154545 -50.96917255416283154545 -58.59837086015647855675 -58.59837086015647855675 -66.22756916615011846261 -45.88304035016707160821 -56.05530475815859148270 -61.14143696215435852537 -61.14143696215435852537 -56.05530475815859148270 -45.88304035016707160821 -45.88304035016707160821 -68.77063526814799843123 -71.31370137014587839985 -63.68450306415223138856 -56.05530475815859148270 -66.22756916615011846261 -61.14143696215435852537 -66.22756916615011846261 -68.77063526814799843123 -50.96917255416283154545 -58.59837086015647855675 -58.59837086015647855675 -71.31370137014587839985 -63.68450306415223138856 -66.22756916615011846261 -61.14143696215435852537 -61.14143696215435852537 -58.59837086015647855675 -61.14143696215435852537 -61.14143696215435852537 -50.96917255416283154545 -61.14143696215435852537 -63.68450306415223138856 -61.14143696215435852537 -58.59837086015647855675 -50.96917255416283154545 -66.22756916615011846261 -58.59837086015647855675 -56.05530475815859148270 -58.59837086015647855675 -61.14143696215435852537 -68.77063526814799843123 -63.68450306415223138856 -56.05530475815859148270 -66.22756916615011846261 -56.05530475815859148270 -56.05530475815859148270 -66.22756916615011846261 -61.14143696215435852537 -61.14143696215435852537 -61.14143696215435852537 -63.68450306415223138856 -61.14143696215435852537 -56.05530475815859148270 -58.59837086015647855675 -58.59837086015647855675 -56.05530475815859148270 -61.14143696215435852537 -63.68450306415223138856 -58.59837086015647855675 -58.59837086015647855675 -50.96917255416283154545 -63.68450306415223138856 -61.14143696215435852537 -56.05530475815859148270 -71.31370137014587839985 -66.22756916615011846261 -73.85676747214375836847 -63.68450306415223138856 -61.14143696215435852537 -61.14143696215435852537 -61.14143696215435852537 -58.59837086015647855675 -61.14143696215435852537 -53.51223865616071151408 -66.22756916615011846261 -63.68450306415223138856 -61.14143696215435852537 -61.14143696215435852537 -66.22756916615011846261 -66.22756916615011846261 -68.77063526814799843123 -63.68450306415223138856 -63.68450306415223138856 -61.14143696215435852537 -66.22756916615011846261 -68.77063526814799843123 -68.77063526814799843123 -61.14143696215435852537 -61.14143696215435852537 -66.22756916615011846261 -66.22756916615011846261 -68.77063526814799843123 -58.59837086015647855675 -61.14143696215435852537 -63.68450306415223138856 -68.77063526814799843123 -61.14143696215435852537 -71.31370137014587839985 -68.77063526814799843123 -56.05530475815859148270 -63.68450306415223138856 -58.59837086015647855675 -63.68450306415223138856 -63.68450306415223138856 -63.68450306415223138856 -66.22756916615011846261 -61.14143696215435852537 -63.68450306415223138856 -68.77063526814799843123 -63.68450306415223138856 -61.14143696215435852537 -73.85676747214375836847 -58.59837086015647855675 -58.59837086015647855675 -63.68450306415223138856 -66.22756916615011846261 -63.68450306415223138856 -63.68450306415223138856 -66.22756916615011846261 -58.59837086015647855675 -61.14143696215435852537 -56.05530475815859148270 -66.22756916615011846261 -66.22756916615011846261 -66.22756916615011846261 -61.14143696215435852537 -61.14143696215435852537 -61.14143696215435852537 -61.14143696215435852537 -63.68450306415223138856 -63.68450306415223138856 -56.05530475815859148270 -58.59837086015647855675 -56.05530475815859148270 -56.05530475815859148270 -56.05530475815859148270 -50.96917255416283154545 -56.05530475815859148270 -53.51223865616071151408 -63.68450306415223138856 -61.14143696215435852537 -53.51223865616071151408 -53.51223865616071151408 -53.51223865616071151408 -53.51223865616071151408 -61.14143696215435852537 -56.05530475815859148270 -58.59837086015647855675 -61.14143696215435852537 -63.68450306415223138856 -61.14143696215435852537 -53.51223865616071151408 -48.42610645216495868226 -58.59837086015647855675 -58.59837086015647855675 -56.05530475815859148270 -58.59837086015647855675 -58.59837086015647855675 -56.05530475815859148270 -48.42610645216495868226 -45.88304035016707160821 -53.51223865616071151408 -53.51223865616071151408 -56.05530475815859148270 -56.05530475815859148270 -53.51223865616071151408 -58.59837086015647855675 -68.77063526814799843123 -53.51223865616071151408 -56.05530475815859148270 -53.51223865616071151408 -66.22756916615011846261 -56.05530475815859148270 -56.05530475815859148270 -50.96917255416283154545 -50.96917255416283154545 -56.05530475815859148270 -56.05530475815859148270 -58.59837086015647855675 -50.96917255416283154545 -48.42610645216495868226 -53.51223865616071151408 -48.42610645216495868226 -50.96917255416283154545 -53.51223865616071151408 -50.96917255416283154545 -61.14143696215435852537 -50.96917255416283154545 -50.96917255416283154545 -53.51223865616071151408 -53.51223865616071151408 -58.59837086015647855675 -50.96917255416283154545 -58.59837086015647855675 -56.05530475815859148270 -56.05530475815859148270 -53.51223865616071151408 -50.96917255416283154545 -53.51223865616071151408 -61.14143696215435852537 -58.59837086015647855675 -53.51223865616071151408 -58.59837086015647855675 -53.51223865616071151408 -48.42610645216495868226 -61.14143696215435852537 -66.22756916615011846261 -58.59837086015647855675 -53.51223865616071151408 -48.42610645216495868226 -56.05530475815859148270 -56.05530475815859148270 -56.05530475815859148270 -53.51223865616071151408 -71.31370137014587839985 -61.14143696215435852537 -56.05530475815859148270 -53.51223865616071151408 -53.51223865616071151408 -58.59837086015647855675 -58.59837086015647855675 -66.22756916615011846261 -71.31370137014587839985 -53.51223865616071151408 -56.05530475815859148270 -53.51223865616071151408 -58.59837086015647855675 -48.42610645216495868226 -53.51223865616071151408 -50.96917255416283154545 -63.68450306415223138856 -58.59837086015647855675 -53.51223865616071151408 -56.05530475815859148270 -45.88304035016707160821 -53.51223865616071151408 -50.96917255416283154545 -50.96917255416283154545 -48.42610645216495868226 -48.42610645216495868226 -45.88304035016707160821 -48.42610645216495868226 -50.96917255416283154545 -43.33997424816919163959 -43.33997424816919163959 -40.79690814617131167097 -45.88304035016707160821 -48.42610645216495868226 -45.88304035016707160821 -45.88304035016707160821 -43.33997424816919163959 -35.71077594217555173373 -38.25384204417342459692 -45.88304035016707160821 -43.33997424816919163959 -48.42610645216495868226 -45.88304035016707160821 -48.42610645216495868226 -45.88304035016707160821 -45.88304035016707160821 -53.51223865616071151408 -43.33997424816919163959 -53.51223865616071151408 -50.96917255416283154545 -56.05530475815859148270 -48.42610645216495868226 -53.51223865616071151408 -40.79690814617131167097 -45.88304035016707160821 -48.42610645216495868226 -40.79690814617131167097 -48.42610645216495868226 -50.96917255416283154545 -48.42610645216495868226 -48.42610645216495868226 -35.71077594217555173373 -35.71077594217555173373 -40.79690814617131167097 -38.25384204417342459692 -35.71077594217555173373 -33.16770984017766465968 -33.16770984017766465968 -40.79690814617131167097 -33.16770984017766465968 -35.71077594217555173373 -38.25384204417342459692 -35.71077594217555173373 -30.62464373817978469106 -43.33997424816919163959 -56.05530475815859148270 -58.59837086015647855675 -56.05530475815859148270 -56.05530475815859148270 -63.68450306415223138856 -56.05530475815859148270 -56.05530475815859148270 -56.05530475815859148270 -63.68450306415223138856 -50.96917255416283154545 -56.05530475815859148270 -61.14143696215435852537 -53.51223865616071151408 -53.51223865616071151408 -53.51223865616071151408 -58.59837086015647855675 -58.59837086015647855675 -56.05530475815859148270 -58.59837086015647855675 -53.51223865616071151408 -63.68450306415223138856 -56.05530475815859148270 -61.14143696215435852537 -50.96917255416283154545 -48.42610645216495868226 -53.51223865616071151408 -50.96917255416283154545 -48.42610645216495868226 -45.88304035016707160821 -50.96917255416283154545 -53.51223865616071151408 -53.51223865616071151408 -50.96917255416283154545 -56.05530475815859148270 -53.51223865616071151408 -61.14143696215435852537 -61.14143696215435852537 -61.14143696215435852537 -61.14143696215435852537 -50.96917255416283154545 -48.42610645216495868226 -43.33997424816919163959 -56.05530475815859148270 -58.59837086015647855675 -56.05530475815859148270 -58.59837086015647855675 -50.96917255416283154545 -50.96917255416283154545 -58.59837086015647855675 -45.88304035016707160821 -50.96917255416283154545 -50.96917255416283154545 -48.42610645216495868226 -56.05530475815859148270 -53.51223865616071151408 -61.14143696215435852537 -68.77063526814799843123 -56.05530475815859148270 -58.59837086015647855675 -56.05530475815859148270 -50.96917255416283154545 -48.42610645216495868226 -63.68450306415223138856 -53.51223865616071151408 -56.05530475815859148270 -58.59837086015647855675 -50.96917255416283154545 -58.59837086015647855675 -56.05530475815859148270 -61.14143696215435852537 -61.14143696215435852537 -58.59837086015647855675 -61.14143696215435852537 -58.59837086015647855675 -63.68450306415223138856 -66.22756916615011846261 -58.59837086015647855675 -58.59837086015647855675 -53.51223865616071151408 -58.59837086015647855675 -58.59837086015647855675 -58.59837086015647855675 -56.05530475815859148270 -53.51223865616071151408 -58.59837086015647855675 -53.51223865616071151408 -50.96917255416283154545 -66.22756916615011846261 -53.51223865616071151408 -53.51223865616071151408 -50.96917255416283154545 -53.51223865616071151408 -50.96917255416283154545 -45.88304035016707160821 -58.59837086015647855675 -56.05530475815859148270 -61.14143696215435852537 -58.59837086015647855675 -53.51223865616071151408 -56.05530475815859148270 -45.88304035016707160821 -50.96917255416283154545 -56.05530475815859148270 -45.88304035016707160821 -43.33997424816919163959 -43.33997424816919163959 -40.79690814617131167097 -40.79690814617131167097 -45.88304035016707160821 -40.79690814617131167097 -40.79690814617131167097 -43.33997424816919163959 -48.42610645216495868226 -50.96917255416283154545 -40.79690814617131167097 -38.25384204417342459692 -40.79690814617131167097 -40.79690814617131167097 -43.33997424816919163959 -38.25384204417342459692 -40.79690814617131167097 -43.33997424816919163959 -48.42610645216495868226 -40.79690814617131167097 -38.25384204417342459692 -40.79690814617131167097 -43.33997424816919163959 -43.33997424816919163959 -40.79690814617131167097 -40.79690814617131167097 -38.25384204417342459692 -45.88304035016707160821 -40.79690814617131167097 -35.71077594217555173373 -45.88304035016707160821 -40.79690814617131167097 -40.79690814617131167097 -40.79690814617131167097 -38.25384204417342459692 -40.79690814617131167097 -40.79690814617131167097 -38.25384204417342459692 -43.33997424816919163959 -38.25384204417342459692 -35.71077594217555173373 -35.71077594217555173373 -38.25384204417342459692 -33.16770984017766465968 -43.33997424816919163959 -40.79690814617131167097 -43.33997424816919163959 -40.79690814617131167097 -45.88304035016707160821 -45.88304035016707160821 -48.42610645216495868226 -43.33997424816919163959 -40.79690814617131167097 -35.71077594217555173373 -43.33997424816919163959 -43.33997424816919163959 -40.79690814617131167097 -38.25384204417342459692 -43.33997424816919163959 -43.33997424816919163959 -43.33997424816919163959 -43.33997424816919163959 -38.25384204417342459692 -40.79690814617131167097 -43.33997424816919163959 -45.88304035016707160821 -43.33997424816919163959 -45.88304035016707160821 -40.79690814617131167097 -38.25384204417342459692 -40.79690814617131167097 -40.79690814617131167097 -38.25384204417342459692 -43.33997424816919163959 -43.33997424816919163959 -40.79690814617131167097 -40.79690814617131167097 -40.79690814617131167097 -45.88304035016707160821 -40.79690814617131167097 -35.71077594217555173373 -38.25384204417342459692 -38.25384204417342459692 -38.25384204417342459692 -43.33997424816919163959 -45.88304035016707160821 -40.79690814617131167097 -38.25384204417342459692 -40.79690814617131167097 -45.88304035016707160821 -38.25384204417342459692 -40.79690814617131167097 -38.25384204417342459692 -38.25384204417342459692 -43.33997424816919163959 -45.88304035016707160821 -45.88304035016707160821 -40.79690814617131167097 -43.33997424816919163959 -38.25384204417342459692 -38.25384204417342459692 -48.42610645216495868226 -45.88304035016707160821 -43.33997424816919163959 -35.71077594217555173373 -40.79690814617131167097 -40.79690814617131167097 -38.25384204417342459692 -38.25384204417342459692 -43.33997424816919163959 -45.88304035016707160821 -40.79690814617131167097 -38.25384204417342459692 -45.88304035016707160821 -38.25384204417342459692 -43.33997424816919163959 -45.88304035016707160821 -48.42610645216495868226 -43.33997424816919163959 -40.79690814617131167097 -43.33997424816919163959 -48.42610645216495868226 -38.25384204417342459692 -40.79690814617131167097 -38.25384204417342459692 -28.08157763618190827515 -43.33997424816919163959 -43.33997424816919163959 -48.42610645216495868226 -38.25384204417342459692 -43.33997424816919163959 -45.88304035016707160821 -43.33997424816919163959 -33.16770984017766465968 -30.62464373817978469106 -38.25384204417342459692 -38.25384204417342459692 -45.88304035016707160821 -53.51223865616071151408 -45.88304035016707160821 -45.88304035016707160821 -53.51223865616071151408 -45.88304035016707160821 -40.79690814617131167097 -43.33997424816919163959 -56.05530475815859148270 -53.51223865616071151408 -56.05530475815859148270 -58.59837086015647855675 -58.59837086015647855675 -56.05530475815859148270 -50.96917255416283154545 -43.33997424816919163959 -43.33997424816919163959 -45.88304035016707160821 -56.05530475815859148270 -50.96917255416283154545 -53.51223865616071151408 -53.51223865616071151408 -53.51223865616071151408 -48.42610645216495868226 -48.42610645216495868226 -43.33997424816919163959 -38.25384204417342459692 -38.25384204417342459692 -50.96917255416283154545 -45.88304035016707160821 -53.51223865616071151408 -50.96917255416283154545 -61.14143696215435852537 -56.05530475815859148270 -48.42610645216495868226 -56.05530475815859148270 -50.96917255416283154545 -56.05530475815859148270 -53.51223865616071151408 -43.33997424816919163959 -43.33997424816919163959 -38.25384204417342459692 -43.33997424816919163959 -40.79690814617131167097 -35.71077594217555173373 -30.62464373817978469106 -38.25384204417342459692 -33.16770984017766465968 -30.62464373817978469106 -20.45237933018826481657 -28.08157763618190827515 -33.16770984017766465968 -38.25384204417342459692 -30.62464373817978469106 -35.71077594217555173373 -30.62464373817978469106 -33.16770984017766465968 -35.71077594217555173373 -33.16770984017766465968 -30.62464373817978469106 -33.16770984017766465968 -25.53851153418402475381 -22.99544543218614833791 -28.08157763618190827515 -22.99544543218614833791 -28.08157763618190827515 -20.45237933018826481657 -33.16770984017766465968 -28.08157763618190827515 -38.25384204417342459692 -33.16770984017766465968 -30.62464373817978469106 -35.71077594217555173373 -33.16770984017766465968 -40.79690814617131167097 -35.71077594217555173373 -38.25384204417342459692 -43.33997424816919163959 -35.71077594217555173373 -38.25384204417342459692 -35.71077594217555173373 -30.62464373817978469106 -40.79690814617131167097 -35.71077594217555173373 -45.88304035016707160821 -35.71077594217555173373 -40.79690814617131167097 -40.79690814617131167097 -38.25384204417342459692 -35.71077594217555173373 -35.71077594217555173373 -30.62464373817978469106 -38.25384204417342459692 -30.62464373817978469106 -40.79690814617131167097 -38.25384204417342459692 -40.79690814617131167097 -38.25384204417342459692 -35.71077594217555173373 -38.25384204417342459692 -35.71077594217555173373 -40.79690814617131167097 -40.79690814617131167097 -30.62464373817978469106 -33.16770984017766465968 -35.71077594217555173373 -50.96917255416283154545 -45.88304035016707160821 -35.71077594217555173373 -43.33997424816919163959 -43.33997424816919163959 -40.79690814617131167097 -30.62464373817978469106 -28.08157763618190827515 -20.45237933018826481657 -22.99544543218614833791 -28.08157763618190827515 -20.45237933018826481657 -15.36624712619250665568 -20.45237933018826481657 -48.42610645216495868226 -33.16770984017766465968 -38.25384204417342459692 -30.62464373817978469106 -38.25384204417342459692 -40.79690814617131167097 -20.45237933018826481657 -38.25384204417342459692 -45.88304035016707160821 -40.79690814617131167097 -48.42610645216495868226 -43.33997424816919163959 -38.25384204417342459692 -45.88304035016707160821 -50.96917255416283154545 -40.79690814617131167097 -43.33997424816919163959 -40.79690814617131167097 -35.71077594217555173373 -33.16770984017766465968 -33.16770984017766465968 -38.25384204417342459692 -40.79690814617131167097 -38.25384204417342459692 -40.79690814617131167097 -33.16770984017766465968 -50.96917255416283154545 -38.25384204417342459692 -35.71077594217555173373 -33.16770984017766465968 -33.16770984017766465968 -38.25384204417342459692 -35.71077594217555173373 -43.33997424816919163959 -45.88304035016707160821 -45.88304035016707160821 -45.88304035016707160821 -38.25384204417342459692 -40.79690814617131167097 -33.16770984017766465968 -40.79690814617131167097 -50.96917255416283154545 -38.25384204417342459692 -38.25384204417342459692 -40.79690814617131167097 -33.16770984017766465968 -40.79690814617131167097 -38.25384204417342459692 -40.79690814617131167097 -43.33997424816919163959 -40.79690814617131167097 -40.79690814617131167097 -48.42610645216495868226 -48.42610645216495868226 -38.25384204417342459692 -50.96917255416283154545 -30.62464373817978469106 -33.16770984017766465968 -40.79690814617131167097 -43.33997424816919163959 -45.88304035016707160821 -43.33997424816919163959 -30.62464373817978469106 -2.65091661620310370395 -0.10785051420522315246 -2.65091661620310370395 -5.19398271820098500484 -2.65091661620310370395 -0.10785051420522315246 -0.10785051420522315246 -7.73704882019886497346 -0.10785051420522315246 -0.10785051420522315246 -2.65091661620310370395 -2.65091661620310370395 -7.73704882019886497346 -2.65091661620310370395 -15.36624712619250665568 -20.45237933018826481657 -20.45237933018826481657 -25.53851153418402475381 -20.45237933018826481657 -15.36624712619250665568 -15.36624712619250665568 -20.45237933018826481657 -20.45237933018826481657 -22.99544543218614833791 -20.45237933018826481657 -25.53851153418402475381 -25.53851153418402475381 -20.45237933018826481657 -20.45237933018826481657 -22.99544543218614833791 -20.45237933018826481657 -20.45237933018826481657 -25.53851153418402475381 -28.08157763618190827515 -25.53851153418402475381 -25.53851153418402475381 -28.08157763618190827515 -28.08157763618190827515 -25.53851153418402475381 -30.62464373817978469106 -28.08157763618190827515 -33.16770984017766465968 -20.45237933018826481657 -15.36624712619250665568 -15.36624712619250665568 -15.36624712619250665568 -20.45237933018826481657 -15.36624712619250665568 -17.90931322819038484795 -15.36624712619250665568 -25.53851153418402475381 -15.36624712619250665568 -15.36624712619250665568 -17.90931322819038484795 -17.90931322819038484795 -15.36624712619250665568 -12.82318102419462668706 -15.36624712619250665568 -15.36624712619250665568 -17.90931322819038484795 -20.45237933018826481657 -12.82318102419462668706 -15.36624712619250665568 -17.90931322819038484795 -22.99544543218614833791 -20.45237933018826481657 -15.36624712619250665568 -15.36624712619250665568 -25.53851153418402475381 -17.90931322819038484795 -22.99544543218614833791 -12.82318102419462668706 -15.36624712619250665568 -17.90931322819038484795 -15.36624712619250665568 -20.45237933018826481657 -20.45237933018826481657 -17.90931322819038484795 -20.45237933018826481657 -25.53851153418402475381 -25.53851153418402475381 -20.45237933018826481657 -22.99544543218614833791 -20.45237933018826481657 -22.99544543218614833791 -20.45237933018826481657 -12.82318102419462668706 -17.90931322819038484795 -10.28011492219674671844 -15.36624712619250665568 -15.36624712619250665568 -20.45237933018826481657 -12.82318102419462668706 -20.45237933018826481657 -17.90931322819038484795 -25.53851153418402475381 -17.90931322819038484795 -17.90931322819038484795 -12.82318102419462668706 -12.82318102419462668706 -12.82318102419462668706 -17.90931322819038484795 -12.82318102419462668706 -12.82318102419462668706 -17.90931322819038484795 -20.45237933018826481657 -15.36624712619250665568 -7.73704882019886497346 -17.90931322819038484795 -20.45237933018826481657 -17.90931322819038484795 -17.90931322819038484795 -20.45237933018826481657 -20.45237933018826481657 -22.99544543218614833791 -28.08157763618190827515 -35.71077594217555173373 -38.25384204417342459692 -43.33997424816919163959 -50.96917255416283154545 -50.96917255416283154545 -48.42610645216495868226 -40.79690814617131167097 -43.33997424816919163959 -45.88304035016707160821 -45.88304035016707160821 -40.79690814617131167097 -45.88304035016707160821 -43.33997424816919163959 -53.51223865616071151408 -40.79690814617131167097 -45.88304035016707160821 -40.79690814617131167097 -43.33997424816919163959 -45.88304035016707160821 -48.42610645216495868226 -45.88304035016707160821 -43.33997424816919163959 -50.96917255416283154545 -45.88304035016707160821 -45.88304035016707160821 -50.96917255416283154545 -43.33997424816919163959 -53.51223865616071151408 -38.25384204417342459692 -53.51223865616071151408 -50.96917255416283154545 -53.51223865616071151408 -45.88304035016707160821 -40.79690814617131167097 -38.25384204417342459692 -35.71077594217555173373 -33.16770984017766465968 -25.53851153418402475381 -28.08157763618190827515 -25.53851153418402475381 -7.73704882019886497346 -7.73704882019886497346 12.60747999578417832822 15.15054609778206007320 7.52134779178841839098 -12.82318102419462668706 -15.36624712619250665568 4.97828168979053753418 -0.10785051420522315246 4.97828168979053753418 12.60747999578417832822 4.97828168979053753418 2.43521558779265712147 4.97828168979053753418 10.06441389378629835960 15.15054609778206007320 17.69361219977994181818 25.32281050577358527676 17.69361219977994181818 15.15054609778206007320 15.15054609778206007320 10.06441389378629835960 17.69361219977994181818 10.06441389378629835960 10.06441389378629835960 12.60747999578417832822 15.15054609778206007320 15.15054609778206007320 27.86587660777146524538 22.77974440377570175542 25.32281050577358527676 22.77974440377570175542 22.77974440377570175542 25.32281050577358527676 22.77974440377570175542 22.77974440377570175542 25.32281050577358527676 27.86587660777146524538 25.32281050577358527676 20.23667830177782178680 27.86587660777146524538 20.23667830177782178680 15.15054609778206007320 22.77974440377570175542 25.32281050577358527676 30.40894270976934521400 22.77974440377570175542 20.23667830177782178680 25.32281050577358527676 20.23667830177782178680 20.23667830177782178680 20.23667830177782178680 20.23667830177782178680 17.69361219977994181818 20.23667830177782178680 22.77974440377570175542 17.69361219977994181818 20.23667830177782178680 12.60747999578417832822 12.60747999578417832822 17.69361219977994181818 15.15054609778206007320 10.06441389378629835960 20.23667830177782178680 20.23667830177782178680 17.69361219977994181818 15.15054609778206007320 12.60747999578417832822 17.69361219977994181818 22.77974440377570175542 10.06441389378629835960 20.23667830177782178680 17.69361219977994181818 12.60747999578417832822 17.69361219977994181818 22.77974440377570175542 15.15054609778206007320 10.06441389378629835960 10.06441389378629835960 12.60747999578417832822 20.23667830177782178680 17.69361219977994181818 15.15054609778206007320 17.69361219977994181818 20.23667830177782178680 22.77974440377570175542 20.23667830177782178680 17.69361219977994181818 20.23667830177782178680 20.23667830177782178680 17.69361219977994181818 15.15054609778206007320 17.69361219977994181818 17.69361219977994181818 25.32281050577358527676 17.69361219977994181818 22.77974440377570175542 22.77974440377570175542 25.32281050577358527676 22.77974440377570175542 20.23667830177782178680 17.69361219977994181818 15.15054609778206007320 30.40894270976934521400 32.95200881176722873533 30.40894270976934521400 30.40894270976934521400 25.32281050577358527676 35.49507491376510159853 32.95200881176722873533 32.95200881176722873533 35.49507491376510159853 30.40894270976934521400 32.95200881176722873533 32.95200881176722873533 35.49507491376510159853 32.95200881176722873533 22.77974440377570175542 27.86587660777146524538 30.40894270976934521400 30.40894270976934521400 30.40894270976934521400 35.49507491376510159853 32.95200881176722873533 27.86587660777146524538 25.32281050577358527676 22.77974440377570175542 25.32281050577358527676 22.77974440377570175542 22.77974440377570175542 27.86587660777146524538 25.32281050577358527676 20.23667830177782178680 30.40894270976934521400 20.23667830177782178680 27.86587660777146524538 27.86587660777146524538 22.77974440377570175542 25.32281050577358527676 20.23667830177782178680 20.23667830177782178680 20.23667830177782178680 20.23667830177782178680 20.23667830177782178680 10.06441389378629835960 10.06441389378629835960 12.60747999578417832822 15.15054609778206007320 17.69361219977994181818 15.15054609778206007320 12.60747999578417832822 7.52134779178841839098 10.06441389378629835960 10.06441389378629835960 4.97828168979053753418 10.06441389378629835960 4.97828168979053753418 10.06441389378629835960 15.15054609778206007320 10.06441389378629835960 2.43521558779265712147 4.97828168979053753418 4.97828168979053753418 2.43521558779265712147 4.97828168979053753418 10.06441389378629835960 -0.10785051420522315246 4.97828168979053753418 10.06441389378629835960 7.52134779178841839098 7.52134779178841839098 15.15054609778206007320 17.69361219977994181818 20.23667830177782178680 20.23667830177782178680 25.32281050577358527676 25.32281050577358527676 22.77974440377570175542 22.77974440377570175542 20.23667830177782178680 22.77974440377570175542 17.69361219977994181818 25.32281050577358527676 17.69361219977994181818 15.15054609778206007320 10.06441389378629835960 17.69361219977994181818 15.15054609778206007320 10.06441389378629835960 10.06441389378629835960 7.52134779178841839098 10.06441389378629835960 10.06441389378629835960 4.97828168979053753418 7.52134779178841839098 15.15054609778206007320 10.06441389378629835960 15.15054609778206007320 15.15054609778206007320 30.40894270976934521400 20.23667830177782178680 27.86587660777146524538 32.95200881176722873533 27.86587660777146524538 22.77974440377570175542 30.40894270976934521400 22.77974440377570175542 27.86587660777146524538 30.40894270976934521400 27.86587660777146524538 27.86587660777146524538 22.77974440377570175542 20.23667830177782178680 25.32281050577358527676 25.32281050577358527676 22.77974440377570175542 30.40894270976934521400 30.40894270976934521400 17.69361219977994181818 20.23667830177782178680 25.32281050577358527676 17.69361219977994181818 15.15054609778206007320 17.69361219977994181818 20.23667830177782178680 22.77974440377570175542 17.69361219977994181818 20.23667830177782178680 10.06441389378629835960 12.60747999578417832822 15.15054609778206007320 22.77974440377570175542 10.06441389378629835960 12.60747999578417832822 10.06441389378629835960 7.52134779178841839098 17.69361219977994181818 17.69361219977994181818 17.69361219977994181818 15.15054609778206007320 15.15054609778206007320 17.69361219977994181818 15.15054609778206007320 12.60747999578417832822 12.60747999578417832822 10.06441389378629835960 17.69361219977994181818 10.06441389378629835960 15.15054609778206007320 10.06441389378629835960 7.52134779178841839098 7.52134779178841839098 4.97828168979053753418 7.52134779178841839098 10.06441389378629835960 4.97828168979053753418 12.60747999578417832822 4.97828168979053753418 10.06441389378629835960 15.15054609778206007320 12.60747999578417832822 15.15054609778206007320 12.60747999578417832822 12.60747999578417832822 12.60747999578417832822 10.06441389378629835960 12.60747999578417832822 7.52134779178841839098 12.60747999578417832822 12.60747999578417832822 17.69361219977994181818 17.69361219977994181818 10.06441389378629835960 12.60747999578417832822 10.06441389378629835960 10.06441389378629835960 7.52134779178841839098 -0.10785051420522315246 -2.65091661620310370395 2.43521558779265712147 -10.28011492219674671844 -7.73704882019886497346 -5.19398271820098500484 -5.19398271820098500484 -2.65091661620310370395 2.43521558779265712147 -5.19398271820098500484 2.43521558779265712147 2.43521558779265712147 -0.10785051420522315246 -0.10785051420522315246 -2.65091661620310370395 -2.65091661620310370395 -0.10785051420522315246 -7.73704882019886497346 -7.73704882019886497346 -5.19398271820098500484 -7.73704882019886497346 -10.28011492219674671844 -17.90931322819038484795 -12.82318102419462668706 -12.82318102419462668706 -10.28011492219674671844 -10.28011492219674671844 -12.82318102419462668706 -15.36624712619250665568 -17.90931322819038484795 -15.36624712619250665568 -15.36624712619250665568 -12.82318102419462668706 -12.82318102419462668706 -15.36624712619250665568 -15.36624712619250665568 -12.82318102419462668706 -20.45237933018826481657 -15.36624712619250665568 -17.90931322819038484795 -12.82318102419462668706 -20.45237933018826481657 -15.36624712619250665568 -12.82318102419462668706 -12.82318102419462668706 -20.45237933018826481657 -15.36624712619250665568 -10.28011492219674671844 -12.82318102419462668706 -17.90931322819038484795 -15.36624712619250665568 -15.36624712619250665568 -10.28011492219674671844 -20.45237933018826481657 -17.90931322819038484795 -15.36624712619250665568 -12.82318102419462668706 -12.82318102419462668706 -10.28011492219674671844 -7.73704882019886497346 -0.10785051420522315246 -15.36624712619250665568 -10.28011492219674671844 -7.73704882019886497346 -5.19398271820098500484 -10.28011492219674671844 -10.28011492219674671844 -7.73704882019886497346 -10.28011492219674671844 -2.65091661620310370395 2.43521558779265712147 -7.73704882019886497346 -7.73704882019886497346 -5.19398271820098500484 -2.65091661620310370395 -5.19398271820098500484 -7.73704882019886497346 -5.19398271820098500484 -2.65091661620310370395 -5.19398271820098500484 -0.10785051420522315246 -5.19398271820098500484 -0.10785051420522315246 -7.73704882019886497346 -2.65091661620310370395 -2.65091661620310370395 -5.19398271820098500484 -0.10785051420522315246 2.43521558779265712147 -0.10785051420522315246 4.97828168979053753418 7.52134779178841839098 10.06441389378629835960 17.69361219977994181818 27.86587660777146524538 17.69361219977994181818 12.60747999578417832822 22.77974440377570175542 17.69361219977994181818 17.69361219977994181818 15.15054609778206007320 12.60747999578417832822 17.69361219977994181818 15.15054609778206007320 17.69361219977994181818 20.23667830177782178680 15.15054609778206007320 15.15054609778206007320 12.60747999578417832822 12.60747999578417832822 7.52134779178841839098 4.97828168979053753418 7.52134779178841839098 10.06441389378629835960 10.06441389378629835960 10.06441389378629835960 4.97828168979053753418 7.52134779178841839098 2.43521558779265712147 -0.10785051420522315246 4.97828168979053753418 -2.65091661620310370395 2.43521558779265712147 2.43521558779265712147 -5.19398271820098500484 -7.73704882019886497346 -2.65091661620310370395 -7.73704882019886497346 -2.65091661620310370395 -5.19398271820098500484 -2.65091661620310370395 -5.19398271820098500484 -5.19398271820098500484 -10.28011492219674671844 -0.10785051420522315246 -7.73704882019886497346 -2.65091661620310370395 -2.65091661620310370395 -5.19398271820098500484 -5.19398271820098500484 -10.28011492219674671844 -2.65091661620310370395 2.43521558779265712147 -0.10785051420522315246 2.43521558779265712147 4.97828168979053753418 7.52134779178841839098 4.97828168979053753418 7.52134779178841839098 4.97828168979053753418 2.43521558779265712147 7.52134779178841839098 -2.65091661620310370395 4.97828168979053753418 2.43521558779265712147 -2.65091661620310370395 2.43521558779265712147 4.97828168979053753418 -2.65091661620310370395 -5.19398271820098500484 -0.10785051420522315246 4.97828168979053753418 -0.10785051420522315246 2.43521558779265712147 -0.10785051420522315246 2.43521558779265712147 2.43521558779265712147 -0.10785051420522315246 -2.65091661620310370395 -2.65091661620310370395 -0.10785051420522315246 7.52134779178841839098 2.43521558779265712147 2.43521558779265712147 7.52134779178841839098 10.06441389378629835960 4.97828168979053753418 4.97828168979053753418 2.43521558779265712147 -2.65091661620310370395 2.43521558779265712147 4.97828168979053753418 -0.10785051420522315246 -2.65091661620310370395 -0.10785051420522315246 7.52134779178841839098 4.97828168979053753418 7.52134779178841839098 4.97828168979053753418 2.43521558779265712147 7.52134779178841839098 4.97828168979053753418 4.97828168979053753418 10.06441389378629835960 4.97828168979053753418 2.43521558779265712147 12.60747999578417832822 2.43521558779265712147 10.06441389378629835960 4.97828168979053753418 -0.10785051420522315246 -0.10785051420522315246 2.43521558779265712147 2.43521558779265712147 2.43521558779265712147 7.52134779178841839098 -2.65091661620310370395 2.43521558779265712147 4.97828168979053753418 2.43521558779265712147 4.97828168979053753418 2.43521558779265712147 -0.10785051420522315246 -0.10785051420522315246 -2.65091661620310370395 -0.10785051420522315246 -5.19398271820098500484 -0.10785051420522315246 -2.65091661620310370395 2.43521558779265712147 4.97828168979053753418 4.97828168979053753418 2.43521558779265712147 -2.65091661620310370395 -2.65091661620310370395 20.23667830177782178680 7.52134779178841839098 20.23667830177782178680 12.60747999578417832822 22.77974440377570175542 7.52134779178841839098 32.95200881176722873533 48.21040542375450854706 -7.73704882019886497346 -2.65091661620310370395 7.52134779178841839098 17.69361219977994181818 20.23667830177782178680 25.32281050577358527676 20.23667830177782178680 22.77974440377570175542 38.03814101576298867258 45.66733932175662857844 45.66733932175662857844 35.49507491376510159853 32.95200881176722873533 32.95200881176722873533 32.95200881176722873533 43.12427321975874860982 48.21040542375450854706 32.95200881176722873533 32.95200881176722873533 32.95200881176722873533 38.03814101576298867258 17.69361219977994181818 7.52134779178841839098 4.97828168979053753418 10.06441389378629835960 17.69361219977994181818 17.69361219977994181818 17.69361219977994181818 20.23667830177782178680 17.69361219977994181818 10.06441389378629835960 20.23667830177782178680 17.69361219977994181818 17.69361219977994181818 15.15054609778206007320 25.32281050577358527676 25.32281050577358527676 22.77974440377570175542 27.86587660777146524538 40.58120711776086153577 35.49507491376510159853 30.40894270976934521400 35.49507491376510159853 -38.25384204417342459692 7.52134779178841839098 22.77974440377570175542 63.46880203574179546422 55.83960372974814845293 71.09800034173542826466 66.01186813773966832741 63.46880203574179546422 68.55493423973754829603 81.27026474972694813914 71.09800034173542826466 71.09800034173542826466 66.01186813773966832741 78.72719864772908238137 76.18413254573118820190 78.72719864772908238137 45.66733932175662857844 66.01186813773966832741 76.18413254573118820190 76.18413254573118820190 68.55493423973754829603 58.38266983174602842155 45.66733932175662857844 48.21040542375450854706 45.66733932175662857844 40.58120711776086153577 40.58120711776086153577 40.58120711776086153577 48.21040542375450854706 45.66733932175662857844 48.21040542375450854706 53.29653762775027558973 60.92573593374390839017 66.01186813773966832741 66.01186813773966832741 71.09800034173542826466 66.01186813773966832741 55.83960372974814845293 53.29653762775027558973 63.46880203574179546422 66.01186813773966832741 66.01186813773966832741 68.55493423973754829603 66.01186813773966832741 63.46880203574179546422 78.72719864772908238137 71.09800034173542826466 73.64106644373330823328 71.09800034173542826466 73.64106644373330823328 78.72719864772908238137 68.55493423973754829603 73.64106644373330823328 63.46880203574179546422 71.09800034173542826466 66.01186813773966832741 60.92573593374390839017 66.01186813773966832741 63.46880203574179546422 68.55493423973754829603 73.64106644373330823328 71.09800034173542826466 60.92573593374390839017 63.46880203574179546422 66.01186813773966832741 63.46880203574179546422 66.01186813773966832741 55.83960372974814845293 66.01186813773966832741 73.64106644373330823328 66.01186813773966832741 68.55493423973754829603 71.09800034173542826466 63.46880203574179546422 66.01186813773966832741 66.01186813773966832741 66.01186813773966832741 66.01186813773966832741 58.38266983174602842155 63.46880203574179546422 78.72719864772908238137 83.81333085172482810776 71.09800034173542826466 66.01186813773966832741 63.46880203574179546422 58.38266983174602842155 76.18413254573118820190 76.18413254573118820190 73.64106644373330823328 78.72719864772908238137 78.72719864772908238137 66.01186813773966832741 68.55493423973754829603 71.09800034173542826466 66.01186813773966832741 66.01186813773966832741 63.46880203574179546422 73.64106644373330823328 71.09800034173542826466 76.18413254573118820190 66.01186813773966832741 50.75347152575238851568 60.92573593374390839017 63.46880203574179546422 71.09800034173542826466 71.09800034173542826466 63.46880203574179546422 53.29653762775027558973 63.46880203574179546422 73.64106644373330823328 71.09800034173542826466 76.18413254573118820190 73.64106644373330823328 66.01186813773966832741 73.64106644373330823328 73.64106644373330823328 76.18413254573118820190 76.18413254573118820190 76.18413254573118820190 73.64106644373330823328 76.18413254573118820190 76.18413254573118820190 73.64106644373330823328 76.18413254573118820190 71.09800034173542826466 71.09800034173542826466 68.55493423973754829603 73.64106644373330823328 71.09800034173542826466 76.18413254573118820190 68.55493423973754829603 76.18413254573118820190 73.64106644373330823328 78.72719864772908238137 81.27026474972694813914 71.09800034173542826466 76.18413254573118820190 81.27026474972694813914 81.27026474972694813914 78.72719864772908238137 76.18413254573118820190 76.18413254573118820190 78.72719864772908238137 81.27026474972694813914 78.72719864772908238137 71.09800034173542826466 81.27026474972694813914 76.18413254573118820190 78.72719864772908238137 76.18413254573118820190 73.64106644373330823328 78.72719864772908238137 83.81333085172482810776 78.72719864772908238137 78.72719864772908238137 83.81333085172482810776 91.44252915771846801363 78.72719864772908238137 76.18413254573118820190 83.81333085172482810776 81.27026474972694813914 78.72719864772908238137 83.81333085172482810776 91.44252915771846801363 86.35639695372270807638 83.81333085172482810776 83.81333085172482810776 81.27026474972694813914 86.35639695372270807638 81.27026474972694813914 88.89946305572058804501 96.52866136171422795087 88.89946305572058804501 99.07172746371212213035 86.35639695372270807638 86.35639695372270807638 81.27026474972694813914 88.89946305572058804501 91.44252915771846801363 86.35639695372270807638 88.89946305572058804501 91.44252915771846801363 96.52866136171422795087 88.89946305572058804501 91.44252915771846801363 88.89946305572058804501 93.98559525971634798225 106.70092576970574782536 88.89946305572058804501 93.98559525971634798225 93.98559525971634798225 86.35639695372270807638 83.81333085172482810776 93.98559525971634798225 91.44252915771846801363 96.52866136171422795087 93.98559525971634798225 86.35639695372270807638 101.61479356570998788811 99.07172746371212213035 101.61479356570998788811 88.89946305572058804501 96.52866136171422795087 101.61479356570998788811 99.07172746371212213035 96.52866136171422795087 88.89946305572058804501 96.52866136171422795087 99.07172746371212213035 99.07172746371212213035 93.98559525971634798225 93.98559525971634798225 101.61479356570998788811 86.35639695372270807638 91.44252915771846801363 91.44252915771846801363 91.44252915771846801363 86.35639695372270807638 86.35639695372270807638 91.44252915771846801363 96.52866136171422795087 91.44252915771846801363 93.98559525971634798225 93.98559525971634798225 99.07172746371212213035 86.35639695372270807638 93.98559525971634798225 99.07172746371212213035 86.35639695372270807638 88.89946305572058804501 86.35639695372270807638 83.81333085172482810776 88.89946305572058804501 88.89946305572058804501 96.52866136171422795087 88.89946305572058804501 86.35639695372270807638 93.98559525971634798225 88.89946305572058804501 91.44252915771846801363 83.81333085172482810776 88.89946305572058804501 83.81333085172482810776 86.35639695372270807638 88.89946305572058804501 91.44252915771846801363 81.27026474972694813914 78.72719864772908238137 83.81333085172482810776 78.72719864772908238137 83.81333085172482810776 81.27026474972694813914 88.89946305572058804501 73.64106644373330823328 83.81333085172482810776 81.27026474972694813914 81.27026474972694813914 78.72719864772908238137 83.81333085172482810776 81.27026474972694813914 81.27026474972694813914 81.27026474972694813914 60.92573593374390839017 27.86587660777146524538 78.72719864772908238137 58.38266983174602842155 58.38266983174602842155 45.66733932175662857844 38.03814101576298867258 53.29653762775027558973 60.92573593374390839017 63.46880203574179546422 63.46880203574179546422 60.92573593374390839017 66.01186813773966832741 53.29653762775027558973 63.46880203574179546422 40.58120711776086153577 43.12427321975874860982 50.75347152575238851568 45.66733932175662857844 53.29653762775027558973 50.75347152575238851568 55.83960372974814845293 45.66733932175662857844 53.29653762775027558973 66.01186813773966832741 40.58120711776086153577 27.86587660777146524538 15.15054609778206007320 15.15054609778206007320 27.86587660777146524538 4.97828168979053753418 -10.28011492219674671844 10.06441389378629835960 -10.28011492219674671844 -15.36624712619250665568 -2.65091661620310370395 -2.65091661620310370395 2.43521558779265712147 2.43521558779265712147 12.60747999578417832822 -10.28011492219674671844 -7.73704882019886497346 -7.73704882019886497346 -5.19398271820098500484 -10.28011492219674671844 -2.65091661620310370395 30.40894270976934521400 48.21040542375450854706 58.38266983174602842155 68.55493423973754829603 68.55493423973754829603 68.55493423973754829603 53.29653762775027558973 48.21040542375450854706 17.69361219977994181818 10.06441389378629835960 10.06441389378629835960 7.52134779178841839098 7.52134779178841839098 10.06441389378629835960 4.97828168979053753418 10.06441389378629835960 2.43521558779265712147 12.60747999578417832822 12.60747999578417832822 4.97828168979053753418 4.97828168979053753418 2.43521558779265712147 12.60747999578417832822 4.97828168979053753418 4.97828168979053753418 4.97828168979053753418 2.43521558779265712147 7.52134779178841839098 7.52134779178841839098 7.52134779178841839098 4.97828168979053753418 -0.10785051420522315246 7.52134779178841839098 4.97828168979053753418 12.60747999578417832822 17.69361219977994181818 20.23667830177782178680 22.77974440377570175542 17.69361219977994181818 17.69361219977994181818 17.69361219977994181818 17.69361219977994181818 22.77974440377570175542 12.60747999578417832822 15.15054609778206007320 17.69361219977994181818 12.60747999578417832822 10.06441389378629835960 15.15054609778206007320 17.69361219977994181818 15.15054609778206007320 15.15054609778206007320 10.06441389378629835960 4.97828168979053753418 7.52134779178841839098 7.52134779178841839098 4.97828168979053753418 -0.10785051420522315246 4.97828168979053753418 2.43521558779265712147 -2.65091661620310370395 -2.65091661620310370395 -7.73704882019886497346 -10.28011492219674671844 -5.19398271820098500484 -10.28011492219674671844 -10.28011492219674671844 -2.65091661620310370395 -0.10785051420522315246 4.97828168979053753418 4.97828168979053753418 -2.65091661620310370395 -0.10785051420522315246 -5.19398271820098500484 -10.28011492219674671844 -15.36624712619250665568 -2.65091661620310370395 4.97828168979053753418 7.52134779178841839098 7.52134779178841839098 -0.10785051420522315246 2.43521558779265712147 4.97828168979053753418 -0.10785051420522315246 4.97828168979053753418 7.52134779178841839098 10.06441389378629835960 12.60747999578417832822 7.52134779178841839098 12.60747999578417832822 12.60747999578417832822 12.60747999578417832822 12.60747999578417832822 10.06441389378629835960 17.69361219977994181818 20.23667830177782178680 12.60747999578417832822 15.15054609778206007320 15.15054609778206007320 12.60747999578417832822 12.60747999578417832822 17.69361219977994181818 12.60747999578417832822 10.06441389378629835960 15.15054609778206007320 12.60747999578417832822 17.69361219977994181818 10.06441389378629835960 12.60747999578417832822 20.23667830177782178680 12.60747999578417832822 10.06441389378629835960 12.60747999578417832822 12.60747999578417832822 10.06441389378629835960 12.60747999578417832822 12.60747999578417832822 15.15054609778206007320 15.15054609778206007320 7.52134779178841839098 7.52134779178841839098 7.52134779178841839098 4.97828168979053753418 10.06441389378629835960 10.06441389378629835960 12.60747999578417832822 7.52134779178841839098 -2.65091661620310370395 4.97828168979053753418 4.97828168979053753418 7.52134779178841839098 10.06441389378629835960 12.60747999578417832822 12.60747999578417832822 -2.65091661620310370395 -0.10785051420522315246 -12.82318102419462668706 -12.82318102419462668706 -15.36624712619250665568 -28.08157763618190827515 -28.08157763618190827515 -28.08157763618190827515 -30.62464373817978469106 -28.08157763618190827515 -22.99544543218614833791 -40.79690814617131167097 -35.71077594217555173373 -25.53851153418402475381 -20.45237933018826481657 -17.90931322819038484795 -22.99544543218614833791 -20.45237933018826481657 -15.36624712619250665568 -22.99544543218614833791 -22.99544543218614833791 -22.99544543218614833791 -22.99544543218614833791 -12.82318102419462668706 -17.90931322819038484795 -17.90931322819038484795 -22.99544543218614833791 -20.45237933018826481657 -28.08157763618190827515 -20.45237933018826481657 -22.99544543218614833791 -28.08157763618190827515 -20.45237933018826481657 -17.90931322819038484795 -28.08157763618190827515 -25.53851153418402475381 -25.53851153418402475381 -20.45237933018826481657 -20.45237933018826481657 -20.45237933018826481657 -17.90931322819038484795 -15.36624712619250665568 -25.53851153418402475381 -20.45237933018826481657 -25.53851153418402475381 -25.53851153418402475381 -17.90931322819038484795 -25.53851153418402475381 -20.45237933018826481657 -20.45237933018826481657 -25.53851153418402475381 -20.45237933018826481657 -17.90931322819038484795 -22.99544543218614833791 -25.53851153418402475381 -25.53851153418402475381 -22.99544543218614833791 -25.53851153418402475381 -20.45237933018826481657 -25.53851153418402475381 -20.45237933018826481657 -20.45237933018826481657 -25.53851153418402475381 -17.90931322819038484795 -17.90931322819038484795 -15.36624712619250665568 -17.90931322819038484795 -20.45237933018826481657 -17.90931322819038484795 -22.99544543218614833791 -20.45237933018826481657 -20.45237933018826481657 -20.45237933018826481657 -15.36624712619250665568 -17.90931322819038484795 -20.45237933018826481657 -17.90931322819038484795 -20.45237933018826481657 -20.45237933018826481657 -22.99544543218614833791 -22.99544543218614833791 -15.36624712619250665568 -15.36624712619250665568 -17.90931322819038484795 -25.53851153418402475381 -12.82318102419462668706 -22.99544543218614833791 -30.62464373817978469106 -25.53851153418402475381 -22.99544543218614833791 -22.99544543218614833791 -20.45237933018826481657 -17.90931322819038484795 -22.99544543218614833791 -20.45237933018826481657 -20.45237933018826481657 -22.99544543218614833791 -20.45237933018826481657 -17.90931322819038484795 -15.36624712619250665568 -12.82318102419462668706 -20.45237933018826481657 -12.82318102419462668706 -20.45237933018826481657 -25.53851153418402475381 -22.99544543218614833791 -17.90931322819038484795 -28.08157763618190827515 -15.36624712619250665568 -5.19398271820098500484 -7.73704882019886497346 -17.90931322819038484795 -5.19398271820098500484 -2.65091661620310370395 -7.73704882019886497346 -10.28011492219674671844 -5.19398271820098500484 -10.28011492219674671844 -7.73704882019886497346 -20.45237933018826481657 -22.99544543218614833791 -35.71077594217555173373 -22.99544543218614833791 -22.99544543218614833791 -25.53851153418402475381 -33.16770984017766465968 -35.71077594217555173373 -28.08157763618190827515 -28.08157763618190827515 -25.53851153418402475381 -28.08157763618190827515 -22.99544543218614833791 -25.53851153418402475381 -25.53851153418402475381 -25.53851153418402475381 -20.45237933018826481657 -17.90931322819038484795 -7.73704882019886497346 -17.90931322819038484795 -20.45237933018826481657 -35.71077594217555173373 -35.71077594217555173373 -35.71077594217555173373 -38.25384204417342459692 -38.25384204417342459692 -38.25384204417342459692 -35.71077594217555173373 -35.71077594217555173373 -38.25384204417342459692 -30.62464373817978469106 -28.08157763618190827515 -25.53851153418402475381 -25.53851153418402475381 -30.62464373817978469106 -25.53851153418402475381 -22.99544543218614833791 -28.08157763618190827515 -35.71077594217555173373 -30.62464373817978469106 -28.08157763618190827515 -28.08157763618190827515 -30.62464373817978469106 -33.16770984017766465968 -28.08157763618190827515 -25.53851153418402475381 -28.08157763618190827515 -25.53851153418402475381 -17.90931322819038484795 -10.28011492219674671844 -15.36624712619250665568 -10.28011492219674671844 4.97828168979053753418 7.52134779178841839098 -5.19398271820098500484 -7.73704882019886497346 -12.82318102419462668706 -7.73704882019886497346 -7.73704882019886497346 -7.73704882019886497346 -15.36624712619250665568 -22.99544543218614833791 -17.90931322819038484795 -17.90931322819038484795 -20.45237933018826481657 -20.45237933018826481657 -17.90931322819038484795 -12.82318102419462668706 -10.28011492219674671844 -10.28011492219674671844 -10.28011492219674671844 -5.19398271820098500484 -7.73704882019886497346 -2.65091661620310370395 -5.19398271820098500484 -0.10785051420522315246 2.43521558779265712147 -0.10785051420522315246 7.52134779178841839098 -2.65091661620310370395 -2.65091661620310370395 -10.28011492219674671844 -15.36624712619250665568 -22.99544543218614833791 -20.45237933018826481657 -10.28011492219674671844 -17.90931322819038484795 -17.90931322819038484795 -15.36624712619250665568 -20.45237933018826481657 -20.45237933018826481657 -15.36624712619250665568 -20.45237933018826481657 -20.45237933018826481657 -22.99544543218614833791 -20.45237933018826481657 -28.08157763618190827515 -17.90931322819038484795 -10.28011492219674671844 -7.73704882019886497346 -7.73704882019886497346 4.97828168979053753418 22.77974440377570175542 -25.53851153418402475381 -20.45237933018826481657 -22.99544543218614833791 -12.82318102419462668706 -5.19398271820098500484 -20.45237933018826481657 12.60747999578417832822 12.60747999578417832822 7.52134779178841839098 25.32281050577358527676 30.40894270976934521400 30.40894270976934521400 22.77974440377570175542 20.23667830177782178680 7.52134779178841839098 10.06441389378629835960 7.52134779178841839098 12.60747999578417832822 17.69361219977994181818 17.69361219977994181818 7.52134779178841839098 12.60747999578417832822 15.15054609778206007320 15.15054609778206007320 15.15054609778206007320 12.60747999578417832822 15.15054609778206007320 12.60747999578417832822 15.15054609778206007320 10.06441389378629835960 15.15054609778206007320 12.60747999578417832822 20.23667830177782178680 12.60747999578417832822 17.69361219977994181818 17.69361219977994181818 22.77974440377570175542 20.23667830177782178680 17.69361219977994181818 17.69361219977994181818 20.23667830177782178680 17.69361219977994181818 22.77974440377570175542 22.77974440377570175542 20.23667830177782178680 20.23667830177782178680 25.32281050577358527676 22.77974440377570175542 25.32281050577358527676 25.32281050577358527676 25.32281050577358527676 22.77974440377570175542 22.77974440377570175542 25.32281050577358527676 20.23667830177782178680 27.86587660777146524538 25.32281050577358527676 25.32281050577358527676 30.40894270976934521400 30.40894270976934521400 32.95200881176722873533 30.40894270976934521400 17.69361219977994181818 20.23667830177782178680 17.69361219977994181818 17.69361219977994181818 20.23667830177782178680 22.77974440377570175542 22.77974440377570175542 22.77974440377570175542 20.23667830177782178680 25.32281050577358527676 20.23667830177782178680 22.77974440377570175542 17.69361219977994181818 12.60747999578417832822 22.77974440377570175542 27.86587660777146524538 30.40894270976934521400 38.03814101576298867258 30.40894270976934521400 25.32281050577358527676 27.86587660777146524538 30.40894270976934521400 35.49507491376510159853 32.95200881176722873533 27.86587660777146524538 30.40894270976934521400 30.40894270976934521400 35.49507491376510159853 22.77974440377570175542 27.86587660777146524538 27.86587660777146524538 30.40894270976934521400 32.95200881176722873533 40.58120711776086153577 30.40894270976934521400 38.03814101576298867258 35.49507491376510159853 40.58120711776086153577 40.58120711776086153577 38.03814101576298867258 45.66733932175662857844 38.03814101576298867258 38.03814101576298867258 40.58120711776086153577 38.03814101576298867258 43.12427321975874860982 43.12427321975874860982 40.58120711776086153577 35.49507491376510159853 40.58120711776086153577 38.03814101576298867258 27.86587660777146524538 35.49507491376510159853 30.40894270976934521400 30.40894270976934521400 35.49507491376510159853 38.03814101576298867258 25.32281050577358527676 25.32281050577358527676 15.15054609778206007320 12.60747999578417832822 -2.65091661620310370395 2.43521558779265712147 -17.90931322819038484795 -10.28011492219674671844 -12.82318102419462668706 -2.65091661620310370395 2.43521558779265712147 -0.10785051420522315246 -5.19398271820098500484 4.97828168979053753418 22.77974440377570175542 32.95200881176722873533 30.40894270976934521400 30.40894270976934521400 27.86587660777146524538 2.43521558779265712147 17.69361219977994181818 38.03814101576298867258 40.58120711776086153577 45.66733932175662857844 40.58120711776086153577 38.03814101576298867258 35.49507491376510159853 35.49507491376510159853 38.03814101576298867258 35.49507491376510159853 32.95200881176722873533 38.03814101576298867258 43.12427321975874860982 40.58120711776086153577 45.66733932175662857844 43.12427321975874860982 38.03814101576298867258 35.49507491376510159853 32.95200881176722873533 40.58120711776086153577 38.03814101576298867258 25.32281050577358527676 22.77974440377570175542 22.77974440377570175542 25.32281050577358527676 25.32281050577358527676 25.32281050577358527676 22.77974440377570175542 25.32281050577358527676 22.77974440377570175542 20.23667830177782178680 22.77974440377570175542 17.69361219977994181818 20.23667830177782178680 12.60747999578417832822 -2.65091661620310370395 -0.10785051420522315246 4.97828168979053753418 2.43521558779265712147 10.06441389378629835960 10.06441389378629835960 2.43521558779265712147 2.43521558779265712147 4.97828168979053753418 40.58120711776086153577 32.95200881176722873533 38.03814101576298867258 43.12427321975874860982 -2.65091661620310370395 48.21040542375450854706 -12.82318102419462668706 -40.79690814617131167097 -15.36624712619250665568 -25.53851153418402475381 -45.88304035016707160821 -50.96917255416283154545 -45.88304035016707160821 -45.88304035016707160821 -43.33997424816919163959 -45.88304035016707160821 -48.42610645216495868226 -33.16770984017766465968 -28.08157763618190827515 -15.36624712619250665568 -25.53851153418402475381 -25.53851153418402475381 -28.08157763618190827515 10.06441389378629835960 -5.19398271820098500484 -5.19398271820098500484 -5.19398271820098500484 -5.19398271820098500484 -12.82318102419462668706 -17.90931322819038484795 -20.45237933018826481657 -10.28011492219674671844 -12.82318102419462668706 -7.73704882019886497346 -10.28011492219674671844 -2.65091661620310370395 -5.19398271820098500484 -7.73704882019886497346 -2.65091661620310370395 -12.82318102419462668706 -5.19398271820098500484 -7.73704882019886497346 -7.73704882019886497346 -7.73704882019886497346 -5.19398271820098500484 -5.19398271820098500484 -7.73704882019886497346 -0.10785051420522315246 4.97828168979053753418 12.60747999578417832822 27.86587660777146524538 25.32281050577358527676 35.49507491376510159853 32.95200881176722873533 38.03814101576298867258 55.83960372974814845293 53.29653762775027558973 58.38266983174602842155 63.46880203574179546422 60.92573593374390839017 38.03814101576298867258 40.58120711776086153577 35.49507491376510159853 40.58120711776086153577 25.32281050577358527676 45.66733932175662857844 38.03814101576298867258 43.12427321975874860982 38.03814101576298867258 43.12427321975874860982 38.03814101576298867258 43.12427321975874860982 40.58120711776086153577 35.49507491376510159853 48.21040542375450854706 32.95200881176722873533 38.03814101576298867258 27.86587660777146524538 22.77974440377570175542 17.69361219977994181818 10.06441389378629835960 -5.19398271820098500484 -12.82318102419462668706 -12.82318102419462668706 -15.36624712619250665568 -17.90931322819038484795 -15.36624712619250665568 7.52134779178841839098 20.23667830177782178680 17.69361219977994181818 4.97828168979053753418 10.06441389378629835960 10.06441389378629835960 7.52134779178841839098 15.15054609778206007320 12.60747999578417832822 10.06441389378629835960 15.15054609778206007320 22.77974440377570175542 25.32281050577358527676 27.86587660777146524538 22.77974440377570175542 32.95200881176722873533 22.77974440377570175542 32.95200881176722873533 17.69361219977994181818 25.32281050577358527676 10.06441389378629835960 10.06441389378629835960 7.52134779178841839098 17.69361219977994181818 17.69361219977994181818 10.06441389378629835960 10.06441389378629835960 15.15054609778206007320 10.06441389378629835960 15.15054609778206007320 7.52134779178841839098 12.60747999578417832822 12.60747999578417832822 10.06441389378629835960 17.69361219977994181818 12.60747999578417832822 17.69361219977994181818 15.15054609778206007320 22.77974440377570175542 17.69361219977994181818 17.69361219977994181818 17.69361219977994181818 22.77974440377570175542 25.32281050577358527676 30.40894270976934521400 40.58120711776086153577 45.66733932175662857844 38.03814101576298867258 45.66733932175662857844 43.12427321975874860982 48.21040542375450854706 43.12427321975874860982 45.66733932175662857844 38.03814101576298867258 45.66733932175662857844 53.29653762775027558973 58.38266983174602842155 53.29653762775027558973 63.46880203574179546422 48.21040542375450854706 50.75347152575238851568 45.66733932175662857844 55.83960372974814845293 58.38266983174602842155 55.83960372974814845293 63.46880203574179546422 60.92573593374390839017 55.83960372974814845293 60.92573593374390839017 63.46880203574179546422 58.38266983174602842155 55.83960372974814845293 48.21040542375450854706 58.38266983174602842155 60.92573593374390839017 60.92573593374390839017 53.29653762775027558973 50.75347152575238851568 53.29653762775027558973 50.75347152575238851568 55.83960372974814845293 53.29653762775027558973 43.12427321975874860982 48.21040542375450854706 58.38266983174602842155 58.38266983174602842155 53.29653762775027558973 58.38266983174602842155 53.29653762775027558973 55.83960372974814845293 53.29653762775027558973 58.38266983174602842155 50.75347152575238851568 48.21040542375450854706 58.38266983174602842155 48.21040542375450854706 55.83960372974814845293 58.38266983174602842155 58.38266983174602842155 58.38266983174602842155 58.38266983174602842155 58.38266983174602842155 58.38266983174602842155 53.29653762775027558973 50.75347152575238851568 58.38266983174602842155 50.75347152575238851568 48.21040542375450854706 55.83960372974814845293 50.75347152575238851568 53.29653762775027558973 58.38266983174602842155 53.29653762775027558973 53.29653762775027558973 53.29653762775027558973 53.29653762775027558973 53.29653762775027558973 55.83960372974814845293 55.83960372974814845293 50.75347152575238851568 53.29653762775027558973 55.83960372974814845293 58.38266983174602842155 53.29653762775027558973 53.29653762775027558973 58.38266983174602842155 60.92573593374390839017 60.92573593374390839017 53.29653762775027558973 55.83960372974814845293 43.12427321975874860982 53.29653762775027558973 45.66733932175662857844 45.66733932175662857844 48.21040542375450854706 53.29653762775027558973 53.29653762775027558973 48.21040542375450854706 48.21040542375450854706 43.12427321975874860982 48.21040542375450854706 55.83960372974814845293 55.83960372974814845293 53.29653762775027558973 55.83960372974814845293 53.29653762775027558973 58.38266983174602842155 60.92573593374390839017 50.75347152575238851568 50.75347152575238851568 53.29653762775027558973 53.29653762775027558973 55.83960372974814845293 53.29653762775027558973 50.75347152575238851568 45.66733932175662857844 48.21040542375450854706 43.12427321975874860982 40.58120711776086153577 43.12427321975874860982 45.66733932175662857844 58.38266983174602842155 71.09800034173542826466 73.64106644373330823328 71.09800034173542826466 71.09800034173542826466 66.01186813773966832741 68.55493423973754829603 60.92573593374390839017 66.01186813773966832741 60.92573593374390839017 58.38266983174602842155 60.92573593374390839017 55.83960372974814845293 60.92573593374390839017 71.09800034173542826466 76.18413254573118820190 78.72719864772908238137 83.81333085172482810776 81.27026474972694813914 78.72719864772908238137 73.64106644373330823328 81.27026474972694813914 73.64106644373330823328 81.27026474972694813914 78.72719864772908238137 83.81333085172482810776 83.81333085172482810776 81.27026474972694813914 78.72719864772908238137 71.09800034173542826466 71.09800034173542826466 73.64106644373330823328 76.18413254573118820190 71.09800034173542826466 78.72719864772908238137 76.18413254573118820190 73.64106644373330823328 71.09800034173542826466 73.64106644373330823328 68.55493423973754829603 76.18413254573118820190 78.72719864772908238137 76.18413254573118820190 78.72719864772908238137 73.64106644373330823328 73.64106644373330823328 76.18413254573118820190 73.64106644373330823328 78.72719864772908238137 76.18413254573118820190 73.64106644373330823328 78.72719864772908238137 76.18413254573118820190 76.18413254573118820190 78.72719864772908238137 73.64106644373330823328 73.64106644373330823328 78.72719864772908238137 81.27026474972694813914 71.09800034173542826466 76.18413254573118820190 76.18413254573118820190 76.18413254573118820190 78.72719864772908238137 78.72719864772908238137 71.09800034173542826466 73.64106644373330823328 81.27026474972694813914 78.72719864772908238137 78.72719864772908238137 73.64106644373330823328 73.64106644373330823328 83.81333085172482810776 76.18413254573118820190 78.72719864772908238137 78.72719864772908238137 76.18413254573118820190 76.18413254573118820190 81.27026474972694813914 81.27026474972694813914 81.27026474972694813914 76.18413254573118820190 76.18413254573118820190 71.09800034173542826466 71.09800034173542826466 78.72719864772908238137 60.92573593374390839017 40.58120711776086153577 35.49507491376510159853 35.49507491376510159853 32.95200881176722873533 27.86587660777146524538 32.95200881176722873533 35.49507491376510159853 27.86587660777146524538 30.40894270976934521400 32.95200881176722873533 35.49507491376510159853 38.03814101576298867258 35.49507491376510159853 35.49507491376510159853 30.40894270976934521400 32.95200881176722873533 32.95200881176722873533 38.03814101576298867258 30.40894270976934521400 38.03814101576298867258 38.03814101576298867258 40.58120711776086153577 50.75347152575238851568 53.29653762775027558973 58.38266983174602842155 63.46880203574179546422 68.55493423973754829603 68.55493423973754829603 76.18413254573118820190 71.09800034173542826466 53.29653762775027558973 58.38266983174602842155 60.92573593374390839017 60.92573593374390839017 63.46880203574179546422 68.55493423973754829603 58.38266983174602842155 55.83960372974814845293 43.12427321975874860982 20.23667830177782178680 22.77974440377570175542 12.60747999578417832822 7.52134779178841839098 15.15054609778206007320 15.15054609778206007320 17.69361219977994181818 22.77974440377570175542 20.23667830177782178680 25.32281050577358527676 22.77974440377570175542 17.69361219977994181818 17.69361219977994181818 20.23667830177782178680 20.23667830177782178680 22.77974440377570175542 15.15054609778206007320 4.97828168979053753418 7.52134779178841839098 10.06441389378629835960 2.43521558779265712147 -0.10785051420522315246 -5.19398271820098500484 2.43521558779265712147 2.43521558779265712147 -0.10785051420522315246 2.43521558779265712147 4.97828168979053753418 4.97828168979053753418 7.52134779178841839098 10.06441389378629835960 10.06441389378629835960 17.69361219977994181818 20.23667830177782178680 12.60747999578417832822 12.60747999578417832822 15.15054609778206007320 15.15054609778206007320 7.52134779178841839098 15.15054609778206007320 15.15054609778206007320 17.69361219977994181818 25.32281050577358527676 48.21040542375450854706 50.75347152575238851568 53.29653762775027558973 58.38266983174602842155 68.55493423973754829603 58.38266983174602842155 48.21040542375450854706 58.38266983174602842155 53.29653762775027558973 58.38266983174602842155 60.92573593374390839017 66.01186813773966832741 55.83960372974814845293 45.66733932175662857844 55.83960372974814845293 48.21040542375450854706 55.83960372974814845293 63.46880203574179546422 48.21040542375450854706 40.58120711776086153577 50.75347152575238851568 25.32281050577358527676 10.06441389378629835960 7.52134779178841839098 38.03814101576298867258 30.40894270976934521400 38.03814101576298867258 38.03814101576298867258 27.86587660777146524538 7.52134779178841839098 -17.90931322819038484795 4.97828168979053753418 2.43521558779265712147 2.43521558779265712147 4.97828168979053753418 10.06441389378629835960 12.60747999578417832822 20.23667830177782178680 25.32281050577358527676 35.49507491376510159853 27.86587660777146524538 30.40894270976934521400 17.69361219977994181818 10.06441389378629835960 17.69361219977994181818 27.86587660777146524538 27.86587660777146524538 27.86587660777146524538 30.40894270976934521400 22.77974440377570175542 22.77974440377570175542 15.15054609778206007320 15.15054609778206007320 20.23667830177782178680 22.77974440377570175542 10.06441389378629835960 25.32281050577358527676 40.58120711776086153577 45.66733932175662857844 43.12427321975874860982 43.12427321975874860982 40.58120711776086153577 43.12427321975874860982 45.66733932175662857844 43.12427321975874860982 43.12427321975874860982 35.49507491376510159853 27.86587660777146524538 30.40894270976934521400 22.77974440377570175542 32.95200881176722873533 27.86587660777146524538 32.95200881176722873533 30.40894270976934521400 30.40894270976934521400 30.40894270976934521400 30.40894270976934521400 32.95200881176722873533 35.49507491376510159853 38.03814101576298867258 43.12427321975874860982 55.83960372974814845293 66.01186813773966832741 55.83960372974814845293 63.46880203574179546422 53.29653762775027558973 58.38266983174602842155 40.58120711776086153577 58.38266983174602842155 50.75347152575238851568 53.29653762775027558973 50.75347152575238851568 48.21040542375450854706 55.83960372974814845293 53.29653762775027558973 55.83960372974814845293 63.46880203574179546422 66.01186813773966832741 71.09800034173542826466 71.09800034173542826466 63.46880203574179546422 60.92573593374390839017 55.83960372974814845293 50.75347152575238851568 48.21040542375450854706 45.66733932175662857844 43.12427321975874860982 48.21040542375450854706 50.75347152575238851568 53.29653762775027558973 48.21040542375450854706 55.83960372974814845293 45.66733932175662857844 43.12427321975874860982 40.58120711776086153577 48.21040542375450854706 45.66733932175662857844 55.83960372974814845293 71.09800034173542826466 73.64106644373330823328 60.92573593374390839017 50.75347152575238851568 55.83960372974814845293 55.83960372974814845293 45.66733932175662857844 38.03814101576298867258 38.03814101576298867258 43.12427321975874860982 35.49507491376510159853 40.58120711776086153577 35.49507491376510159853 38.03814101576298867258 43.12427321975874860982 43.12427321975874860982 48.21040542375450854706 63.46880203574179546422 58.38266983174602842155 68.55493423973754829603 58.38266983174602842155 60.92573593374390839017 50.75347152575238851568 53.29653762775027558973 55.83960372974814845293 58.38266983174602842155 60.92573593374390839017 50.75347152575238851568 58.38266983174602842155 68.55493423973754829603 58.38266983174602842155 68.55493423973754829603 45.66733932175662857844 20.23667830177782178680 4.97828168979053753418 -10.28011492219674671844 -12.82318102419462668706 -12.82318102419462668706 -5.19398271820098500484 2.43521558779265712147 -0.10785051420522315246 -7.73704882019886497346 -10.28011492219674671844 -10.28011492219674671844 2.43521558779265712147 2.43521558779265712147 7.52134779178841839098 -5.19398271820098500484 -10.28011492219674671844 -2.65091661620310370395 -10.28011492219674671844 -15.36624712619250665568 -12.82318102419462668706 -12.82318102419462668706 -10.28011492219674671844 -10.28011492219674671844 -7.73704882019886497346 -7.73704882019886497346 -7.73704882019886497346 -12.82318102419462668706 -12.82318102419462668706 -10.28011492219674671844 -7.73704882019886497346 -10.28011492219674671844 -7.73704882019886497346 -5.19398271820098500484 -5.19398271820098500484 -2.65091661620310370395 4.97828168979053753418 -10.28011492219674671844 -7.73704882019886497346 -5.19398271820098500484 2.43521558779265712147 2.43521558779265712147 2.43521558779265712147 -2.65091661620310370395 2.43521558779265712147 -0.10785051420522315246 7.52134779178841839098 4.97828168979053753418 2.43521558779265712147 -0.10785051420522315246 4.97828168979053753418 7.52134779178841839098 4.97828168979053753418 10.06441389378629835960 7.52134779178841839098 12.60747999578417832822 4.97828168979053753418 7.52134779178841839098 7.52134779178841839098 10.06441389378629835960 12.60747999578417832822 7.52134779178841839098 10.06441389378629835960 7.52134779178841839098 10.06441389378629835960 10.06441389378629835960 15.15054609778206007320 10.06441389378629835960 12.60747999578417832822 7.52134779178841839098 10.06441389378629835960 10.06441389378629835960 10.06441389378629835960 10.06441389378629835960 4.97828168979053753418 10.06441389378629835960 12.60747999578417832822 20.23667830177782178680 10.06441389378629835960 2.43521558779265712147 4.97828168979053753418 10.06441389378629835960 12.60747999578417832822 12.60747999578417832822 7.52134779178841839098 12.60747999578417832822 12.60747999578417832822 10.06441389378629835960 4.97828168979053753418 4.97828168979053753418 7.52134779178841839098 10.06441389378629835960 12.60747999578417832822 10.06441389378629835960 7.52134779178841839098 12.60747999578417832822 7.52134779178841839098 10.06441389378629835960 12.60747999578417832822 7.52134779178841839098 7.52134779178841839098 10.06441389378629835960 4.97828168979053753418 7.52134779178841839098 10.06441389378629835960 10.06441389378629835960 7.52134779178841839098 7.52134779178841839098 10.06441389378629835960 12.60747999578417832822 7.52134779178841839098 10.06441389378629835960 10.06441389378629835960 7.52134779178841839098 7.52134779178841839098 4.97828168979053753418 4.97828168979053753418 7.52134779178841839098 10.06441389378629835960 10.06441389378629835960 15.15054609778206007320 10.06441389378629835960 7.52134779178841839098 4.97828168979053753418 2.43521558779265712147 2.43521558779265712147 2.43521558779265712147 7.52134779178841839098 7.52134779178841839098 7.52134779178841839098 4.97828168979053753418 2.43521558779265712147 -0.10785051420522315246 -0.10785051420522315246 2.43521558779265712147 2.43521558779265712147 -0.10785051420522315246 -0.10785051420522315246 2.43521558779265712147 -2.65091661620310370395 -2.65091661620310370395 -0.10785051420522315246 -5.19398271820098500484 2.43521558779265712147 2.43521558779265712147 -0.10785051420522315246 -2.65091661620310370395 -0.10785051420522315246 -2.65091661620310370395 -0.10785051420522315246 -2.65091661620310370395 -2.65091661620310370395 -2.65091661620310370395 -0.10785051420522315246 2.43521558779265712147 -2.65091661620310370395 2.43521558779265712147 -0.10785051420522315246 -0.10785051420522315246 -2.65091661620310370395 2.43521558779265712147 -2.65091661620310370395 -5.19398271820098500484 -2.65091661620310370395 -0.10785051420522315246 -0.10785051420522315246 -2.65091661620310370395 -2.65091661620310370395 -2.65091661620310370395 -0.10785051420522315246 -0.10785051420522315246 2.43521558779265712147 2.43521558779265712147 2.43521558779265712147 -0.10785051420522315246 -0.10785051420522315246 -0.10785051420522315246 -2.65091661620310370395 -0.10785051420522315246 -0.10785051420522315246 2.43521558779265712147 2.43521558779265712147 -0.10785051420522315246 -0.10785051420522315246 -0.10785051420522315246 4.97828168979053753418 2.43521558779265712147 -2.65091661620310370395 -0.10785051420522315246 2.43521558779265712147 2.43521558779265712147 4.97828168979053753418 -0.10785051420522315246 4.97828168979053753418 2.43521558779265712147 -5.19398271820098500484 -2.65091661620310370395 -5.19398271820098500484 -5.19398271820098500484 -0.10785051420522315246 -0.10785051420522315246 -2.65091661620310370395 -2.65091661620310370395 -5.19398271820098500484 -2.65091661620310370395 2.43521558779265712147 -0.10785051420522315246 -5.19398271820098500484 -5.19398271820098500484 2.43521558779265712147 -2.65091661620310370395 -2.65091661620310370395 -7.73704882019886497346 -7.73704882019886497346 -7.73704882019886497346 -2.65091661620310370395 -0.10785051420522315246 -0.10785051420522315246 -10.28011492219674671844 -5.19398271820098500484 -7.73704882019886497346 -2.65091661620310370395 2.43521558779265712147 -12.82318102419462668706 -12.82318102419462668706 -10.28011492219674671844 -12.82318102419462668706 -7.73704882019886497346 -5.19398271820098500484 7.52134779178841839098 7.52134779178841839098 2.43521558779265712147 4.97828168979053753418 10.06441389378629835960 4.97828168979053753418 4.97828168979053753418 7.52134779178841839098 7.52134779178841839098 -0.10785051420522315246 4.97828168979053753418 4.97828168979053753418 7.52134779178841839098 2.43521558779265712147 -0.10785051420522315246 -5.19398271820098500484 -5.19398271820098500484 -5.19398271820098500484 2.43521558779265712147 2.43521558779265712147 2.43521558779265712147 -2.65091661620310370395 -0.10785051420522315246 -0.10785051420522315246 -2.65091661620310370395 -5.19398271820098500484 -5.19398271820098500484 -10.28011492219674671844 -2.65091661620310370395 -0.10785051420522315246 -7.73704882019886497346 -2.65091661620310370395 -0.10785051420522315246 4.97828168979053753418 -0.10785051420522315246 2.43521558779265712147 7.52134779178841839098 2.43521558779265712147 7.52134779178841839098 4.97828168979053753418 -0.10785051420522315246 -0.10785051420522315246 -2.65091661620310370395 -5.19398271820098500484 -0.10785051420522315246 -0.10785051420522315246 7.52134779178841839098 -5.19398271820098500484 -0.10785051420522315246 -2.65091661620310370395 -10.28011492219674671844 -10.28011492219674671844 4.97828168979053753418 2.43521558779265712147 -0.10785051420522315246 -5.19398271820098500484 -2.65091661620310370395 2.43521558779265712147 12.60747999578417832822 10.06441389378629835960 12.60747999578417832822 7.52134779178841839098 10.06441389378629835960 4.97828168979053753418 -12.82318102419462668706 17.69361219977994181818 7.52134779178841839098 4.97828168979053753418 -28.08157763618190827515 -25.53851153418402475381 -20.45237933018826481657 4.97828168979053753418 10.06441389378629835960 25.32281050577358527676 43.12427321975874860982 71.09800034173542826466 68.55493423973754829603 73.64106644373330823328 63.46880203574179546422 66.01186813773966832741 50.75347152575238851568 45.66733932175662857844 27.86587660777146524538 38.03814101576298867258 32.95200881176722873533 27.86587660777146524538 30.40894270976934521400 40.58120711776086153577 73.64106644373330823328 58.38266983174602842155 58.38266983174602842155 73.64106644373330823328 83.81333085172482810776 78.72719864772908238137 83.81333085172482810776 78.72719864772908238137 78.72719864772908238137 83.81333085172482810776 78.72719864772908238137 78.72719864772908238137 76.18413254573118820190 78.72719864772908238137 81.27026474972694813914 73.64106644373330823328 81.27026474972694813914 71.09800034173542826466 73.64106644373330823328 76.18413254573118820190 83.81333085172482810776 81.27026474972694813914 76.18413254573118820190 68.55493423973754829603 73.64106644373330823328 76.18413254573118820190 78.72719864772908238137 68.55493423973754829603 66.01186813773966832741 66.01186813773966832741 63.46880203574179546422 60.92573593374390839017 63.46880203574179546422 58.38266983174602842155 63.46880203574179546422 63.46880203574179546422 60.92573593374390839017 63.46880203574179546422 55.83960372974814845293 55.83960372974814845293 58.38266983174602842155 66.01186813773966832741 63.46880203574179546422 60.92573593374390839017 58.38266983174602842155 58.38266983174602842155 58.38266983174602842155 58.38266983174602842155 53.29653762775027558973 55.83960372974814845293 55.83960372974814845293 43.12427321975874860982 43.12427321975874860982 40.58120711776086153577 43.12427321975874860982 43.12427321975874860982 40.58120711776086153577 32.95200881176722873533 43.12427321975874860982 38.03814101576298867258 35.49507491376510159853 40.58120711776086153577 35.49507491376510159853 35.49507491376510159853 35.49507491376510159853 40.58120711776086153577 32.95200881176722873533 32.95200881176722873533 35.49507491376510159853 32.95200881176722873533 25.32281050577358527676 27.86587660777146524538 25.32281050577358527676 17.69361219977994181818 30.40894270976934521400 27.86587660777146524538 30.40894270976934521400 27.86587660777146524538 17.69361219977994181818 20.23667830177782178680 17.69361219977994181818 20.23667830177782178680 15.15054609778206007320 25.32281050577358527676 25.32281050577358527676 32.95200881176722873533 25.32281050577358527676 35.49507491376510159853 32.95200881176722873533 32.95200881176722873533 30.40894270976934521400 32.95200881176722873533 35.49507491376510159853 35.49507491376510159853 32.95200881176722873533 40.58120711776086153577 35.49507491376510159853 38.03814101576298867258 40.58120711776086153577 40.58120711776086153577 38.03814101576298867258 40.58120711776086153577 40.58120711776086153577 40.58120711776086153577 40.58120711776086153577 38.03814101576298867258 40.58120711776086153577 38.03814101576298867258 43.12427321975874860982 40.58120711776086153577 40.58120711776086153577 35.49507491376510159853 35.49507491376510159853 38.03814101576298867258 40.58120711776086153577 43.12427321975874860982 38.03814101576298867258 38.03814101576298867258 35.49507491376510159853 38.03814101576298867258 38.03814101576298867258 43.12427321975874860982 40.58120711776086153577 40.58120711776086153577 38.03814101576298867258 38.03814101576298867258 38.03814101576298867258 43.12427321975874860982 35.49507491376510159853 40.58120711776086153577 32.95200881176722873533 35.49507491376510159853 38.03814101576298867258 35.49507491376510159853 30.40894270976934521400 32.95200881176722873533 32.95200881176722873533 30.40894270976934521400 35.49507491376510159853 25.32281050577358527676 30.40894270976934521400 25.32281050577358527676 27.86587660777146524538 32.95200881176722873533 32.95200881176722873533 35.49507491376510159853 32.95200881176722873533 35.49507491376510159853 38.03814101576298867258 38.03814101576298867258 35.49507491376510159853 40.58120711776086153577 38.03814101576298867258 35.49507491376510159853 38.03814101576298867258 40.58120711776086153577 43.12427321975874860982 43.12427321975874860982 40.58120711776086153577 35.49507491376510159853 38.03814101576298867258 40.58120711776086153577 40.58120711776086153577 40.58120711776086153577 40.58120711776086153577 38.03814101576298867258 35.49507491376510159853 40.58120711776086153577 38.03814101576298867258 40.58120711776086153577 38.03814101576298867258 40.58120711776086153577 40.58120711776086153577 38.03814101576298867258 40.58120711776086153577 43.12427321975874860982 38.03814101576298867258 38.03814101576298867258 35.49507491376510159853 38.03814101576298867258 38.03814101576298867258 38.03814101576298867258 32.95200881176722873533 35.49507491376510159853 38.03814101576298867258 35.49507491376510159853 35.49507491376510159853 40.58120711776086153577 40.58120711776086153577 32.95200881176722873533 35.49507491376510159853 32.95200881176722873533 40.58120711776086153577 40.58120711776086153577 35.49507491376510159853 38.03814101576298867258 40.58120711776086153577 40.58120711776086153577 40.58120711776086153577 45.66733932175662857844 38.03814101576298867258 43.12427321975874860982 43.12427321975874860982 40.58120711776086153577 38.03814101576298867258 43.12427321975874860982 43.12427321975874860982 40.58120711776086153577 40.58120711776086153577 38.03814101576298867258 40.58120711776086153577 43.12427321975874860982 38.03814101576298867258 38.03814101576298867258 40.58120711776086153577 40.58120711776086153577 43.12427321975874860982 45.66733932175662857844 45.66733932175662857844 43.12427321975874860982 40.58120711776086153577 43.12427321975874860982 35.49507491376510159853 40.58120711776086153577 40.58120711776086153577 43.12427321975874860982 38.03814101576298867258 40.58120711776086153577 40.58120711776086153577 40.58120711776086153577 40.58120711776086153577 43.12427321975874860982 38.03814101576298867258 38.03814101576298867258 40.58120711776086153577 40.58120711776086153577 45.66733932175662857844 40.58120711776086153577 40.58120711776086153577 40.58120711776086153577 38.03814101576298867258 43.12427321975874860982 45.66733932175662857844 43.12427321975874860982 40.58120711776086153577 40.58120711776086153577 40.58120711776086153577 38.03814101576298867258 45.66733932175662857844 40.58120711776086153577 43.12427321975874860982 43.12427321975874860982 43.12427321975874860982 45.66733932175662857844 45.66733932175662857844 38.03814101576298867258 40.58120711776086153577 40.58120711776086153577 40.58120711776086153577 45.66733932175662857844 40.58120711776086153577 45.66733932175662857844 43.12427321975874860982 40.58120711776086153577 43.12427321975874860982 40.58120711776086153577 38.03814101576298867258 43.12427321975874860982 45.66733932175662857844 43.12427321975874860982 40.58120711776086153577 38.03814101576298867258 43.12427321975874860982 40.58120711776086153577 43.12427321975874860982 43.12427321975874860982 40.58120711776086153577 40.58120711776086153577 45.66733932175662857844 43.12427321975874860982 38.03814101576298867258 40.58120711776086153577 35.49507491376510159853 38.03814101576298867258 45.66733932175662857844 43.12427321975874860982 43.12427321975874860982 38.03814101576298867258 40.58120711776086153577 43.12427321975874860982 43.12427321975874860982 38.03814101576298867258 40.58120711776086153577 43.12427321975874860982 43.12427321975874860982 38.03814101576298867258 38.03814101576298867258 40.58120711776086153577 40.58120711776086153577 43.12427321975874860982 38.03814101576298867258 38.03814101576298867258 43.12427321975874860982 40.58120711776086153577 40.58120711776086153577 38.03814101576298867258 35.49507491376510159853 35.49507491376510159853 30.40894270976934521400 35.49507491376510159853 35.49507491376510159853 27.86587660777146524538 27.86587660777146524538 32.95200881176722873533 35.49507491376510159853 35.49507491376510159853 35.49507491376510159853 38.03814101576298867258 38.03814101576298867258 35.49507491376510159853 55.83960372974814845293 55.83960372974814845293 55.83960372974814845293 53.29653762775027558973 48.21040542375450854706 45.66733932175662857844 43.12427321975874860982 45.66733932175662857844 43.12427321975874860982 45.66733932175662857844 45.66733932175662857844 43.12427321975874860982 48.21040542375450854706 40.58120711776086153577 45.66733932175662857844 45.66733932175662857844 45.66733932175662857844 43.12427321975874860982 43.12427321975874860982 45.66733932175662857844 43.12427321975874860982 40.58120711776086153577 43.12427321975874860982 45.66733932175662857844 43.12427321975874860982 43.12427321975874860982 45.66733932175662857844 40.58120711776086153577 43.12427321975874860982 43.12427321975874860982 38.03814101576298867258 40.58120711776086153577 45.66733932175662857844 38.03814101576298867258 45.66733932175662857844 43.12427321975874860982 43.12427321975874860982 43.12427321975874860982 53.29653762775027558973 58.38266983174602842155 55.83960372974814845293 58.38266983174602842155 55.83960372974814845293 50.75347152575238851568 55.83960372974814845293 48.21040542375450854706 55.83960372974814845293 53.29653762775027558973 50.75347152575238851568 50.75347152575238851568 48.21040542375450854706 48.21040542375450854706 45.66733932175662857844 38.03814101576298867258 45.66733932175662857844 45.66733932175662857844 45.66733932175662857844 48.21040542375450854706 40.58120711776086153577 50.75347152575238851568 48.21040542375450854706 48.21040542375450854706 45.66733932175662857844 48.21040542375450854706 50.75347152575238851568 50.75347152575238851568 55.83960372974814845293 50.75347152575238851568 53.29653762775027558973 53.29653762775027558973 48.21040542375450854706 45.66733932175662857844 48.21040542375450854706 40.58120711776086153577 43.12427321975874860982 38.03814101576298867258 45.66733932175662857844 48.21040542375450854706 45.66733932175662857844 50.75347152575238851568 50.75347152575238851568 45.66733932175662857844 48.21040542375450854706 50.75347152575238851568 53.29653762775027558973 55.83960372974814845293 53.29653762775027558973 55.83960372974814845293 58.38266983174602842155 50.75347152575238851568 55.83960372974814845293 53.29653762775027558973 53.29653762775027558973 50.75347152575238851568 53.29653762775027558973 58.38266983174602842155 53.29653762775027558973 55.83960372974814845293 53.29653762775027558973 53.29653762775027558973 50.75347152575238851568 50.75347152575238851568 50.75347152575238851568 55.83960372974814845293 50.75347152575238851568 55.83960372974814845293 53.29653762775027558973 53.29653762775027558973 50.75347152575238851568 50.75347152575238851568 55.83960372974814845293 58.38266983174602842155 58.38266983174602842155 60.92573593374390839017 63.46880203574179546422 60.92573593374390839017 