1.381119 -0.983444 -1.054151 -0.628489 0.267799 0.079195 -0.012875 0.500671 1.199006 -0.143131 0.977551 -0.635518 -0.161023 -0.014194 0.001576 0.473743 0.170954 1.466919 0.060652 -1.267617 -0.314214 -1.006241 2.423538 -1.536898 1.871518 0.187151 -1.266587 -0.769354 -0.697690 2.042917 0.165627 0.107086 -0.347053 0.390844 0.152555 0.552176 0.234619 -0.776599 -1.097960 0.135297 0.015945 0.451044 -0.307083 -0.082116 0.894863 -0.175393 -0.023049 0.028459 -1.809725 1.258154 1.267735 -0.519008 1.280807 -0.914427 0.219427 -1.254608 0.985629 -1.062644 1.041311 -0.576634 1.657009 0.095949 -1.730902 -0.479867 0.742784 -0.267616 0.378427 0.134538 0.050655 0.946321 -1.041305 0.169249 0.981876 -0.594536 -0.590794 0.301238 0.994446 -0.581516 0.327449 -1.217787 -0.371081 0.319411 -0.390541 1.674433 -1.737963 -0.073270 0.420625 0.529549 -1.196468 -0.364264 -0.151463 1.238786 2.162866 -1.558476 -0.399320 0.363926 -0.373860 2.155088 -0.648937 -1.039113 -1.160689 1.424674 0.858165 0.745924 0.324698 -0.716202 0.760906 -0.160254 -1.349965 -1.266391 0.952211 -0.663437 1.588484 -0.396514 1.257658 -0.008943 -0.403873 0.392473 -1.203458 -0.351945 1.250475 0.824492 -0.153085 0.035708 -1.295504 -0.384772 0.318401 -2.208192 2.001164 0.562952 -1.219415 0.560876 1.510447 -0.915975 0.211877 -0.814995 1.084703 -0.579589 -1.992360 0.730360 1.052729 -1.553463 1.329839 0.838840 -1.586287 0.436185 -0.342032 0.287457 0.523198 1.054486 -1.473181 -0.432367 -1.512259 -0.554868 0.180276 -0.060475 -0.112073 -0.115053 -1.033903 0.029493 -1.019592 0.451221 -0.445554 0.635773 -1.272000 0.849919 0.148883 0.387235 -0.852325 -0.338055 -0.199843 -0.177371 0.294745 0.452442 0.064234 1.329641 -1.431603 -2.283202 1.497478 0.329099 0.459029 -0.318164 -1.037261 -0.376512 1.609755 0.876497 -0.189006 0.889983 -0.148460 -0.473512 1.700896 -0.342586 -0.499020 -0.524219 0.307329 -0.798462 -1.140851 0.537146 2.373653 0.731777 -1.037662 0.240291 1.477468 -1.302302 0.585614 -0.636844 0.733076 -1.066025 -0.291382 0.390010 0.569977 -0.698998 -0.174018 -0.485963 1.187613 0.823163 0.745150 -1.482495 0.063897 1.405185 -1.353160 0.091850 0.531361 -0.735727 -0.195157 -0.037829 1.332531 0.434397 -0.257996 -0.449390 0.358976 -0.312816 1.288723 -0.444553 -0.527925 -0.998846 1.052391 1.231811 -0.482332 -0.509641 -0.089911 0.893740 -1.497327 0.481420 0.179273 -0.399551 0.362233 -0.313324 -0.084001 0.900673 -1.507739 1.814238 -0.758560 0.234023 -0.768501 -0.226977 0.384976 0.567366 -0.707388 0.718776 -0.200791 0.405822 -1.637879 0.859813 1.170488 -0.992351 0.652013 1.607219 -1.270698 -0.310236 1.327923 -0.020050 -0.840827 0.277270 0.122502 0.516066 -0.228287 0.441608 -1.151344 0.131929 0.968619 0.316478 -0.738016 0.740923 0.723557 -0.173121 1.384520 -2.163457 0.296093 1.048314 -0.559416 0.347475 0.636259 -0.648258 -0.130155 0.019028 0.033542 0.049075 0.506619 -0.244954 0.422618 1.535271 -1.694481 1.352561 -1.735801 0.379372 1.065254 -0.097236 1.387470 -1.257737 -0.313721 0.422833 0.154829 -0.348210 -1.387559 0.933764 -0.606392 1.146940 0.399144 0.163291 -0.321551 -1.830338 -0.108120 1.280878 0.366757 -1.633215 0.418683 -1.663207 -1.472237 0.358860 1.765792 -1.311249 0.449594 1.000319 0.252200 -0.365178 -0.098471 0.400522 -1.221813 -1.285884 1.322246 -0.112267 -0.975208 0.562822 -0.328202 1.605117 -1.733529 1.653923 -0.375751 0.295088 -1.213565 0.043890 -0.024564 0.380658 -0.351153 0.754131 1.550286 -1.277187 -1.244580 0.060809 1.280546 -0.969279 0.586419 -0.255620 -0.110253 0.401162 0.110221 0.471966 -0.724785 -1.107857 0.519049 -0.336373 1.616814 -0.826787 0.628850 -1.110573 0.072614 -1.326527 0.410226 -0.377097 -0.195045 0.767782 -0.264198 -1.458679 -0.508505 0.619413 -1.259248 0.391481 -1.306098 0.336068 1.748967 -0.898841 0.545598 -1.643538 0.710733 0.128159 0.821062 -0.672494 -1.579703 -1.448601 -0.595735 0.510282 1.310075 -1.038281 -0.853132 0.067031 -0.581265 1.434606 -1.430407 -0.557040 0.599625 0.473522 -1.287376 0.835865 0.597337 0.084250 -0.016086 -1.370471 1.265343 0.319164 -0.401141 -0.133385 -0.076771 -0.077133 1.256727 -0.950533 -0.303099 0.338718 -1.704165 0.300721 1.354511 1.233278 0.841966 -2.308664 -1.115311 0.064486 1.240760 -0.100661 -0.027822 0.003808 -0.453859 0.279377 -0.371048 1.178395 -0.074634 -0.893476 0.180549 -0.403034 0.717700 1.534237 -0.824722 -0.205606 -0.462268 1.158059 -0.950120 -0.721507 1.540686 -0.859919 1.926339 -1.539200 0.853160 0.312757 -0.334212 0.381736 0.597099 -0.656847 -1.033237 0.137502 0.459718 -0.312507 -0.966054 -0.751210 -0.292664 0.702140 1.027926 -1.027200 1.425115 -0.440473 -1.918596 2.901779 -0.888531 0.138726 1.413515 -0.433389 -2.293168 0.183245 -0.438728 1.088615 0.751530 -2.836694 2.155877 -1.117109 0.003325 0.872073 -0.653565 -0.671195 0.637496 -0.736769 2.335559 -1.023847 0.548046 -0.661938 0.207053 0.500522 -1.161438 -0.363318 1.616545 -0.842014 1.052163 -0.506469 -0.595183 -0.166859 -0.071296 -0.924468 0.559641 0.577310 -0.289941 0.352154 0.990945 -0.122123 -0.438366 -1.847792 0.283214 -1.275616 1.269019 0.788079 0.201993 -1.229524 1.803266 0.549847 0.614385 -0.598076 -1.875848 0.306386 -0.371982 -0.606840 0.223945 0.457209 0.096836 -0.423145 0.722961 0.202432 1.357639 0.455080 -0.244445 -1.310749 0.932300 -0.137930 0.834698 -0.554377 -0.135835 -0.002417 0.009801 0.456865 1.040600 -1.371689 0.058842 0.054853 0.441627 0.600346 0.228542 -1.178476 -0.322372 -1.396078 3.007890 -0.809779 -1.109788 -0.278885 0.745625 1.936592 0.631760 -3.632279 -1.503856 0.787841 1.410081 -1.357210 0.438744 -0.756522 -0.752090 2.751689 -0.500883 -0.170423 -2.174107 0.567441 -0.327907 0.667459 0.172070 0.445499 -0.308788 -0.113647 1.682303 -1.215600 -0.801981 0.200208 0.442612 1.408832 -2.142103 0.647159 0.641041 -0.277701 -0.497238 -1.444041 0.375987 1.358911 -1.361741 1.298172 0.408010 -1.633448 0.371986 0.092645 -0.030410 -0.454534 0.265781 0.914808 -0.172169 -0.049595 0.431447 -0.736731 -0.666320 0.645751 0.161253 1.324060 -1.729633 -0.099512 0.836064 -2.387204 0.086913 -1.322886 1.181229 0.714027 0.135665 0.017771 0.409125 -0.340361 1.164551 -1.809644 -0.160535 0.356655 0.025383 -0.900611 -0.323127 -0.605083 0.576404 0.093225 0.381565 -0.794938 -0.742505 -0.306718 1.092403 0.245280 -0.852363 -0.305786 -0.602821 1.438872 -0.061386 -0.511698 -1.047801 0.897668 -1.536423 -0.141833 2.042695 -0.764856 0.578460 -0.687433 -0.276579 -0.127275 -0.539820 0.630260 -0.296017 -1.019711 0.493789 0.507645 -2.082396 1.885279 0.523115 -0.784477 -0.674074 0.178270 -0.024146 -0.507084 1.085462 -0.146004 0.773172 -1.491927 -0.500551 -0.198459 0.707540 0.152659 0.000054 -0.028220 -0.480423 -0.196019 1.185505 -0.110956 0.373311 0.125566 0.027945 0.877195 -0.578075 0.267657 -1.616659 -0.092075 1.241824 0.335155 0.105307 0.067693 -1.262468 0.467664 -0.301429 -0.567334 -0.626082 0.186601 1.289591 1.221403 -1.342350 -0.388238 0.316922 -0.381626 -0.144266 0.370198 1.378182 0.857004 -0.988778 -0.247284 -0.475886 -0.163416 0.373843 -0.756698 -1.973042 1.935173 0.103173 0.400185 -2.002828 1.068666 0.290702 0.886183 0.290711 -0.754222 -0.212577 -0.495089 1.109375 0.767723 -0.610634 0.718824 -0.164167 -0.459909 0.332382 -1.595211 1.225691 0.391542 -0.318764 -0.049087 -0.849560 1.026143 -0.963694 0.124257 0.059027 0.429080 0.573626 -0.229043 -1.329567 0.034945 0.856035 -0.622610 0.673798 1.093120 -1.801364 -1.388480 0.859637 1.057057 1.157540 -0.886855 -0.227462 -0.035637 0.411207 -2.875745 0.811969 1.074806 0.680362 0.230226 -0.756072 -0.220132 -1.363583 -1.328970 2.534548 0.278744 0.475944 -0.663643 1.513201 -0.374910 0.327872 -1.992833 0.236753 0.917918 -0.193700 1.667321 -0.736993 0.223750 0.125789 0.480462 0.188079 0.534477 -0.204668 -0.437342 1.206182 0.420347 0.620404 -0.559270 -0.515949 0.343044 0.152242 0.526387 1.524634 0.135115 -1.128591 0.202194 -0.717851 0.248968 -0.290351 0.373569 0.165842 -1.195681 1.384953 -1.254629 0.043206 -0.804324 1.008906 -0.546920 1.963283 -0.209199 -0.465331 1.219040 -0.871817 -0.661701 0.279495 0.087009 2.182240 0.735228 -0.541294 0.396783 0.654475 0.723806 0.355586 -1.030768 1.102060 0.036720 -0.310626 0.478368 1.123882 -1.670853 -2.529224 -1.128788 0.047620 -0.053319 -1.347059 0.823304 0.192116 -0.016615 -1.316465 1.680929 -0.390880 -1.038052 0.953057 0.236434 0.019799 -0.853762 -0.294954 0.287645 -0.404346 0.677703 -1.541511 0.742678 -0.677268 1.407917 0.828720 -0.634199 0.245631 0.503316 0.564327 -0.663161 -0.610643 -0.183541 0.339942 -0.778417 0.160987 -1.259452 -0.455685 -0.210086 -0.173596 1.559785 0.837406 1.073891 -1.777360 -0.970837 0.104213 -0.484921 1.053331 0.277994 -1.240624 1.725513 -0.352825 -0.153652 0.396149 -1.182681 0.030702 -1.301391 -1.766202 1.489902 -0.099100 0.271087 0.888026 0.631364 -2.401359 0.925871 -0.201626 -0.602445 1.046167 -1.023027 0.035200 -0.889257 -0.377695 0.217571 -0.471559 0.177642 -0.889468 -0.815099 0.910260 0.146108 0.782478 -0.672669 -0.281457 -0.153100 0.281923 0.431472 -0.785766 0.550338 0.539943 -2.456243 1.316576 0.336243 0.418295 -0.312760 0.294450 0.910817 -1.875505 -0.176304 -0.942452 0.023515 0.775375 -0.279313 1.552141 -0.403880 -1.013793 1.381698 0.807337 0.222340 0.537879 0.205426 -0.749902 0.662062 0.237619 -0.329825 -0.901032 -0.681050 1.478552 0.864243 -0.142929 0.027012 -0.363862 0.765984 -0.150238 -0.434947 -0.933148 0.998020 0.735023 -0.186851 -0.423334 -0.087637 0.412834 0.142186 0.496540 -1.077000 0.546199 1.046792 -1.362720 0.473457 0.188886 0.052270 0.479764 -0.238601 -0.038597 0.454173 -0.678759 0.669211 0.670682 0.236473 -0.279651 0.832245 -1.372510 0.049664 -0.352434 0.313328 -0.723733 -0.213808 -0.481549 0.673328 0.617713 1.033658 -0.909975 -0.236009 0.391406 0.544446 -0.650589 -0.160308 -0.019271 -0.006324 0.854269 -0.138389 -0.436516 -0.516025 0.269360 -0.345224 0.729814 0.657854 -0.208565 -0.021366 0.454224 -0.681565 -0.183377 0.390531 0.117604 0.050576 -0.800831 0.606673 1.035020 -0.099195 0.018295 0.061850 -0.794860 -0.641723 0.652240 0.604510 -0.236572 -0.884877 1.005616 -0.117474 0.377184 0.155061 -0.779234 -0.640993 -0.200133 0.743612 -0.221344 0.759844 0.246386 -1.608386 -0.063379 0.378894 1.316921 -0.442113 -0.122512 0.412086 0.118597 -0.796307 -0.651567 0.628827 0.578989 -1.101998 0.928439 -0.556403 -0.626229 -0.611540 0.601406 0.552291 -0.288226 -0.936231 1.370147 -0.033515 0.380290 1.828835 -1.931511 -0.555267 -0.965233 1.318202 -0.457344 -0.586857 0.248237 1.713888 0.933363 -0.926258 -0.206112 -1.270573 -1.656242 0.718076 0.150573 -1.281615 0.826131 1.032508 -0.166778 -2.141906 -0.264474 -0.579977 -0.730551 -0.329786 0.186190 0.756371 1.374168 0.352578 -0.339302 -1.784293 0.235903 -0.425546 -0.245374 -0.150803 0.689502 0.124556 0.801562 1.044320 0.296960 -1.977150 0.229955 -1.210981 -0.051980 -1.741707 0.174576 1.185664 -1.028400 0.422731 -0.781214 0.042839 1.578208 0.377376 0.888979 -0.562330 0.219446 0.890714 1.080425 -0.894726 0.598390 0.640542 1.871215 -0.592109 -0.917060 -1.007402 0.959368 -0.523560 0.682166 -0.152550 -0.444912 0.317463 0.527260 -0.236924 1.210117 0.837915 -0.515392 0.767733 -0.503643 1.149600 -1.619269 0.390083 -1.457387 0.376341 0.556275 -0.672235 0.232386 -1.153693 0.450088 -0.288175 -0.962560 0.923107 -0.177033 0.306573 0.916552 -1.392100 0.392235 -1.539881 1.110560 -0.521159 -0.234716 0.320449 0.451472 0.097115 0.838687 -0.985539 0.929789 -1.356380 -0.037407 -0.429279 0.215502 0.442059 -0.317831 0.292258 -0.754012 -0.270138 1.535510 0.014327 -0.419785 -2.578270 -0.009637 1.563325 -0.876899 -0.318573 0.284182 1.646509 0.870497 1.506316 0.115810 -0.715854 1.105427 1.227273 -0.374049 -4.518869 1.154312 -0.485952 0.971786 -0.915564 -0.722515 3.056103 -1.981551 -1.859782 0.288027 -1.260777 0.317090 0.839999 -1.092133 -1.235467 1.178092 -0.188322 0.228431 0.829517 0.581785 0.127172 -0.805069 -0.688073 0.147405 -0.447289 1.015693 -2.623930 1.162059 0.696526 0.486032 0.120598 -0.816084 0.120725 -1.245565 -0.876176 -0.354284 -0.244959 1.019947 -0.214440 1.060951 -0.963730 -2.016709 1.355422 0.283433 -0.459671 1.036313 -0.985056 0.023334 -0.453794 -0.652801 0.121948 -0.067110 -1.357768 -0.519729 1.350000 -1.784291 2.598654 0.314031 -1.246438 -0.797080 -0.732902 0.054695 1.941070 4.998945 1.939432 0.318649 -0.058220 0.591714 0.773253 0.430691 -0.876601 1.171003 0.558507 -0.059078 0.211055 -0.547137 0.830790 -1.606156 -1.164537 -0.217645 -0.835784 0.597153 1.044386 0.354314 -0.628246 -0.105610 -0.380396 0.322129 -0.679487 -0.186674 0.785369 0.242628 -0.311502 0.357497 0.139470 -0.752760 -0.608374 0.229231 0.047879 -0.412655 -0.132917 0.347215 -0.740536 0.151873 -0.793276 1.735275 1.322508 0.387622 0.187630 -0.689499 0.651048 -0.161204 0.387547 -1.449842 1.214236 0.410034 -0.277954 -0.012823 0.450498 0.580002 -0.177474 0.012634 -0.336042 -0.466364 1.119996 -0.028930 -0.377062 -0.857807 0.173988 0.881336 0.279329 -1.502318 0.807961 -0.544749 1.444174 0.082348 -0.356650 0.372319 -0.659634 -0.174369 0.390813 -0.279272 -0.882567 -0.253959 0.721391 -0.215648 0.329827 -0.294251 0.304991 1.319739 -0.404347 1.129110 -0.400668 -0.090289 -0.772409 1.005956 -0.884725 0.144053 -1.136282 0.851426 0.259849 0.867504 0.299674 0.122340 -0.724224 0.627220 0.222625 -0.730620 -0.589427 0.648419 1.408514 -1.186502 -0.730705 0.223012 0.035764 -0.416536 -0.132205 -0.467372 -0.997516 -1.577152 -0.980730 -1.250698 -1.786503 -0.755756 -0.074863 0.918216 -0.371679 -0.741900 -0.428133 0.445226 -0.911846 -0.099826 -1.863263 1.200052 -0.681941 0.328382 -0.498262 -0.795482 -0.864980 -0.105137 0.114640 -1.437761 0.123938 -0.211532 -1.159788 0.608326 -1.697383 1.620888 -2.176236 -0.561803 -0.814255 0.622771 0.702947 0.333121 0.273647 0.275141 1.095237 -0.245622 0.172753 2.757521 0.724959 3.394899 1.502087 -0.682683 -3.280169 -1.325756 2.809526 -0.023906 0.783786 1.533705 -0.713302 -0.560098 0.301401 0.904525 1.100069 0.789396 1.529724 -0.641398 -0.498638 -0.046019 -0.783981 0.995208 -0.884707 -0.281125 0.331310 0.460507 0.113005 2.041887 -0.173755 0.370561 -0.215516 -0.043702 0.426939 -0.249629 -0.049374 0.423605 0.554125 -0.197786 -0.813887 1.013392 -0.864302 -1.045738 0.948613 0.701727 1.042906 -0.802188 -0.561753 0.722476 -0.544745 -0.120867 0.028956 0.035133 -0.359401 0.324112 0.529489 -0.623858 0.249340 -1.098461 -0.339878 0.706088 -0.221628 -0.890962 1.340923 0.388383 -0.307971 -0.460684 -0.537729 0.624042 0.976899 -1.730474 1.093795 -0.053286 -0.870074 0.560522 0.965141 -0.937229 -1.077624 -0.321131 0.250387 1.224835 -0.060596 -0.429789 0.288724 0.479688 0.539860 -0.217211 -0.438503 0.298708 0.102867 -0.361812 -0.488328 0.264458 0.077085 1.225931 -0.805842 0.584737 0.237546 0.492012 -0.189756 -0.402026 -0.465500 -0.510553 2.274368 1.127227 -0.000534 0.145005 -0.635671 1.512373 0.172245 0.157318 0.612633 -0.482920 0.389204 0.263693 0.600999 -0.074204 -1.490543 0.481561 0.650848 0.265087 0.199491 0.988989 0.022825 -0.666834 -0.461189 -0.436205 0.342931 -0.227093 -0.007187 0.875040 -0.071551 -0.752240 1.465549 -1.089857 0.924153 0.391487 -0.633384 0.308922 -0.626013 -0.142161 0.020890 0.038494 0.052395 -1.546840 -0.449585 0.264950 0.432671 0.514126 -0.238823 -0.461709 -0.931457 0.095523 -0.005490 -0.853260 0.504804 -0.689622 0.521096 0.928077 -0.566558 -1.384633 -0.037190 -0.075833 -0.511177 0.183552 0.789546 -1.426979 0.311040 0.852730 -0.227254 -0.100369 1.153172 0.723223 0.621174 0.243960 0.933160 0.362357 -0.202458 0.049971 -0.286660 0.393157 -0.592308 1.090227 -0.774281 -0.571853 -0.879387 0.955756 -0.079661 -0.802460 -0.188780 -0.441083 0.253516 0.077624 -0.783701 0.160878 1.236605 -0.441594 0.676295 0.252137 2.484545 -0.760283 1.050639 1.275210 -0.309575 -0.729184 1.133604 -0.728588 0.685793 0.762951 -0.052882 0.139326 -0.599416 -0.454872 0.776718 0.331675 -0.195694 1.265611 0.511696 -1.707099 0.032535 0.922628 -0.850582 -0.555116 0.332266 0.547566 0.625784 -0.514562 0.335673 -1.393390 0.027046 0.466763 1.347249 -1.514574 0.005482 -0.317243 -0.495820 1.468847 0.472041 0.180014 -0.245433 -0.001801 0.464945 -0.192897 -0.385425 -0.041796 -0.357748 1.121481 -0.793689 0.597414 -0.527615 -0.525232 -0.100270 -0.406956 0.284335 0.500886 -0.626948 1.028010 -0.835529 0.551176 1.018001 -0.064521 0.447514 -0.170569 0.013428 0.084815 -0.306142 0.367295 -0.615321 0.651658 0.262153 0.913650 0.365742 -0.984758 0.198727 -0.252539 -0.034374 -0.337678 -1.242787 -0.743049 0.559923 -1.842611 -0.210809 0.293151 -0.019553 0.324620 0.837358 -0.974983 0.854892 0.246034 -0.368130 -0.107586 -0.442473 -0.169460 0.309559 -1.131492 -0.389361 0.227992 -0.415653 -0.594567 -1.433554 0.245199 -0.049898 0.230565 -0.032931 -0.512021 -0.649790 -0.704702 0.043001 -0.132200 0.204924 -0.063775 -0.538712 -0.280542 0.182352 -1.259546 0.268313 -0.441009 0.484320 -1.155158 0.289163 0.357702 -0.047995 -1.303042 0.274910 0.740139 -0.316315 -0.979574 0.002042 -0.124110 0.609321 -1.490866 -0.174976 0.234102 0.306361 -0.021307 0.288816 0.393947 1.218217 -2.033648 0.122567 0.396648 0.401445 -0.707711 -0.255144 0.269166 -0.382286 1.002627 1.052319 -1.281170 -0.380111 0.277499 0.417521 -0.292580 -0.491575 0.228776 0.428174 -0.293341 0.683901 -0.576316 0.592083 -0.982764 0.460435 0.143591 -0.383499 0.668023 0.588940 -0.219663 0.743933 0.650393 0.616888 1.431708 2.091393 -0.799498 -0.853015 1.487862 -0.218654 0.053702 -0.199764 -0.332394 0.799000 -0.040334 0.482206 0.670595 -0.460864 -0.008713 -0.264243 0.010601 -0.683354 -0.525669 0.290992 0.508922 0.188473 0.114090 -0.683130 0.230362 -0.670269 -0.583472 0.620106 -0.995448 0.457240 0.140729 -1.166499 -0.755434 0.508154 -0.708976 0.485728 -0.293594 0.216216 -0.375106 -0.186411 -0.897942 1.197863 -0.885898 0.412326 0.081228 -0.459934 -0.198350 -0.911489 0.794396 0.928681 -0.202330 0.289341 0.448021 0.479957 -0.259363 0.305555 -0.295835 -0.494565 0.620905 -1.390704 0.707190 -0.190623 -0.903629 0.480023 0.479929 -1.085035 -0.750033 0.498483 0.831087 -0.600718 0.164896 -0.372915 0.203546 0.011924 -0.446914 -0.574217 -0.239569 0.228626 1.140993 -0.502297 -0.204081 0.683925 0.529456 -0.657166 -0.215993 -0.480792 -0.985777 0.408031 0.424050 -0.744385 -0.677739 0.103156 1.077368 -0.164792 0.263738 -0.351335 -0.566400 0.538272 -0.306011 -0.178222 0.659406 -0.654432 -0.659016 1.286198 -1.252259 0.690504 -0.610011 -1.070539 -0.398241 0.140236 -0.102526 -0.160942 0.604303 -1.484575 0.196563 0.329304 -0.454512 0.126679 -0.468496 -0.670316 -0.336855 -0.647390 0.015351 -0.940725 0.295718 -0.476455 0.421728 0.342834 -0.076821 -0.556342 -1.087884 -0.496762 3.129626 -1.164624 1.431998 -0.758325 1.180291 -1.998498 3.141677 3.220029 -7.548083 -1.462190 1.065839 1.528594 0.687756 0.889140 -0.557885 0.154591 2.306500 1.796156 0.553459 -1.267647 -0.672925 -0.150928 -0.051392 1.520719 1.244354 -1.888920 -0.492384 -0.098072 0.694421 -2.867388 -2.429204 -1.183876 0.196045 0.980216 0.092208 -0.136768 0.202454 -0.477187 -1.449795 0.936610 -0.283242 -0.289182 -0.614352 1.164148 0.175737 -0.498046 0.498975 1.927879 -0.310235 -0.934947 0.444896 -11.068409 3.338499 3.042043 6.489514 0.723256 2.499192 0.142715 -0.269797 0.835684 2.272199 -0.721061 -0.048467 -0.577859 1.851247 0.312464 0.608952 -4.584278 1.794755 2.164907 0.621465 -0.802097 -1.608819 -2.297384 -0.289461 -0.511236 -1.010768 -0.376146 -0.218671 0.946028 -0.211745 0.211914 0.757489 1.286405 1.101111 0.326256 0.895763 -0.443312 -1.619860 -0.826886 1.261213 0.705096 0.184591 0.471251 -0.214181 -0.428280 2.186984 -0.467341 0.268573 -0.199116 0.349845 0.920921 -1.203372 0.456873 -1.326560 0.734715 -0.516971 -0.953249 0.480167 -0.279365 0.619191 0.929330 -0.132336 -1.562889 -0.089621 0.310974 -0.374976 0.214792 -1.511151 0.987393 1.370831 -0.834694 0.102114 0.394029 -1.098316 0.000925 -0.051639 -0.113767 -0.105593 -1.253903 0.291327 2.274133 1.335216 -1.540578 -1.200098 -0.755719 -1.097052 2.219323 0.561642 -0.312082 0.668438 0.167009 -1.899088 -0.216260 0.258142 -0.805227 -0.326959 -0.566164 1.226494 -0.119157 0.621009 -1.382355 -2.789352 0.586804 0.383630 1.044102 0.203306 -1.187541 -1.968177 0.803152 1.593698 -0.076956 0.654727 -0.232461 -1.293224 0.693643 0.125295 0.313337 0.050626 -0.038349 -0.434425 0.202534 0.012845 -0.432928 0.210452 -0.744143 -0.286286 -0.519117 0.518713 -0.299264 0.591372 -1.011092 0.767860 -0.190517 0.625915 0.549885 -1.391026 0.330498 0.845518 0.195941 -0.322166 -0.462763 -0.144881 0.315658 0.451828 -0.255450 -1.217265 1.155129 -0.435225 0.205359 -0.298443 -0.497031 0.600340 0.918349 -0.503961 -0.134057 0.747888 1.364094 -1.467004 -0.770338 0.966280 -0.112243 -0.414364 0.678799 1.360629 -0.327665 -0.413189 -0.040129 -0.356718 0.683904 -0.514374 1.014529 1.509643 -0.634847 1.436364 -1.332852 -0.322549 -0.730457 0.953951 0.726367 -0.488034 0.332829 0.574464 1.002971 -0.729470 0.278818 -0.166181 0.791595 2.254978 -1.854739 0.358859 0.301521 -0.969946 -0.537547 1.470994 0.139831 0.899597 0.053227 -0.990341 2.134068 0.403854 0.632457 -1.478039 0.870149 1.204221 0.117192 -0.135412 -0.964133 1.025758 0.857821 0.412113 -0.417907 0.085722 1.364005 -1.683484 0.444116 0.349785 0.232291 -0.500663 0.025600 0.933630 1.190958 -0.221250 0.526302 0.385127 1.071314 -1.344817 0.955828 1.286969 -1.328774 0.223765 -0.070826 -0.240735 0.883619 0.450236 1.458736 -0.469250 -0.295534 1.301525 -0.162982 0.544995 -0.713886 0.754613 -0.301550 0.477504 0.750792 0.806121 -1.041500 -0.457155 0.844642 -0.336628 0.836336 0.085850 1.344658 -1.645509 1.220279 0.221240 0.218523 -0.077771 0.937744 0.111565 0.238684 0.307552 -2.728046 -5.562500 6.021809 -1.208328 -0.430676 -1.777871 -1.661337 1.790172 1.645017 0.860680 0.365821 -0.146616 0.834017 -1.523096 1.164538 -2.931390 -0.462519 1.086702 -0.471612 1.022160 0.000019 0.794139 -1.183966 0.847073 2.246058 -3.050822 -2.700150 -2.596942 -0.877404 1.500534 -3.114857 -3.355070 1.891176 -2.748544 -1.897971 1.119021 -0.014572 0.437038 -0.089144 1.252594 -3.231239 -0.804405 -0.431341 -0.076844 -1.043424 0.561032 4.849652 3.896077 2.613648 2.444452 0.945781 0.539644 -1.810886 -1.034927 -4.625281 -2.423948 -0.686891 -0.712395 -0.327535 0.178640 -0.823079 0.396003 -1.119693 1.047032 0.222463 -1.193641 -0.420265 -0.597014 1.200971 -0.883040 -0.375750 -0.175996 -0.554349 0.482636 0.043680 -0.092044 -0.476769 -0.982346 0.751129 -0.252821 0.952468 0.996034 0.624941 0.574826 -0.551906 -0.128811 0.002713 0.013412 0.788273 -1.242609 0.038295 0.438936 -0.632121 -0.541060 0.623867 0.565205 -0.197843 -0.010493 -0.711692 -0.946047 0.114269 0.024015 -0.392661 -0.873784 0.483839 -0.259910 -0.875727 -0.273016 -0.881488 -0.712996 0.477199 -0.705178 -0.302014 0.984519 0.587511 0.877408 0.264522 -1.048065 0.089834 -0.721104 -1.006403 -1.075573 1.511438 1.522940 0.787003 0.284705 -0.981416 0.144205 0.473718 -0.595101 0.630071 0.628566 0.607971 0.650625 -0.459331 0.731254 0.341440 0.202557 0.201767 -0.185244 1.212828 0.884321 -0.727374 0.348744 0.284234 -0.156570 0.119941 0.954906 -0.319325 -0.313619 0.843969 0.018937 0.912687 -0.677167 0.337609 1.426014 -0.557858 -0.361706 0.479391 0.294132 -0.133236 0.516545 0.326331 0.640125 0.380210 -0.834787 -0.057156 0.160396 -0.194316 0.851496 0.411594 0.653717 -0.372589 -1.450314 0.873737 0.396915 0.601781 0.732900 0.766365 0.418963 -1.944279 -0.008449 -1.728963 -0.445119 -0.413192 -1.999908 -0.578041 -0.184067 -0.512825 0.171992 0.758660 -2.484020 -0.039130 1.457400 1.063589 0.658182 -0.538404 0.242800 0.859851 -0.868926 -0.224445 -0.017681 -0.007982 1.531162 -0.265306 -0.035781 -0.675622 0.216323 -1.027290 0.846041 -0.087606 -0.783577 0.951101 0.687509 -1.295759 0.052074 0.062511 0.767199 0.264512 0.119012 0.481507 0.585525 -1.272619 0.453222 -0.548100 -0.149264 1.149941 -0.764350 0.568862 0.247740 -0.657347 0.624630 0.620628 -0.537302 -0.469390 -0.077798 0.380395 -0.241438 0.717261 -0.498806 0.636421 0.248747 -0.655451 1.000192 0.351543 0.520226 -0.132791 -0.342868 0.357094 -0.590151 0.251438 0.138128 0.074240 0.836300 -0.071006 -0.340081 0.357818 -0.216949 -0.019349 -0.324806 -0.060856 1.155478 0.379046 -0.216393 -1.116603 1.617826 -0.987951 -1.417719 0.404283 0.483173 0.114655 0.433154 0.533241 -0.574164 0.242855 0.112005 -0.335706 0.308037 0.495656 0.544070 0.585698 -0.902798 0.927515 -0.793257 -0.974680 0.144035 0.798088 -1.286987 1.521401 2.005777 0.224202 -1.345623 1.611370 0.943639 -0.416518 -0.357866 0.774149 -0.438043 0.335788 -1.681279 -0.822944 -2.088349 1.227368 0.328076 -0.362523 -1.244391 -0.791143 0.825126 0.143104 0.330133 -0.324489 0.600157 -0.246628 -0.134668 -0.075163 0.676621 0.531857 1.638191 -1.018753 -0.672887 -2.437260 -0.795207 -0.326880 -0.643129 -0.339433 -0.254801 0.129076 -0.128379 -0.581853 0.804664 0.462596 0.361101 0.005194 -0.856538 0.397849 0.389173 -0.766236 -1.458905 0.209297 0.288790 -0.087264 -0.533069 -0.668720 0.408868 0.341708 -0.433851 0.122451 1.047973 1.319096 -0.449662 0.576004 2.421697 1.070120 -1.539170 -0.746649 -0.930652 0.439007 0.103529 -0.011867 -1.148997 -1.512744 0.242759 -0.035442 -0.518768 -0.247268 0.196209 0.692950 0.480186 0.063348 -0.035863 0.694550 -0.220292 0.645069 -0.199688 0.661932 0.575983 -0.217517 1.088494 -1.156132 -0.340582 -1.201525 -1.164359 -1.537173 -0.196392 1.312904 -0.897827 -0.396233 0.169260 -0.857708 -0.401249 0.499131 -0.773482 -0.390928 -0.635243 0.002366 -1.311811 0.917009 1.225357 0.541485 0.041953 1.809284 3.108360 -6.282066 -1.137380 -0.725947 0.985795 1.248112 -2.060642 4.160215 1.162059 -0.540865 2.553723 1.550335 0.493655 -0.831879 -0.491157 -1.930803 -0.160202 -0.402465 0.590153 0.924396 0.265911 -1.404878 0.360447 0.490562 0.106946 0.042553 -0.349840 0.273420 -0.295372 0.274155 -0.670388 0.532404 -0.223714 1.030615 -0.815605 0.495810 0.172737 0.783683 -0.118849 -0.392145 -0.080195 0.363735 -0.265644 0.684351 0.230109 -0.295699 -0.048223 0.767745 -0.128820 0.366918 0.165005 0.083675 -0.301300 -0.047075 0.400234 -0.608798 0.976201 -0.042518 0.003727 0.818189 0.287148 0.515089 -0.138761 -1.856326 -0.117256 -0.387602 -0.157841 0.321454 0.449650 0.117837 0.036247 -0.358701 0.645880 -0.561590 0.195644 -0.683610 -0.989187 1.190037 1.062924 0.649676 1.359856 -0.670709 -0.900030 0.183497 0.447656 0.897273 -0.063999 -0.718548 0.227645 0.105277 0.804129 -1.598851 0.308685 0.137992 0.393332 0.523928 1.320524 -1.060417 0.878143 -0.019883 0.783105 0.331864 -0.196960 1.180328 -0.671877 -0.108742 0.474013 -0.157973 0.798298 0.351089 -0.172280 -0.677642 0.662634 -0.083681 -1.456805 0.794227 -0.446370 -0.110603 0.801089 0.664773 -1.623353 -0.402406 -1.562531 -0.866912 -2.541500 -0.101179 -3.162270 -0.022985 -0.559877 1.059228 0.875774 -0.308637 -0.980741 1.088728 2.827595 2.240123 0.288875 0.177820 -0.212716 -3.763544 1.185834 3.397282 1.337544 1.266408 -0.162451 -0.240994 -0.249254 0.088772 0.560456 -0.055029 -0.234094 0.853329 1.165818 0.133428 0.996887 0.146541 -0.504192 -0.299087 -0.269849 1.217101 0.156800 -1.671459 -0.685410 -0.064160 0.427770 0.211912 0.157141 -0.226001 0.405400 -0.161638 -0.344713 0.365661 -0.573053 0.263495 -0.981454 -2.526954 -0.361497 0.597029 -0.310746 0.973572 0.256146 -1.107324 -0.348551 0.231542 5.272613 0.434687 0.935183 1.269001 -6.268250 5.792550 -7.172618 -6.421554 1.947100 -1.256209 -3.772630 -2.095676 -0.237593 -0.545316 -0.237741 -0.860921 -1.061591 1.522740 0.787376 1.720605 -1.280376 -0.663885 -0.815973 5.096578 -0.988728 -0.518664 -0.190047 -0.243913 -1.373498 -1.333709 -0.970177 0.971056 -0.340219 0.407528 -0.439413 0.787653 -0.318503 -0.661630 0.404798 -1.564779 0.469211 -0.402863 -0.344428 -0.273449 0.099850 -0.162784 -0.613375 0.770490 0.808883 1.202356 2.519117 0.319305 1.600243 0.177564 0.855056 3.008925 0.639512 1.117118 1.354447 0.259921 -3.055636 -0.287850 -0.651353 0.624107 -1.963357 2.502872 -0.279989 0.702029 -0.385205 0.724150 -0.422901 0.712621 -0.049615 -0.689261 1.785579 -1.641812 0.322340 -1.293789 -1.139282 -1.067375 -1.502018 -2.803592 -2.114488 -0.847838 -0.932567 -0.980488 -0.236439 2.991511 2.470910 0.116998 -1.964722 0.062844 -0.138386 -0.632981 0.778998 -0.313102 -0.653044 0.417696 1.091357 0.542272 0.426178 -0.704620 1.220150 -1.213897 1.050871 -1.991262 0.420965 -2.204754 -0.832515 -0.760317 1.054524 0.114901 -1.298540 -0.542850 0.410383 -0.856579 0.292992 -1.228749 0.165144 -0.144106 -0.657667 0.737006 -0.738731 0.320006 -0.452485 0.792561 -0.686536 -0.389627 -0.265304 0.488330 0.348709 0.698486 1.597850 1.136620 -0.851581 0.870086 -0.121365 0.673495 -0.544398 0.201084 -1.068094 0.781993 1.354643 1.123645 -0.389667 1.460877 -1.758422 -0.112963 -0.713202 1.275584 0.776284 -0.140528 1.159817 0.036455 -0.693141 0.639984 0.631604 -0.523331 -0.455949 -1.201781 1.176444 0.747858 0.222102 -1.001965 -0.625925 0.219717 -0.327091 0.644913 -0.180276 -1.581918 0.283796 1.569125 0.405859 -0.639083 0.604423 -0.562872 0.196485 -0.300503 0.651587 -0.937184 -0.674783 1.315040 -1.164397 0.746299 0.617581 0.138806 0.056237 0.036619 0.022148 0.019098 -0.740233 -0.596035 0.953133 -0.881279 -0.677045 0.934527 -0.530443 0.170531 0.806059 -0.554112 -0.180729 -0.049906 -0.049765 -0.041453 0.342510 0.079717 -0.754790 0.141305 0.400435 0.456469 -0.635605 -0.195917 0.695289 0.556197 0.154604 -1.071086 0.073431 -1.874963 0.900714 -0.903496 -0.375070 0.225535 0.730782 0.141051 -0.768737 -0.267637 -0.894194 0.399519 1.174355 0.258481 -0.347942 0.260524 -0.332561 0.614012 0.541397 -1.384560 -0.422311 0.234950 -0.007120 0.321631 -0.319390 -0.518166 -0.951125 0.028419 -0.831836 -0.736532 0.061654 0.266876 1.846296 2.360743 1.043111 -0.020244 0.091814 -0.645910 0.248055 -0.999161 0.490716 -0.563469 -0.545271 0.248192 -0.688797 0.537918 1.684693 1.257451 0.810052 1.118569 0.092950 -0.203037 -0.651489 1.082178 -0.684840 1.045405 0.095125 0.903760 0.444114 -0.088246 -0.219745 -1.030977 -0.162647 0.458245 0.610211 -0.462817 1.128959 0.098033 -0.234518 -0.287519 0.425102 -0.513079 1.096632 0.841675 -0.012354 0.545188 -0.423842 0.023424 0.551653 -0.077878 0.882867 0.050677 -0.213402 0.875154 0.042593 0.167083 0.616912 -0.408012 0.046376 0.952176 0.816716 -1.104990 0.622501 0.375783 0.247318 0.636232 0.370077 -0.849859 0.312216 1.408981 0.185924 0.235676 -0.473739 0.038921 1.710314 -0.465719 0.417583 0.351579 -0.105862 0.159236 0.995672 0.474655 0.330844 -0.444384 0.068952 -0.547364 -0.004793 1.300396 -2.135399 -3.550816 -1.699118 -0.534619 -0.662732 -1.077496 0.317988 0.335140 -1.199611 -0.103595 0.223467 0.278958 0.330133 -0.396743 -0.224512 -0.927741 -0.019407 -0.128480 0.577608 -1.088131 0.694831 0.111624 0.279156 1.530933 0.770683 0.954840 1.077108 1.126939 0.418438 1.381788 -0.204039 -2.586487 0.145927 0.523838 0.173253 0.514280 1.009589 -1.126971 -0.611652 -1.974106 -3.992813 -0.829527 -1.885055 -1.558673 0.477667 -0.115469 0.082600 0.581700 -0.415251 0.449062 -0.405632 -1.059902 -0.468496 0.063137 -0.180946 0.142820 -1.268098 -2.082668 -0.427071 0.011034 -1.422955 -1.062015 -1.339710 0.426723 -0.189287 -0.766601 -0.128766 0.050716 -0.286460 0.019279 0.125924 -0.221381 0.839551 0.415405 -1.227877 -0.536115 0.045582 -0.207115 -1.410781 0.527581 -0.044596 0.134012 1.011933 3.570618 1.333893 0.742958 1.076110 1.929508 -0.840945 -1.638634 1.205042 -0.310933 0.728858 0.737508 1.086496 -1.057666 -1.696020 1.168359 -0.715175 0.976271 1.561215 -1.745634 -1.545598 1.196825 -3.433084 -3.329575 -1.366149 4.002988 -0.136319 0.963403 0.322964 -1.480459 -3.509012 -4.924013 1.791762 -0.120217 -0.396370 0.072303 0.547711 0.315302 1.042983 0.919191 1.672105 -0.715983 0.122953 -1.874959 -1.777743 0.546592 1.551522 0.321619 0.026879 0.367220 -1.073774 -0.362281 -1.288080 -0.475177 0.535939 0.420704 -1.887200 1.646960 2.714717 1.466957 0.083762 0.123665 -0.247893 0.383083 0.580101 -0.131726 0.056364 -1.025878 -1.379122 0.029731 -1.127172 1.163023 -0.413856 0.601243 -0.172532 -0.061619 0.003414 0.004063 0.389590 0.510632 0.553728 0.971430 2.266294 2.306472 -0.685993 1.164292 -0.923165 0.671111 -2.240117 2.163032 -0.303666 0.395805 -0.040313 -0.237149 1.249153 0.156859 0.590756 1.535722 1.040629 1.307218 0.674913 -0.652495 -0.267547 -0.553802 -0.691977 -0.365068 -0.300818 -0.310369 0.823609 0.773024 0.758102 -0.354625 1.234038 -0.958607 -0.497557 -0.323744 1.188075 0.113705 1.710032 3.011260 1.494709 -1.172523 -1.523608 0.633160 0.430233 -1.191785 -1.259688 -0.161647 0.863257 -0.766878 0.672877 -0.404946 0.371350 1.024125 0.429621 1.046365 2.799529 0.276072 1.866434 -0.636503 0.481161 -1.045337 0.336125 0.767534 0.845537 0.903500 -0.976083 1.144166 2.169961 -0.627175 1.663508 -2.586307 -4.333522 -3.312993 -3.205243 -1.411325 -0.560382 0.773552 1.186982 -0.200092 -1.333480 -0.887430 -0.410480 1.608667 0.312079 0.713985 -1.772228 -1.393925 0.641707 -1.124463 -1.277600 -0.135643 -0.238589 0.099736 -0.153749 0.153277 -0.120914 -0.201319 -0.976996 -0.450176 0.084443 0.220707 -0.489523 0.082232 0.263661 -0.075483 0.230877 1.106391 -2.074774 -0.331543 0.212295 1.053471 0.206755 -0.019991 -0.817869 0.463475 -0.303536 0.981909 -0.124533 -0.467485 -0.529302 0.575124 0.514494 -0.267716 0.685576 -0.170353 0.713323 -0.905173 0.126610 0.076217 0.401954 0.529140 -0.578662 0.254592 -0.256141 0.329485 0.143863 0.845831 -0.457509 0.306136 -0.593936 0.253712 0.141310 0.082000 0.086049 -0.683592 0.618323 0.623763 1.377889 -1.038881 -1.370723 0.082935 0.827929 0.648492 0.249375 -0.611912 0.668288 0.278217 -0.243867 -0.750932 -0.149911 0.391694 0.533221 0.590100 -0.141533 -0.350589 0.745502 -0.481283 0.296961 0.559021 -0.547333 -0.090536 0.436087 -0.592443 0.259968 0.526326 0.194138 -0.265495 -0.009487 0.443493 0.568330 -0.538993 0.297071 0.167870 -0.285201 -0.016548 -0.328367 -0.055246 0.412697 0.541846 0.205053 0.893806 -0.426224 -0.438677 -0.424305 -0.462885 -0.102713 -0.007945 0.780045 0.254436 0.104148 -0.298282 -0.429786 -0.476478 -0.124942 0.351867 0.101849 -0.351589 -0.090934 0.364807 -0.666567 -0.202137 0.329683 -0.697583 0.929064 0.276121 -0.326818 -0.460032 0.254921 -0.318533 0.273574 -0.302870 -0.107173 -0.034700 0.355714 0.479265 -0.633419 0.588281 -0.194181 -0.070496 -0.386632 0.652332 -0.575945 -0.569722 0.225179 0.426182 0.098921 -0.362406 -0.108408 -0.041215 0.350531 0.088296 0.399207 0.122156 0.038603 -0.359361 -0.099365 -0.026542 -0.405853 0.252736 0.061855 0.378813 0.107468 -0.360938 -0.105573 -0.037342 0.740017 -0.176904 -0.834293 0.144718 0.410082 0.083451 0.397845 -0.655456 0.566488 -0.215356 -1.250801 0.006327 -0.421243 -0.204102 0.655356 0.126173 -0.410918 -0.160366 -0.485263 0.171401 0.757310 -0.232707 -0.895464 -0.307066 0.997233 -0.562023 -0.243501 -0.887371 -0.355891 -0.198834 0.593127 0.454826 0.036553 -1.604977 0.215913 -0.412484 0.505733 0.826060 -2.179061 -0.742299 0.073323 -0.547806 0.448187 0.377342 1.890788 0.461388 -0.714799 0.152490 0.775968 -0.603944 -0.219628 0.298274 0.031136 -1.199223 0.370017 0.055280 0.310350 -0.732107 -0.669003 -1.037032 -0.417466 -0.248415 0.935941 0.144268 -0.084262 -0.886435 0.013799 -0.110004 -0.559244 -0.677843 -0.339247 -1.032856 0.673733 0.415710 -1.225807 0.257357 0.312155 0.675456 -0.713462 0.036934 0.665364 -0.720358 0.431982 -0.359488 -1.019062 -0.419329 -0.655986 -0.758786 0.370599 -0.078851 0.940692 -1.809441 0.060497 -0.512191 -1.537016 -0.652353 1.903327 -0.065054 -0.625888 -1.104662 -0.136428 0.523627 1.483105 -0.124968 0.201712 -0.815083 0.009192 -0.892399 -3.132074 3.541586 -0.672350 -0.836287 -5.353122 -1.435053 0.073575 3.459100 1.474262 2.497152 3.344979 5.184991 1.230619 1.328483 -0.832496 0.398688 -1.921246 -1.140782 -2.846443 0.784685 -0.475638 -0.935857 0.152243 1.591488 5.500286 -0.609474 -0.032901 2.608450 2.510867 0.215402 1.178812 -0.054506 0.308282 1.221939 -0.082739 0.307898 0.057475 0.716410 0.919188 -0.577488 1.309640 -0.831572 0.416066 0.830555 1.669223 0.408691 -0.337129 -0.923566 0.796448 0.893801 0.898945 -0.994304 -0.402183 0.152423 -0.133979 -0.223254 0.522307 -0.436370 0.813646 0.428201 -0.101369 0.547272 -0.818924 -0.086443 0.528296 1.444185 0.189779 -0.163737 -0.239789 0.092076 0.176889 0.192835 -0.575831 0.350619 0.234901 -1.766704 -0.419966 -0.427153 0.270400 0.109742 -0.336993 -1.235736 1.196773 -0.418379 -0.543941 0.641801 -0.597402 -0.199735 -0.052815 0.731474 -0.962638 -0.304985 0.296967 -0.346413 -1.304189 -0.034486 -0.458515 -1.401001 1.437329 -0.055622 0.248303 -0.353227 -1.731509 -0.202452 -0.547597 0.071949 -0.877770 1.148225 0.222691 1.094807 -0.900630 1.209270 -0.057721 -0.088700 -0.421402 0.226002 0.421151 0.086224 -0.381324 1.041421 -0.474861 0.228153 0.482153 0.136124 -0.331618 0.315136 0.114085 0.043245 0.040472 -0.353467 0.301906 -0.280206 0.697593 -0.155909 -0.037389 -0.751836 -0.216993 0.326753 0.464428 0.518722 -0.610633 -0.165478 -0.418641 0.246921 0.064093 0.776498 -0.154337 -0.044396 -0.376762 -0.112846 -0.034698 0.753193 -0.948108 0.486063 -1.008309 0.047780 0.395374 -0.322525 -0.902967 0.092840 -0.023753 -0.469328 0.585054 -1.439002 0.271590 -0.751304 0.047191 0.714413 0.109939 0.345925 -0.333517 0.233809 0.417292 0.072764 -0.398100 0.637822 -0.223453 -0.489962 0.235104 0.429626 0.484009 0.137414 -0.341631 -0.867927 0.130046 0.410663 0.088749 0.018830 0.008585 -0.388671 -0.509671 0.617222 -0.225468 0.296682 -0.293838 0.287895 0.089705 -0.371570 0.284924 0.478270 -0.640571 -0.178822 -0.427294 0.241869 0.060495 -0.002859 -0.784124 0.141448 0.413571 -0.305417 -0.107734 0.738147 0.198548 -1.120466 0.064150 -0.377985 1.006358 0.284125 -0.718333 0.189954 0.446252 0.110039 0.037119 0.805930 -0.912873 0.520819 0.194197 -0.337501 -0.459723 0.660307 0.201273 -0.328219 -0.067189 -0.391540 0.272961 0.475976 -0.641421 -0.180408 0.350492 0.088706 0.412352 0.527828 0.173939 -0.304222 -0.439461 0.289269 -1.068448 0.460462 0.150776 0.408062 -0.642433 0.204279 0.075402 0.009115 0.011141 0.399249 -0.653406 -0.189843 0.346109 0.087125 0.801669 -0.523329 -0.142757 -0.007415 -0.392570 0.667888 0.599794 -0.205843 -0.413091 -0.083752 -0.007763 -0.384653 1.066571 -0.445166 0.264086 0.129154 0.053450 0.442085 0.170455 -1.079735 0.113522 0.068697 0.015739 0.807389 -0.514316 0.651420 -0.142975 -0.412840 0.316064 -0.267751 -0.454784 0.673613 0.604627 -0.198728 -0.405565 -0.468452 0.658376 -0.184477 0.338952 0.135931 -0.334875 -0.071672 0.782306 -0.144382 -0.804552 0.188667 -0.714268 0.158990 1.220681 -0.044958 -0.005155 -0.739064 0.179931 0.453453 0.124291 -0.731993 0.188394 0.453784 0.120281 -0.735887 -0.206389 0.329644 0.073247 0.398622 -0.659622 -0.202498 0.722318 -0.199996 -0.074276 -0.402389 -0.527283 -0.177973 -0.873091 0.465255 0.085627 -1.223652 -0.416657 0.589307 0.460180 0.052807 -0.035949 0.334099 0.052642 -0.418178 2.974168 0.877655 0.266002 -0.188016 -0.747518 -0.536421 -0.493595 0.269313 -0.292736 0.311144 0.116944 -0.347640 0.701295 -0.942217 0.504728 0.182998 0.042992 -0.352069 -0.088151 0.375414 -0.279843 -0.472616 0.259516 0.458063 -0.270574 -0.078676 0.375631 -0.679603 0.178696 0.054016 -0.797278 0.136172 0.798103 -0.981844 0.852347 -0.141547 -0.093488 -0.029420 1.529701 1.226356 -0.016462 0.454909 -0.175062 -0.779209 0.614568 -0.945293 0.906327 -0.070616 -0.407986 -0.072920 -0.393321 -0.116385 -0.424392 -1.319352 0.749019 0.176235 -0.026162 0.358701 -1.101783 1.191341 -0.063671 -0.085091 -0.418503 0.231546 0.424446 0.084289 0.785635 -0.554329 0.214399 0.076396 -0.781607 -0.632871 0.180608 -1.175342 -0.027760 -0.850206 0.809805 0.548362 -0.330868 0.630253 0.140135 -0.803401 0.116537 0.379387 0.433356 0.479079 -0.272741 0.294338 0.473611 -1.051162 0.462680 -0.253615 -0.121724 -0.437767 0.225463 0.814613 -0.578979 0.196342 -0.334550 -0.140613 -0.456799 -0.181356 -0.102131 0.689080 -0.632143 0.538485 -0.260120 -0.141642 -0.466866 -0.197998 0.661929 0.518523 0.095937 0.392941 0.489311 -0.264639 