0.00000000000000009524 0.00000000000000021768 0.00000000000000001701 
0.00000000000000001228 0.00000000000000000000 0.00000000000000003741 
0.00000000000000005846 0.00000000000000010884 0.00000000000000009524 
0.00000000000000011841 0.00000000000000000000 -0.00000000000000003231 
0.00000000000000008971 0.00000000000000021768 0.00000000000000001871 
-0.00000000000000000361 0.00000000000000005442 -0.00000000000000001871 
0.00000000000000008439 0.00000000000000010884 0.00000000000000003231 
0.00000000000000006845 0.00000000000000010884 0.00000000000000002551 
0.00000000000000002360 0.00000000000000021768 0.00000000000000008843 
0.00000000000000005825 0.00000000000000016326 -0.00000000000000006292 
0.00000000000000008503 0.00000000000000010884 -0.00000000000000006462 
-0.00000000000000009098 0.00000000000000010884 0.00000000000000006632 
0.00000000000000005102 0.00000000000000010884 0.00000000000000000510 
0.00000000000000014753 0.00000000000000016326 0.00000000000000001361 
0.00000000000000004549 0.00000000000000021768 0.00000000000000002551 
0.00000000000000003529 0.00000000000000010884 0.00000000000000007653 
0.00000000000000001190 0.00000000000000005442 -0.00000000000000001701 
0.00000000000000002381 0.00000000000000021768 0.00000000000000003911 
-0.00000000000000003996 0.00000000000000010884 -0.00000000000000006632 
0.00000000000000002296 0.00000000000000005442 0.00000000000000000425 
0.00000000000000004677 0.00000000000000010884 0.00000000000000008673 
0.00000000000000004932 0.00000000000000016326 -0.00000000000000008333 
-0.00000000000000006803 0.00000000000000016326 0.00000000000000004422 
0.00000000000000002211 0.00000000000000027210 0.00000000000000005272 
0.00000000000000005357 0.00000000000000010884 0.00000000000000008843 
-0.00000000000000001020 0.00000000000000010884 -0.00000000000000001701 
-0.00000000000000000765 0.00000000000000016326 0.00000000000000004592 
-0.00000000000000009098 0.00000000000000016326 0.00000000000000001531 
0.00000000000000005782 0.00000000000000016326 0.00000000000000003741 
0.00000000000000003231 0.00000000000000010884 -0.00000000000000001956 
0.00000000000000014455 0.00000000000000010884 0.00000000000000000255 
0.00000000000000011224 0.00000000000000021768 0.00000000000000007568 
0.00000000000000011904 0.00000000000000016326 0.00000000000000004932 
0.00000000000000006973 0.00000000000000005442 0.00000000000000003146 
0.00000000000000004422 0.00000000000000005442 0.00000000000000001105 
-0.00000000000000003571 0.00000000000000027210 0.00000000000000005952 
0.00000000000000005952 0.00000000000000016326 0.00000000000000019642 
0.00000000000000008333 0.00000000000000021768 -0.00000000000000009949 
0.00000000000000009183 0.00000000000000021768 -0.00000000000000003231 
0.00000000000000001701 0.00000000000000010884 0.00000000000000005442 
0.00000000000000007398 0.00000000000000000000 0.00000000000000021938 
-0.00000000000000007823 0.00000000000000010884 0.00000000000000003231 
-0.00000000000000002126 0.00000000000000016326 0.00000000000000003741 
-0.00000000000000011352 0.00000000000000005442 0.00000000000000003061 
-0.00000000000000003529 0.00000000000000016326 0.00000000000000003826 
-0.00000000000000003784 0.00000000000000016326 0.00000000000000001786 
0.00000000000000001998 0.00000000000000021768 0.00000000000000006888 
-0.00000000000000015773 0.00000000000000005442 0.00000000000000010629 
-0.00000000000000007398 0.00000000000000000000 0.00000000000000009779 
-0.00000000000000008418 0.00000000000000000000 0.00000000000000007185 
-0.00000000000000005272 0.00000000000000005442 0.00000000000000005485 
-0.00000000000000008354 0.00000000000000016326 0.00000000000000001913 
0.00000000000000000914 0.00000000000000021768 0.00000000000000012245 
-0.00000000000000011033 0.00000000000000010884 -0.00000000000000005825 
-0.00000000000000004454 0.00000000000000010884 0.00000000000000008631 
0.00000000000000000648 0.00000000000000010884 0.00000000000000010374 
0.00000000000000002875 0.00000000000000005442 0.00000000000000013733 
-0.00000000000000002927 0.00000000000000005442 -0.00000000000000012755 
-0.00000000000000004767 0.00000000000000016326 0.00000000000000005655 
-0.00000000000000004576 0.00000000000000016326 0.00000000000000009311 
-0.00000000000000001254 0.00000000000000016326 0.00000000000000010757 
-0.00000000000000005601 0.00000000000000016326 -0.00000000000000000361 
0.00000000000000012053 0.00000000000000021768 0.00000000000000003614 
-0.00000000000000007802 0.00000000000000010884 0.00000000000000014732 
0.00000000000000006335 0.00000000000000010884 0.00000000000000017580 
-0.00000000000000011501 0.00000000000000021768 0.00000000000000001063 
-0.00000000000000005527 0.00000000000000000000 0.00000000000000003380 
-0.00000000000000004719 0.00000000000000016326 0.00000000000000001297 
-0.00000000000000003061 0.00000000000000010884 0.00000000000000009300 
-0.00000000000000009694 0.00000000000000010884 0.00000000000000006866 
-0.00000000000000007610 0.00000000000000010884 0.00000000000000008928 
-0.00000000000000008588 0.00000000000000005442 0.00000000000000010842 
0.00000000000000003656 0.00000000000000000000 0.00000000000000011065 
0.00000000000000000425 0.00000000000000010884 0.00000000000000006771 
0.00000000000000003401 0.00000000000000016326 0.00000000000000009970 
-0.00000000000000011352 0.00000000000000005442 0.00000000000000004082 
0.00000000000000000170 0.00000000000000016326 0.00000000000000007143 
0.00000000000000006632 0.00000000000000005442 0.00000000000000007685 
0.00000000000000010034 0.00000000000000016326 0.00000000000000012361 
-0.00000000000000001403 0.00000000000000016326 0.00000000000000009003 
-0.00000000000000001488 0.00000000000000016326 0.00000000000000007313 
-0.00000000000000000340 0.00000000000000021768 0.00000000000000007525 
-0.00000000000000005442 0.00000000000000010884 0.00000000000000003125 
0.00000000000000002296 0.00000000000000005442 0.00000000000000001233 
0.00000000000000001977 0.00000000000000010884 0.00000000000000009332 
-0.00000000000000001361 0.00000000000000010884 -0.00000000000000001616 
-0.00000000000000002349 0.00000000000000016326 0.00000000000000001052 
0.00000000000000003561 0.00000000017196923773 0.00000000000000004358 
0.00000000000000000804 0.00000003528450856677 0.00000000000000013945 
-0.00000000000000008174 0.00000052528313808251 0.00000000000000003189 
-0.00000000000000003784 0.00000320431630386949 0.00000000000000009226 
-0.00000000000000012287 0.00001238046057457915 0.00000000000000007695 
0.00000000000000007972 0.00003620937583816859 0.00000000000000006632 
-0.00000000000000007355 0.00008777964825652181 0.00000000000000007143 
0.00000000000000005931 0.00018589781291151897 0.00000000000000009481 
-0.00000000000000007270 0.00035552538187140086 0.00000000000000013010 
-0.00000000000000001828 0.00062786457631143770 0.00000000000000011522 
-0.00000000000000001786 0.00104011863213354584 0.00000000000000008163 
0.00000000000000001318 0.00163497030717214159 0.00000000000000001956 
-0.00000000000000007823 0.00245983156263188465 -0.00000000000000001573 
-0.00000000000000002678 0.00356592067538047484 0.00000000000000017389 
0.00000000000000000468 0.00500722209195016751 0.00000000000000005187 
0.00000000000000000595 0.00683938056881400105 0.00000000000000005910 
-0.00000000000000007823 0.00911857562741863817 0.00000000000000005697 
0.00000000000000008078 0.01190041588730039214 0.00000000000000017389 
-0.00000000000000004804 0.01523888601308651634 0.00000000000000009779 
-0.00000000000000003911 0.01918537223979307343 0.00000000000000009609 
-0.00000000000000008886 0.02378778601295525319 0.00000000000000008928 
-0.00000000000000004847 0.02908979938221425976 0.00000000000000007483 
0.00000000000000007355 0.03513020052868569276 0.00000000000000000765 
0.00000000000000005612 0.04194237324000240491 0.00000000000000012797 
-0.00000000000000005612 0.04955390028260977381 0.00000000000000008631 
0.00000000000000006845 0.05798628743908465499 0.00000000000000013350 
0.00000000000000007759 0.06725480243896572730 0.00000000000000001403 
-0.00000000000000010905 0.07736842106181805734 0.00000000000000006888 
-0.00000000000000006718 0.08832987127052972787 0.00000000000000001701 
0.00000000000000006218 0.10013576527748893619 0.00000000000000012330 
-0.00000000000000008647 0.11277680889244777462 -0.00000000000000006930 
0.00000000000000005627 0.12623807728674654727 -0.00000000000000004082 
-0.00000000000000001616 0.14049934637591923736 0.00000000000000000298 
0.00000000000000007185 0.15553546931779366203 0.00000000000000015518 
-0.00000000000000009800 0.17131678809740152891 -0.00000000000000003274 
-0.00000000000000004315 0.18780957078002052940 0.00000000000000014413 
-0.00000000000000006718 0.20497646572149971766 0.00000000000000011607 
0.00000000000000006037 0.22277696479785552564 0.00000000000000024277 
-0.00000000000000010757 0.24116786852611946101 0.00000000000000003359 
-0.00000000000000001063 0.26010374677219866291 0.00000000000000022193 
-0.00000000000000015901 0.27953738955995688364 0.00000000000000008248 
-0.00000000000000008333 0.29942024329342631361 0.00000000000000016751 
-0.00000000000000002806 0.31970282846895087259 0.00000000000000002211 
-0.00000000000000001531 0.34033513567704087865 0.00000000000000012585 
-0.00000000000000017261 0.36126699736816220154 0.00000000000000002381 
-0.00000000000000003061 0.38244843347822532476 0.00000000000000006590 
-0.00000000000000007143 0.40382996957555827855 0.00000000000000005952 
0.00000000000000004082 0.42536292670064201893 0.00000000000000005102 
-0.00000000000000008503 0.44699968252302246796 0.00000000000000007823 
0.00000000000000001956 0.46869390383783915421 0.00000000000000010757 
-0.00000000000000009779 0.49040075076929756648 0.00000000000000002593 
-0.00000000000000010969 0.51207705334277420217 0.00000000000000007440 
-0.00000000000000012330 0.53368146133412330823 0.00000000000000016369 
0.00000000000000002721 0.55517456850746238484 0.00000000000000008461 
-0.00000000000000007143 0.57651901251480774935 0.00000000000000006973 
0.00000000000000002551 0.59767955185596333134 0.00000000000000009864 
-0.00000000000000013945 0.61862312138868758016 -0.00000000000000001488 
0.00000000000000000000 0.63931886794089309856 0.00000000000000014200 
-0.00000000000000004762 0.65973816761191084179 0.00000000000000009226 
-0.00000000000000008843 0.67985462636199034403 0.00000000000000002338 
-0.00000000000000009353 0.69964406546034019208 0.00000000000000003189 
0.00000000000000007398 0.71908447664810226652 0.00000000000000014668 
-0.00000000000000005272 0.73815572975252896626 -0.00000000000000006505 
0.00000000000000000595 0.75683870110972262246 0.00000000000000000553 
-0.00000000000000001786 0.77511399125685920275 0.00000000000000002126 
-0.00000000000000002806 0.79296056686713922712 0.00000000000000018664 
-0.00000000000000014115 0.81035455219460605925 -0.00000000000000005740 
-0.00000000000000013265 0.82726829899083975661 0.00000000000000005442 
-0.00000000000000011819 0.84366979477755454919 0.00000000000000011522 
0.00000000000000006037 0.85952242132664480323 0.00000000000000015986 
-0.00000000000000009183 0.87478504323657635400 0.00000000000000001573 
0.00000000000000009864 0.88941238663358901384 0.00000000000000009736 
-0.00000000000000007483 0.90335565712504073410 0.00000000000000010034 
0.00000000000000003401 0.91656334171907682951 0.00000000000000020705 
0.00000000000000002721 0.92898213957355058046 -0.00000000000000001020 
0.00000000000000008503 0.94055796966182225738 0.00000000000000002083 
-0.00000000000000010544 0.95123700861153581698 0.00000000000000003444 
-0.00000000000000003061 0.96096671840707736933 0.00000000000000006675 
0.00000000000000000000 0.96969686428659396249 -0.00000000000000007780 
-0.00000000000000004082 0.97738077773806231185 0.00000000000000011139 
-0.00000000000000012245 0.98397710634653767769 0.00000000000000012372 
-0.00000000000000009183 0.98945178817304701990 0.00000000000000018579 
-0.00000000000000008503 0.99377992466912046243 0.00000000000000006590 
0.00000000000000005102 0.99694734532275375294 0.00000000000000009524 
-0.00000000000000012925 0.99895175143170122922 0.00000000000000011904 
0.00000000000000001361 0.99980339401505269326 0.00000000000000013222 
-0.00000000000000006462 0.99952528788004602056 0.00000000000000002466 
0.00000000000000005442 0.99815299506747379166 0.00000000000000016156 
-0.00000000000000009864 0.99573403015500727697 0.00000000000000002636 
0.00000000000000005782 0.99232695026449313502 0.00000000000000007823 
-0.00000000000000004762 0.98800019651412018806 0.00000000000000000425 
-0.00000000000000009524 0.98283075297229194334 0.00000000000000009226 
-0.00000000000000009864 0.97690268537520352776 0.00000000000000000702 
-0.00000000000000003061 0.97030561608965637532 0.00000000000000012563 
-0.00000000000000010204 0.96313318488686683327 -0.00000000000000001254 
0.00000000000000001701 0.95548153767276144954 -0.00000000000000004337 
-0.00000000000000014966 0.94744787785293427262 0.00000000000000005591 
-0.00000000000000001020 0.93912910781705782881 0.00000000000000011054 
-0.00000000000000014625 0.93062058132326241910 -0.00000000000000005081 
-0.00000000000000007483 0.92201498148149174661 0.00000000000000004996 
-0.00000000000000011224 0.91340133364821507467 0.00000000000000008822 
0.00000000000000000680 0.90486415787931451238 0.00000000000000016411 
-0.00000000000000008163 0.89648276163648021875 -0.00000000000000003019 
0.00000000000000007143 0.88833067017454403480 0.00000000000000022533 
-0.00000000000000017346 0.88047518940688096478 0.00000000000000004209 
-0.00000000000000006803 0.87297709399748868453 0.00000000000000013414 
-0.00000000000000004082 0.86589043190080916546 0.00000000000000002232 
-0.00000000000000007483 0.85926243550112868519 0.00000000000000011862 
-0.00000000000000017346 0.85313352883065662891 -0.00000000000000013584 
-0.00000000000000002721 0.84753742000976717286 0.00000000000000003593 
-0.00000000000000002381 0.84250126799878122252 -0.00000000000000005208 
0.00000000000000000340 0.83804591292681362980 0.00000000000000003423 
-0.00000000000000009183 0.83418615962337772096 0.00000000000000009566 
-0.00000000000000008843 0.83093110448119567035 0.00000000000000009991 
-0.00000000000000006462 0.82828449638778900432 -0.00000000000000001020 
-0.00000000000000008163 0.82624512314732045937 0.00000000000000007663 
-0.00000000000000017857 0.82480721554590208378 -0.00000000000000000925 
-0.00000000000000000680 0.82396086197040374621 -0.00000000000000000276 
0.00000000000000003741 0.82369242725382496584 0.00000000000000004974 
-0.00000000000000002041 0.82398497017410832211 0.00000000000000007430 
-0.00000000000000010884 0.82481865476560645156 0.00000000000000004422 
0.00000000000000000000 0.82617115130368856679 0.00000000000000002562 
-0.00000000000000019047 0.82801802348603270598 0.00000000000000006707 
-0.00000000000000006803 0.83033309895386242516 0.00000000000000009120 
-0.00000000000000019047 0.83308882086941460354 0.00000000000000002126 
-0.00000000000000010204 0.83625657879032400110 0.00000000000000012330 
0.00000000000000002721 0.83980701755676800957 0.00000000000000005676 
-0.00000000000000001361 0.84371032333337447895 0.00000000000000001499 
-0.00000000000000005442 0.84793648632624418759 -0.00000000000000003295 
-0.00000000000000009524 0.85245554002764489798 0.00000000000000008152 
-0.00000000000000012245 0.85723777712926974015 -0.00000000000000019791 
-0.00000000000000002721 0.86225394249190112639 0.00000000000000004209 
-0.00000000000000027210 0.86747540376773235593 0.00000000000000007961 
-0.00000000000000009524 0.87287430044433711451 0.00000000000000005665 
-0.00000000000000013605 0.87842367221937811550 -0.00000000000000003051 
0.00000000000000005442 0.88409756772555736504 0.00000000000000009067 
-0.00000000000000010884 0.88987113470901557655 0.00000000000000007648 
-0.00000000000000008163 0.89572069280324762008 0.00000000000000009051 
-0.00000000000000016326 0.90162377339041444024 0.00000000000000002981 
-0.00000000000000002721 0.90755890898138080747 0.00000000000000003104 
-0.00000000000000019047 0.91350484022231215331 -0.00000000000000002721 
0.00000000000000005442 0.91943930879041946280 0.00000000000000014859 
-0.00000000000000010884 0.92533777100084912970 0.00000000000000005466 
-0.00000000000000010884 0.93117225728356833869 0.00000000000000006303 
-0.00000000000000016326 0.93691050642302331486 -0.00000000000000001549 
-0.00000000000000005442 0.94251543441051877092 0.00000000000000013345 
-0.00000000000000021768 0.94794494975832077621 0.00000000000000005748 
-0.00000000000000010884 0.95315209518979371328 -0.00000000000000002819 
-0.00000000000000021768 0.95808547578412484036 0.00000000000000009640 
-0.00000000000000010884 0.96268992277452236639 0.00000000000000006380 
-0.00000000000000016326 0.96690733780418280929 -0.00000000000000001446 
0.00000000000000000000 0.97067766260880428142 0.00000000000000009138 
-0.00000000000000005442 0.97393992233232873357 -0.00000000000000001100 
0.00000000000000000000 0.97663329586250424708 0.00000000000000007849 
-0.00000000000000027210 0.97869818005241981940 0.00000000000000011777 
-0.00000000000000005442 0.98007737090820490344 0.00000000000000000530 
-0.00000000000000016326 0.98071770351416576172 -0.00000000000000003513 
-0.00000000000000005442 0.98057206554150078137 0.00000000000000015257 
-0.00000000000000016326 0.97960142924569015843 -0.00000000000000001286 
0.00000000000000010884 0.97777664588692747571 0.00000000000000001068 
-0.00000000000000010884 0.97507985354953619073 0.00000000000000007593 
-0.00000000000000005442 0.97150542720741306368 -0.00000000000000004168 
-0.00000000000000027210 0.96706045488618752604 0.00000000000000000193 
-0.00000000000000010884 0.96176476114909825732 0.00000000000000002874 
-0.00000000000000016326 0.95565052308784093071 0.00000000000000008176 
0.00000000000000000000 0.94876153788669392863 0.00000000000000012793 
-0.00000000000000016326 0.94115220750675054884 -0.00000000000000011524 
-0.00000000000000010884 0.93288630719760912147 0.00000000000000002403 
-0.00000000000000010884 0.92403560201572221278 -0.00000000000000005021 
-0.00000000000000005442 0.91467837056775325166 0.00000000000000012710 
-0.00000000000000010884 0.90489788875973919957 0.00000000000000009314 
-0.00000000000000005442 0.89478091913441160088 -0.00000000000000003916 
-0.00000000000000005442 0.88441624394485474081 -0.00000000000000009405 
0.00000000000000000000 0.87389327281752826604 0.00000000000000005434 
-0.00000000000000016326 0.86330074895888841979 -0.00000000000000003574 
0.00000000000000000000 0.85272557152387939983 0.00000000000000007405 
-0.00000000000000032652 0.84225174608875141846 0.00000000000000008769 
0.00000000000000000000 0.83195947020018179430 0.00000000000000004494 
-0.00000000000000021768 0.82192435671467689584 0.00000000000000002823 
0.00000000000000000000 0.81221679407641411697 0.00000000000000006458 
-0.00000000000000021768 0.80290143976909755796 -0.00000000000000001784 
0.00000000000000000000 0.79403684086693315791 0.00000000000000009126 
-0.00000000000000010884 0.78567517384341778452 0.00000000000000001993 
-0.00000000000000010884 0.77786209451295063033 0.00000000000000006236 
-0.00000000000000010884 0.77063668811780294821 -0.00000000000000003896 
-0.00000000000000010884 0.76403150907178818407 0.00000000000000004148 
-0.00000000000000021768 0.75807269967538148947 0.00000000000000003143 
-0.00000000000000005442 0.75278017717239431583 0.00000000000000002662 
-0.00000000000000021768 0.74816787877758983427 -0.00000000000000001387 
0.00000000000000000000 0.74424405472471000245 0.00000000000000015056 
-0.00000000000000021768 0.74101159992711651547 -0.00000000000000003146 
-0.00000000000000021768 0.73846841547520880589 -0.00000000000000004265 
-0.00000000000000010884 0.73660779188731839717 -0.00000000000000002557 
-0.00000000000000005442 0.73541880675936610601 0.00000000000000010630 
-0.00000000000000010884 0.73488673020283901138 -0.00000000000000009093 
-0.00000000000000005442 0.73499343220369883767 0.00000000000000006437 
-0.00000000000000021768 0.73571778676309385059 -0.00000000000000001492 
-0.00000000000000010884 0.73703606838346913399 0.00000000000000010590 
-0.00000000000000005442 0.73892233713264943162 -0.00000000000000003615 
0.00000000000000010884 0.74134880914763046089 0.00000000000000009911 
-0.00000000000000010884 0.74428621002503003723 -0.00000000000000001885 
0.00000000000000000000 0.74770410908377660242 0.00000000000000010168 
-0.00000000000000021768 0.75157123297640826554 -0.00000000000000005879 
0.00000000000000000000 0.75585575756811373971 0.00000000000000003154 
-0.00000000000000016326 0.76052557739805370929 0.00000000000000000805 
0.00000000000000005442 0.76554855238694585751 0.00000000000000015876 
0.00000000000000000000 0.77089273176030181922 -0.00000000000000003539 
0.00000000000000000000 0.77652655542037407610 0.00000000000000003620 
-0.00000000000000021768 0.78241903322442962754 0.00000000000000003445 
-0.00000000000000010884 0.78853990281517538641 0.00000000000000012795 
-0.00000000000000010884 0.79485976680393166660 0.00000000000000013820 
-0.00000000000000010884 0.80135021023137187335 0.00000000000000008902 
-0.00000000000000010884 0.80798389932725034335 0.00000000000000003327 
0.00000000000000000000 0.81473466266231653332 0.00000000000000009853 
-0.00000000000000005442 0.82157755317340874779 0.00000000000000005102 
0.00000000000000000000 0.82848878900026978744 0.00000000000000007058 
-0.00000000000000021768 0.83544520668624333570 0.00000000000000004581 
-0.00000000000000010884 0.84242317807045707934 0.00000000000000000850 
-0.00000000000000021768 0.84939732427942005177 0.00000000000000002678 
-0.00000000000000005442 0.85633929885539250559 0.00000000000000008567 
-0.00000000000000016326 0.86321680373830256272 0.00000000000000006314 
0.00000000000000000000 0.86999292270128136817 0.00000000000000019345 
-0.00000000000000016326 0.87662580108546384050 -0.00000000000000002168 
0.00000000000000000000 0.88306866284919127708 0.00000000000000004294 
-0.00000000000000005442 0.88927013169355439981 0.00000000000000010204 
-0.00000000000000005442 0.89517480889753597850 0.00000000000000011734 
0.00000000000000000000 0.90072405376872410887 0.00000000000000000170 
-0.00000000000000005442 0.90585691115936595175 0.00000000000000015986 
-0.00000000000000016326 0.91051113266193750562 0.00000000000000008078 
0.00000000000000005442 0.91462424261929420322 0.00000000000000018027 
-0.00000000000000021768 0.91813460602795948784 -0.00000000000000003656 
0.00000000000000000000 0.92098247871762140004 0.00000000000000009268 
0.00000000000000000000 0.92311122906513365383 0.00000000000000009353 
-0.00000000000000010884 0.92446904144058250630 0.00000000000000007653 
-0.00000000000000010884 0.92501091760375209194 0.00000000000000008503 
0.00000000000000005442 0.92470063129434421079 0.00000000000000001020 
-0.00000000000000010884 0.92351240583318672250 -0.00000000000000004422 
0.00000000000000010884 0.92143218502282231430 0.00000000000000008503 
-0.00000000000000016326 0.91845844018265898612 -0.00000000000000010374 
-0.00000000000000005442 0.91460250698790812596 0.00000000000000004932 
-0.00000000000000016326 0.90988847992561594502 0.00000000000000002721 
-0.00000000000000005442 0.90435271366020564265 -0.00000000000000007143 
-0.00000000000000016326 0.89804299262101172641 -0.00000000000000001361 
0.00000000000000005442 0.89101743522122567320 0.00000000000000008163 
-0.00000000000000010884 0.88334319928127735810 0.00000000000000005782 
0.00000000000000005442 0.87509505200677528691 0.00000000000000011904 
-0.00000000000000010884 0.86635386245064005539 0.00000000000000008163 
0.00000000000000005442 0.85720506767247328650 0.00000000000000000340 
-0.00000000000000005442 0.84773715646750347208 0.00000000000000001361 
0.00000000000000005442 0.83804020706254922501 -0.00000000000000001020 
-0.00000000000000010884 0.82820450791415700653 0.00000000000000011904 
0.00000000000000000000 0.81831928392957431484 0.00000000000000013265 
-0.00000000000000021768 0.80847154421373546018 0.00000000000000003061 
-0.00000000000000005442 0.79874506190886729318 0.00000000000000010544 
-0.00000000000000010884 0.78921949187272222304 0.00000000000000003401 
0.00000000000000000000 0.77996962783625856108 -0.00000000000000000680 
-0.00000000000000005442 0.77106479726601284685 0.00000000000000000680 
-0.00000000000000005442 0.76256838938744453404 0.00000000000000018367 
-0.00000000000000005442 0.75453750964950938585 -0.00000000000000000680 
0.00000000000000000000 0.74702275226777259398 -0.00000000000000004082 
-0.00000000000000016326 0.74006808131138379636 0.00000000000000017006 
-0.00000000000000010884 0.73371081003627003359 0.00000000000000007483 
-0.00000000000000010884 0.72798166775321393462 0.00000000000000006803 
0.00000000000000016326 0.72290494339874611374 0.00000000000000006122 
-0.00000000000000005442 0.71849869509702035675 -0.00000000000000002721 
-0.00000000000000005442 0.71477501531478671026 0.00000000000000007483 
0.00000000000000000000 0.71174034167698418951 0.00000000000000004762 
-0.00000000000000005442 0.70939580409005043027 -0.00000000000000009524 
-0.00000000000000016326 0.70773759948132719533 -0.00000000000000008163 
0.00000000000000005442 0.70675738617808125941 0.00000000000000004762 
-0.00000000000000010884 0.70644269069506593350 0.00000000000000011564 
0.00000000000000005442 0.70677732045555086149 0.00000000000000003401 
-0.00000000000000010884 0.70774177672126148408 -0.00000000000000000680 
-0.00000000000000010884 0.70931366273874119077 0.00000000000000002041 
-0.00000000000000005442 0.71146808281316076261 0.00000000000000002721 
-0.00000000000000005442 0.71417802868789004300 0.00000000000000008163 
-0.00000000000000005442 0.71741475023362744068 0.00000000000000014285 
0.00000000000000000000 0.72114810803084716806 -0.00000000000000005442 
-0.00000000000000005442 0.72534690596150608322 0.00000000000000003401 
0.00000000000000010884 0.72997920240942515413 -0.00000000000000000680 
0.00000000000000000000 0.73501259910359983962 -0.00000000000000002721 
-0.00000000000000010884 0.74041450702580524634 -0.00000000000000006803 
-0.00000000000000010884 0.74615238914484727228 0.00000000000000008843 
0.00000000000000000000 0.75219398003673021424 0.00000000000000013605 
-0.00000000000000005442 0.75850748270531542783 0.00000000000000004082 
0.00000000000000010884 0.76506174313445785007 0.00000000000000003401 
-0.00000000000000010884 0.77182640328297269505 0.00000000000000003401 
-0.00000000000000005442 0.77877203338105371877 -0.00000000000000006803 
-0.00000000000000010884 0.78587024450392750641 0.00000000000000009183 
-0.00000000000000010884 0.79309378248845718851 0.00000000000000003061 
-0.00000000000000005442 0.80041660432337125020 0.00000000000000005102 
0.00000000000000000000 0.80781393097945175530 -0.00000000000000000680 
-0.00000000000000010884 0.81526212119494734232 0.00000000000000002381 
0.00000000000000000000 0.82273799880496989445 0.00000000000000008503 
-0.00000000000000005442 0.83021769958645075249 -0.00000000000000009183 
0.00000000000000000000 0.83767537947981762780 0.00000000000000004082 
-0.00000000000000010884 0.84508203233746159722 0.00000000000000009524 
-0.00000000000000005442 0.85240456293474897720 0.00000000000000001361 
0.00000000000000005442 0.85960518702863708551 0.00000000000000013265 
-0.00000000000000005442 0.86664117847478816525 -0.00000000000000001361 
0.00000000000000000000 0.87346494861415191480 -0.00000000000000000850 
0.00000000000000000000 0.88002442116102586045 0.00000000000000005272 
-0.00000000000000005442 0.88626365337203039108 -0.00000000000000000170 
0.00000000000000000000 0.89212364875474514658 -0.00000000000000006207 
-0.00000000000000005442 0.89754330596001608011 -0.00000000000000000935 
-0.00000000000000010884 0.90246045122684181994 -0.00000000000000002636 
-0.00000000000000010884 0.90681290661668711994 -0.00000000000000003019 
0.00000000000000000000 0.91053955238417538798 0.00000000000000001031 
0.00000000000000005442 0.91358134851743344473 -0.00000000000000000202 
-0.00000000000000010884 0.91588228726336928798 0.00000000000000011160 
-0.00000000000000005442 0.91739025499522763862 0.00000000000000003614 
-0.00000000000000005442 0.91805778785844271983 0.00000000000000000340 
-0.00000000000000010884 0.91784271110846160635 0.00000000000000007313 
0.00000000000000000000 0.91670865685774860498 -0.00000000000000001190 
-0.00000000000000005442 0.91462545905323100470 0.00000000000000007823 
0.00000000000000005442 0.91156942791896167222 -0.00000000000000004337 
-0.00000000000000005442 0.90752350885457733209 0.00000000000000003826 
0.00000000000000000000 0.90247733292671461491 0.00000000000000009183 
0.00000000000000000000 0.89642716768596752974 -0.00000000000000011224 
-0.00000000000000005442 0.88937577814890411698 -0.00000000000000008163 
-0.00000000000000010884 0.88133220846718807184 0.00000000000000001701 
0.00000000000000000000 0.87231149512665506762 0.00000000000000011904 
-0.00000000000000005442 0.86233432253801189926 0.00000000000000000340 
0.00000000000000000000 0.85142663165314724782 0.00000000000000004592 
-0.00000000000000016326 0.83961919181747091123 0.00000000000000007993 
0.00000000000000005442 0.82694714549457093433 0.00000000000000005952 
-0.00000000000000005442 0.81344953481478354806 -0.00000000000000003741 
0.00000000000000010884 0.79916881813872187035 0.00000000000000008758 
-0.00000000000000005442 0.78415038402011838503 0.00000000000000004592 
0.00000000000000000000 0.76844206912447088342 0.00000000000000011224 
-0.00000000000000005442 0.75209368583164015742 0.00000000000000000170 
-0.00000000000000005442 0.73515656443841970180 0.00000000000000004337 
-0.00000000000000005442 0.71768311409446738924 0.00000000000000014455 
-0.00000000000000010884 0.69972640586198509016 0.00000000000000007738 
0.00000000000000000000 0.68133978059361266499 0.00000000000000002593 
-0.00000000000000005442 0.66257648367931198941 -0.00000000000000003996 
-0.00000000000000010884 0.64348932812476189458 -0.00000000000000002083 
-0.00000000000000021768 0.62413038689246058688 0.00000000079581146328 
-0.00000000000000005442 0.60455071496256207464 0.00000006783503699435 
-0.00000000000000005442 0.58480010115253788783 0.00000079354332814005 
-0.00000000000000005442 0.56492684937124859612 0.00000432183450720308 
-0.00000000000000005442 0.54497758867153156537 0.00001563218221823561 
-0.00000000000000005442 0.52499711120298531153 0.00004378847683641576 
-0.00000000000000005442 0.50502823694998966175 0.00010297087485807169 
0.00000000000000000000 0.48511170396561797968 0.00021319336253675819 
-0.00000000000000016326 0.46528608267638305040 0.00040066966310972531 
0.00000000000000000000 0.44558771273200753482 0.00069783110257256491 
-0.00000000000000005442 0.42605066080505366033 0.00114302666181781963 
-0.00000000000000010884 0.40670669770372452900 0.00177995130151249303 
-0.00000000000000010884 0.38758529314410927746 0.00265685660858699414 
-0.00000000000000010884 0.36871475958273625118 0.00382560011958900641 
-0.00000000000000016326 0.35011909044943190228 0.00534058806548240016 
-0.00000000000000005442 0.33182068562095917708 0.00725766209009647521 
-0.00000000000000010884 0.31384005823326210916 0.00963297473206586180 
-0.00000000000000010884 0.29619560223285434919 0.01252189188151488046 
0.00000000000000005442 0.27890365974765518597 0.01597795357764912258 
-0.00000000000000005442 0.26197859549458879513 0.02005191779135372110 
-0.00000000000000005442 0.24543287697201512931 0.02479090550287833469 
0.00000000000000000000 0.22927715926849509542 0.03023765960801400726 
-0.00000000000000005442 0.21352037340454205205 0.03642992506360400590 
0.00000000000000000000 0.19816981720972859371 0.04339995325751135058 
-0.00000000000000010884 0.18323124782276811739 0.05117412986270205438 
0.00000000000000000000 0.16870897498614864651 0.05977272238549981992 
-0.00000000000000005442 0.15460595438881333252 0.06920974120124911977 
-0.00000000000000005442 0.14092388038968919894 0.07949290603165096170 
0.00000000000000000000 0.12766327753108011600 0.09062370849552811580 
0.00000000000000000000 0.11482359032367291107 0.10259756049479876183 
-0.00000000000000010884 0.10240327085389273887 0.11540401771638054973 
-0.00000000000000016326 0.09039986382937235943 0.12902706737744409904 
-0.00000000000000005442 0.07881008873922314140 0.14344546945846106678 
-0.00000000000000005442 0.06762991886256895790 0.15863314100314135358 
0.00000000000000000000 0.05685465691139084121 0.17455957356899817756 
-0.00000000000000005442 0.04647900714215055101 0.19119027454473028205 
-0.00000000000000005442 0.03649714381500215182 0.20848722377389591887 
-0.00000000000000005442 0.02690277591974611984 0.22640933770670612635 
0.00000000000000000000 0.01768920812414341570 0.24491293411623793475 
0.00000000000000000000 0.00884939793296034283 0.26395219123949215101 
0.00000000000000005442 0.00037600907528760862 0.28347959601913258476 
-0.00000000000000005442 -0.00773853883653197790 0.30344637691375220268 
0.00000000000000005442 -0.01550202431045677107 0.32380291750166212417 
-0.00000000000000005442 -0.02292238155531385255 0.34449914781692181354 
-0.00000000000000016326 -0.03000766153618709270 0.36548491102048513701 
0.00000000000000000000 -0.03676599638834252698 0.38671030361992225766 
-0.00000000000000005442 -0.04320556706176217898 0.40812598800593830051 
0.00000000000000000000 -0.04933457405897515025 0.42968347657206834578 
-0.00000000000000005442 -0.05516121112155210338 0.45133538712593290754 
-0.00000000000000005442 -0.06069364171521623302 0.47303566968763888223 
-0.00000000000000005442 -0.06593997815981440802 0.49473980510548093426 
0.00000000000000005442 -0.07090826324824670013 0.51640497620370018339 
0.00000000000000000000 -0.07560645419769580766 0.53799021241483457878 
0.00000000000000005442 -0.08004240877698613754 0.55945650904349419896 
0.00000000000000005442 -0.08422387345549060822 0.58076692246278371901 
0.00000000000000000000 -0.08815847342155279376 0.60188664266266211911 
0.00000000000000000000 -0.09185370432178474598 0.62278304465488698582 
-0.00000000000000005442 -0.09531692557671128663 0.64342572029536293510 
0.00000000000000005442 -0.09855535513294709504 0.66378649211510365458 
0.00000000000000005442 -0.10157606551732709099 0.68383941075889964623 
-0.00000000000000010884 -0.10438598106404448074 0.70356073744724167973 
0.00000000000000021768 -0.10699187619182008724 0.72292887894014956629 
-0.00000000000000010884 -0.10940037461434647115 0.74192399461731739496 
-0.00000000000000005442 -0.11161794937363044011 0.76052701484829265954 
0.00000000000000010884 -0.11365092359236773911 0.77871831980031602782 
0.00000000000000005442 -0.11550547184802688327 0.79647639678413251207 
0.00000000000000000000 -0.11718762207787523921 0.81377667963578004251 
0.00000000000000005442 -0.11870325793067453002 0.83059068331900109960 
0.00000000000000005442 -0.12005812148719254007 0.84688548251756701202 
0.00000000000000016326 -0.12125781627795384487 0.86262353853116191527 
0.00000000000000005442 -0.12230781053278615145 0.87776284953484806639 
0.00000000000000000000 -0.12321344060265738973 0.89225738142150079479 
0.00000000000000005442 -0.12397991450003860436 0.90605772702162234999 
-0.00000000000000005442 -0.12461317013831312017 0.91911193813281910625 
0.00000000000000000000 -0.12511782122286857488 0.93136647566155184030 
0.00000000000000005442 -0.12549813053436661980 0.94276722687384251209 
-0.00000000000000005442 -0.12575883300190071612 0.95326054419892858327 
0.00000000000000016326 -0.12590455297574060234 0.96279426643067533842 
0.00000000000000000000 -0.12593980765096035590 0.97131869714623653156 
0.00000000000000010884 -0.12586901037280484594 0.97878767135180011483 
0.00000000000000005442 -0.12569647380689172311 0.98516005967492314976 
0.00000000000000010884 -0.12542641296072448709 0.99040163188316565623 
0.00000000000000010884 -0.12506294804612655414 0.99448693081434036412 
0.00000000000000010884 -0.12461010717506999790 0.99740090601185249497 
0.00000000000000005442 -0.12407182888397907949 0.99914016256321513954 
0.00000000000000000000 -0.12345196448395685807 0.99971375769514858600 
-0.00000000000000005442 -0.12275428023650319931 0.99914353191311500169 
0.00000000000000010884 -0.12198245935619231317 0.99746399814305641840 
0.00000000000000005442 -0.12114010384345291760 0.99472183565329574950 
0.00000000000000010884 -0.12023073615206229803 0.99097504886403364743 
-0.00000000000000005442 -0.11925666764684905718 0.98629185714973743870 
0.00000000000000005442 -0.11822218689147560855 0.98074938249424825631 
-0.00000000000000005442 -0.11713087334447311316 0.97443219899465749467 
0.00000000000000021768 -0.11598594083574491342 0.96743080297859540551 
-0.00000000000000010884 -0.11479052995476687893 0.95984005585037113217 
0.00000000000000005442 -0.11354770887178512739 0.95175764442378452124 
0.00000000000000000000 -0.11226047405237717103 0.94328259595213781452 
0.00000000000000010884 -0.11093175087552917257 0.93451387769744143075 
0.00000000000000005442 -0.10956439416547930632 0.92554910394241374227 
0.00000000000000000000 -0.10816118864756905926 0.91648336700157795320 
0.00000000000000010884 -0.10672484933824186171 0.90740820312372383327 
0.00000000000000005442 -0.10525802187915393737 0.89841069923793093199 
0.00000000000000010884 -0.10376328282511494694 0.88957274228222893431 
0.00000000000000008163 -0.10224313989526666313 0.88097040934398629375 
0.00000000000000005442 -0.10070003219654433124 0.87267349399217464256 
0.00000000000000008163 -0.09913633042805893025 0.86474516194002681857 
0.00000000000000008163 -0.09755433707459336412 0.85724172748191862503 
0.00000000000000010884 -0.09595628659692610751 0.85021254093745002312 
0.00000000000000005442 -0.09434434562620096221 0.84369997654553718913 
0.00000000000000008163 -0.09272061316903351669 0.83773950982076983429 
0.00000000000000008163 -0.09108712082952262479 0.83235987325565641282 
0.00000000000000010884 -0.08944583305378485394 0.82758327937228692850 
0.00000000000000010884 -0.08779864740209884777 0.82342570044685980957 
0.00000000000000005442 -0.08614739485319372614 0.81989719470693933623 
0.00000000000000008163 -0.08449384014468608317 0.81700226939585340880 
0.00000000000000016326 -0.08283968215314449490 0.81474027177782260001 
0.00000000000000010884 -0.08118655431673683920 0.81310579989254316846 
0.00000000000000009524 -0.07953602510292220873 0.81208912563459767497 
0.00000000000000016326 -0.07788959852316182375 0.81167662351100822171 
0.00000000000000013605 -0.07624871469615832065 0.81185119920277426520 
0.00000000000000012245 -0.07461475046068605232 0.81259271280997547038 
0.00000000000000004082 -0.07298902003865805066 0.81387839238451165080 
0.00000000000000009524 -0.07137277574866811303 0.81568323404180431702 
0.00000000000000017687 -0.06976720876987914377 0.81798038558706220869 
0.00000000000000005442 -0.06817344995577123701 0.82074151118908655889 
0.00000000000000014966 -0.06659257069694289599 0.82393713518277522656 
0.00000000000000008843 -0.06502558383185554070 0.82753696357942330142 
0.00000000000000015646 -0.06347344460413978373 0.83151018231172235673 
0.00000000000000004082 -0.06193705166482744995 0.83582573163893347790 
0.00000000000000001361 -0.06041724811765843139 0.84045255648866634690 
0.00000000000000006803 -0.05891482260539913918 0.84535983281720894489 
0.00000000000000014625 -0.05743051043494633301 0.85051717033287921321 
0.00000000000000007823 -0.05596499473882873138 0.85589479214927155493 
0.00000000000000013945 -0.05451890767059383580 0.86146369212043361063 
0.00000000000000003741 -0.05309283163145644968 0.86719577076103471214 
0.00000000000000007143 -0.05168730052550276483 0.87306395077448417652 
0.00000000000000000553 -0.05030280104066994079 0.87904227330378492677 
0.00000000000000001871 -0.04893977395268020447 0.88510597608658525548 
0.00000000000000005102 -0.04759861544907336567 0.89123155207833015812 
0.00000000000000011904 -0.04627967847046867561 0.89739668655948123810 
0.00000000000000010884 -0.04498327406619161833 0.90357970635081308330 
0.00000000000000005102 -0.04370967276141456831 0.90975849253067342381 
0.00000000000000004082 -0.04245910593299188213 0.91590919012288052325 
0.00000000000000018367 -0.04123176719121610101 0.92200498684794418569 
0.00000000000000005102 -0.04002781376476809844 0.92801512470440561398 
0.00000000000000004082 -0.03884736788620929415 0.93390422902527214788 
0.00000000000000002041 -0.03769051817542466015 0.93963198389516033870 
0.00000000000000005442 -0.03655732101852311733 0.94515314497854630016 
0.00000000000000010884 -0.03544780193977399574 0.95041785655182620118 
0.00000000000000014966 -0.03436195696426981583 0.95537222539899013807 
0.00000000000000008843 -0.03330060859787760397 0.95995909749941654709 
0.00000000000000012925 -0.03226334941799699485 0.96411898197637346808 
0.00000000000000016326 -0.03124951305159620260 0.96779106893573496606 
0.00000000000000009524 -0.03025899496957106666 0.97091429234208737054 
0.00000000000000005442 -0.02929166753410045870 0.97342839499963051964 
0.00000000000000006803 -0.02834738127316241765 0.97527496652649836584 
-0.00000000000000000680 -0.02742596613212450879 0.97639858147925340237 
0.00000000000000001361 -0.02652723270101046277 0.97674838332870006496 
-0.00000000000000002041 -0.02565097341615172472 0.97628003278283570499 
0.00000000000000000000 -0.02479696373505388060 0.97495766864931776574 
0.00000000000000002721 -0.02396496328342136509 0.97275562805324533588 
0.00000000000000004762 -0.02315471697339795826 0.96965977944680048495 
0.00000000000000006122 -0.02236595609218429426 0.96566839930324332997 
0.00000000000000017006 -0.02159839936031407448 0.96079257799606576640 
-0.00000000000000002721 -0.02085175395896378750 0.95505617737443149196 
0.00000000000000006803 -0.02012571652577935591 0.94849538616918127598 
0.00000000000000005442 -0.01941940111524233237 0.94115793295742866675 
0.00000000000000009524 -0.01873225570552233474 0.93310202263745256612 
0.00000000000000013605 -0.01806483104674568713 0.92439506330902465603 
0.00000000000000009524 -0.01741678679837467547 0.91511224774492483380 
0.00000000000000006803 -0.01678777678385266758 0.90533504853068369478 
0.00000000000000000000 -0.01617744978161798908 0.89514967939456036028 
-0.00000000000000002721 -0.01558545028403736724 0.88464556796109639070 
0.00000000000000006803 -0.01501141922440255710 0.87391387766117578639 
-0.00000000000000012245 -0.01445499467221005724 0.86304610919103119659 
0.00000000000000005442 -0.01391581249699640373 0.85213280498627919091 
0.00000000000000005442 -0.01339350700107255071 0.84126237382862012470 
0.00000000000000006803 -0.01288771152154534472 0.83052004702686255122 
0.00000000000000005442 -0.01239805900207196533 0.81998697265342346263 
0.00000000000000005442 -0.01192418253483816179 0.80973945007730474543 
0.00000000000000004082 -0.01146571587329162263 0.79984830349271762717 
0.00000000000000010884 -0.01102229391620438738 0.79037839025837730578 
-0.00000000000000005442 -0.01059355316367161827 0.78138823758356479310 
0.00000000000000011564 -0.01017913214568548844 0.77292979936406780439 
0.00000000000000007483 -0.00977867182394994913 0.76504832372180753275 
0.00000000000000000000 -0.00939181596762997568 0.75778232097393194433 
-0.00000000000000000680 -0.00901821150374602920 0.75116362128989522251 
0.00000000000000017006 -0.00865750884294468059 0.74521751113128709143 
-0.00000000000000000680 -0.00830936218139020043 0.73996293765590448466 
0.00000000000000004762 -0.00797342977953711778 0.73541277055644005411 
-0.00000000000000000680 -0.00764937421854609487 0.73157411125187188361 
0.00000000000000004082 -0.00733686263512015827 0.72844863991787389690 
0.00000000000000012925 -0.00703556693553705498 0.72603299149787481337 
0.00000000000000002721 -0.00674516398965717412 0.72431915255002798926 
-0.00000000000000000680 -0.00646533580568643251 0.72329487153293092749 
0.00000000000000008163 -0.00619576968646922896 0.72294407589400166980 
-0.00000000000000001361 -0.00593615836808664404 0.72324729008228882954 
0.00000000000000001361 -0.00568620014152209068 0.72418204934860042066 
0.00000000000000006122 -0.00544559895815598452 0.72572330490959979787 
0.00000000000000014966 -0.00521406451983629730 0.72784381673083342612 
0.00000000000000007483 -0.00499131235426487647 0.73051453082060346933 
0.00000000000000006122 -0.00477706387642584229 0.73370493851814722053 
0.00000000000000000000 -0.00457104643676789230 0.73738341580325683644 
0.00000000000000009524 -0.00437299335684235985 0.74151754114914958382 
0.00000000000000009524 -0.00418264395308022910 0.74607439088596272381 
0.00000000000000008843 -0.00399974354937571771 0.75102081143957299947 
0.00000000000000002721 -0.00382404347913016963 0.75632366816094853679 
0.00000000000000012925 -0.00365530107739066518 0.76195007076703291649 
0.00000000000000002041 -0.00349327966369957291 0.76786757567759100773 
-0.00000000000000003401 -0.00333774851625477306 0.77404436575624790962 
-0.00000000000000001361 -0.00318848283796220903 0.78044940815097918474 
0.00000000000000000000 -0.00304526371494118859 0.78705259108251968136 
0.00000000000000005442 -0.00290787806802606094 0.79382484055155588809 
0.00000000000000011564 -0.00277611859778792739 0.80073821803008649045 
0.00000000000000002721 -0.00264978372358157417 0.80776600027188261155 
0.00000000000000007483 -0.00252867751710282801 0.81488273976238789764 
0.00000000000000008163 -0.00241260963092278149 0.82206420378351974243 
0.00000000000000002721 -0.00230139522244696224 0.82928682567991962582 
0.00000000000000008843 -0.00219485487372674936 0.83652661968617225696 
0.00000000000000006122 -0.00209281450753484501 0.84375789275229651221 
0.00000000000000008163 -0.00199510530009415618 0.85095202543182035804 
0.00000000000000007483 -0.00190156359083521126 0.85807648557372884213 
-0.00000000000000000680 -0.00181203078953659871 0.86509415944056589076 
0.00000000000000002721 -0.00172635328118585988 0.87196302911827250348 
0.00000000000000006803 -0.00164438232888298812 0.87863618725071279680 
0.00000000000000007823 -0.00156597397508852231 0.88506215587655712174 
0.00000000000000002381 -0.00149127708075058900 0.89118546201560311371 
0.00000000000000003741 -0.00142097295062873323 0.89694741592247784201 
0.00000000000000005102 -0.00135374971263883229 0.90228703646775976210 
0.00000000000000013265 -0.00128948567947784957 0.90714207026936566347 
0.00000000000000000340 -0.00122806321999012957 0.91145005571645010267 
0.00000000000000003061 -0.00116936866639490698 0.91514938897018593966 
0.00000000000000003061 -0.00111329222108176237 0.91818037232905447276 
0.00000000000000006462 -0.00105972786317652234 0.92048643422033560313 
0.00000000000000003401 -0.00100857325506477856 0.92201583101772499607 
0.00000000000000002381 -0.00095972964905415828 0.92272364690480024318 
0.00000000000000003401 -0.00091310179433992341 0.92257374702825989399 
0.00000000000000001701 -0.00086859784442183652 0.92154045375795345940 
-0.00000000000000003061 -0.00082612926512183279 0.91960981634121985451 
0.00000000000000000680 -0.00078561074332322443 0.91678041678522981250 
0.00000000000000008843 -0.00074696009656042065 0.91306370563458283396 
0.00000000000000001361 -0.00071009818356151607 0.90848389545501251341 
-0.00000000000000000340 -0.00067494881584781235 0.90307746131281518842 
0.00000000000000003401 -0.00064058404169762531 0.89689230955935073109 
0.00000000000000001701 -0.00060728180692914079 0.88998668132664349173 
0.00000000000000005442 -0.00057555621410640607 0.88242785730351602780 
-0.00000000000000008503 -0.00054533794929893928 0.87429072713862621136 
0.00000000000000009183 -0.00051656043800786761 0.86565628139617278869 
0.00000000000000010204 -0.00048915975449008355 0.85661007727337779016 
0.00000000000000000000 -0.00046307453306939327 0.84724072194809763037 
-0.00000000000000001020 -0.00043824588145118898 0.83763840995003346901 
0.00000000000000004762 -0.00041461729605776033 0.82789354368672551931 
-0.00000000000000001701 -0.00039213457939338650 0.81809545944108652549 
0.00000000000000008503 -0.00037074575944321677 0.80833127493980894140 
-0.00000000000000007823 -0.00035040101110707513 0.79868486905550195587 
0.00000000000000001020 -0.00033105257966439946 0.78923599938492261519 
0.00000000000000006632 -0.00031265470626287456 0.78005955934060633439 
-0.00000000000000003061 -0.00029516355542166242 0.77122497297773795477 
-0.00000000000000005102 -0.00027853714453299341 0.76279572300931730577 
-0.00000000000000001871 -0.00026273527534682574 0.75482900528676810659 
0.00000000000000001190 -0.00024771946741981843 0.74737550138036989988 
0.00000000000000007993 -0.00023345289350474137 0.74047925972205452805 
0.00000000000000003231 -0.00021990031685840416 0.73417767501031661048 
0.00000000000000002891 -0.00020702803044073093 0.72850155516344650142 
-0.00000000000000001190 -0.00019480379797772956 0.72347526498673875306 
-0.00000000000000003061 -0.00018319679685846544 0.71911693583972036148 
-0.00000000000000004422 -0.00017217756283550978 0.71543873090355480926 
0.00000000000000001361 -0.00016171793649665919 0.71244715611434328295 
0.00000000000000002721 -0.00015179101147497532 0.71014340740777159855 
-0.00000000000000002381 -0.00014237108436228815 0.70852374558198960575 
-0.00000000000000001871 -0.00013343360629140184 0.70757989080088801170 
0.00000000000000002211 -0.00012495513615164416 0.70729942950548607694 
0.00000000000000007483 -0.00011691329540177320 0.70766622725728600685 
0.00000000000000007483 -0.00010928672444256979 0.70866084178807797755 
-0.00000000000000007058 -0.00010205504051323839 0.71026093126288725177 
0.00000000000000006377 -0.00009519879707372680 0.71244165346637189362 
0.00000000000000000340 -0.00008869944463647556 0.71517605229037928272 
0.00000000000000002381 -0.00008253929300925814 0.71843542852595976278 
0.00000000000000005782 -0.00007670147491221492 0.72218969254317932904 
0.00000000000000000000 -0.00007116991093255131 0.72640769697435969565 
0.00000000000000007483 -0.00006592927577909150 0.73105754799991962134 
0.00000000000000000170 -0.00006096496580047133 0.73610689427090469916 
-0.00000000000000000850 -0.00005626306772973291 0.74152319288947821097 
0.00000000000000006718 -0.00005181032862101600 0.74727395220968928502 
0.00000000000000004252 -0.00004759412694030637 0.75332695151781081666 
-0.00000000000000007653 -0.00004360244477787455 0.75965043790689723568 
0.00000000000000001743 -0.00003982384114454898 0.76621330087666428277 
0.00000000000000001998 -0.00003624742632105569 0.77298522537020120105 
0.00000000000000007185 -0.00003286283722338461 0.77993682410633169422 
0.00000000000000008333 -0.00002966021375482280 0.78703975018362315463 
0.00000000000000003911 -0.00002663017610837682 0.79426679102201547256 
-0.00000000000000000213 -0.00002376380299162559 0.80159194477300088622 
0.00000000000000007525 -0.00002105261073982794 0.80899047316498462479 
0.00000000000000013350 -0.00001848853328874143 0.81643877529938035931 
-0.00000000000000004889 -0.00001606390297644913 0.82391371498651899685 
-0.00000000000000001786 -0.00001377143214624951 0.83139146759324644709 
0.00000000000000008631 -0.00001160419551929074 0.83884622826370391913 
-0.00000000000000000425 -0.00000955561331474911 0.84624902966366877255 
-0.00000000000000005655 -0.00000761943508378731 0.85356681498453568224 
0.00000000000000009864 -0.00000578972423667750 0.86076183799230365778 
-0.00000000000000000765 -0.00000406084323461538 0.86779141013277971695 
0.00000000000000002764 -0.00000242743942167838 0.87460797990426408788 
-0.00000000000000007610 -0.00000088443147417851 0.88115950773002438279 
-0.00000000000000002551 0.00000000000000011904 0.88739008711027056453 
0.00000000000000016028 0.00000000000000011564 0.89324075731265561995 
0.00000000000000008439 0.00000000000000004762 0.89865045224556572290 
-0.00000000000000004230 0.00000000000000008503 0.90355703288335376122 
0.00000000000000002487 0.00000000000000002041 0.90789835548060149328 
0.00000000000000011267 0.00000000000000010544 0.91161333392257204444 
0.00000000000000001743 0.00000000000000002041 0.91464296124533661647 
0.00000000000000001892 0.00000000000000007483 0.91693126214104403449 
0.00000000000000001403 0.00000000000000001361 0.91842615480584832710 
0.00000000000000009715 0.00000000000000022788 0.91908020656667732684 
0.00000000000000004592 0.00000000000000010884 0.91885127320066162238 
0.00000000000000004868 0.00000000000000010544 0.91770301666456111089 
0.00000000000000007568 0.00000000000000012585 0.91560530005556950428 
0.00000000000000001743 -0.00000000000000001361 0.91253446203837573769 
0.00000000000000005963 -0.00000000000000003061 0.90847347572914449731 
-0.00000000000000002487 0.00000000000000009864 0.90341199917366798999 
0.00000000000000002445 -0.00000000000000000340 0.89734632615231801900 
0.00000000000000016624 -0.00000000000000001361 0.89027924715138972989 
0.00000000000000002455 0.00000000000000007483 0.88221983102290424394 
-0.00000000000000004443 -0.00000000000000001020 0.87318313817576675984 
0.00000000000000002689 0.00000000000000005102 0.86318987615995612650 
0.00000000000000003996 0.00000000000000007823 0.85226600827775467195 
0.00000000000000007865 0.00000000000000002721 0.84044232543242891609 
0.00000000000000006951 0.00000000000000018027 0.82775399085065481941 
0.00000000000000001690 0.00000000000000004762 0.81424006663025638719 
0.00000000000000008896 0.00000000000000004082 0.79994303030429247947 
-0.00000000000000002997 -0.00000000000000009524 0.78490828880581298144 
0.00000000000000005357 0.00000000000000006462 0.76918369638974826152 
0.00000000000000008216 0.00000000000000009864 0.75281908224003257768 
0.00000000000000007291 -0.00000000000000000680 0.73586579267794616221 
0.00000000000000001180 -0.00000000000000001361 0.71837625210501765416 
-0.00000000000000006197 0.00000000000000010884 0.70040354607081944938 
0.00000000000000009327 0.00000000000000011224 0.68200102916006988263 
0.00000000000000009136 -0.00000000000000004762 0.66322195974976749788 
0.00000000000000006994 0.00000000000000003741 0.64411916309880901110 
0.00000000017196892502 0.00000000000000004422 0.62474472370123790288 
0.00000003528450854429 0.00000000000000014285 0.60514970736008644181 
0.00000052528313810526 0.00000000000000009864 0.58538391302083558898 
0.00000320431630381837 0.00000000000000000680 0.56549565404002199998 
0.00001238046057454248 0.00000000000000012925 0.54553156825303295019 
0.00003620937583824315 -0.00000000000000000680 0.52553645594270737007 
0.00008777964825652649 0.00000000000000002041 0.50555314459371791802 
0.00018589781291141895 0.00000000000000003741 0.48562237914333789002 
0.00035552538187133299 0.00000000000000008503 0.46578273630346300749 
0.00062786457631137818 0.00000000000000006462 0.44607056142803042098 
0.00104011863213361935 0.00000000000000009183 0.42651992633060409332 
0.00163497030717202926 0.00000000000000008843 0.40716260641538964959 
0.00245983156263168256 0.00000000000000007993 0.38802948377136664559 
0.00356592067538045098 0.00000000000000004932 0.36914625469970346883 
0.00500722209195015363 0.00000000000000002551 0.35053784074141264293 
0.00683938056881389696 0.00000000000000003741 0.33222693556419330418 
0.00911857562741866939 0.00000000000000004592 0.31423405420526723253 
0.01190041588730036091 0.00000000000000013435 0.29657759209127398936 
0.01523888601308651808 0.00000000000000003911 0.27927389242715644491 
0.01918537223979306650 0.00000000000000004932 0.26233732062170878052 
0.02378778601295519074 0.00000000000000007823 0.24578034449782609761 
0.02908979938221420772 0.00000000000000002551 0.22961361911891151055 
0.03513020052868557480 0.00000000000000006973 0.21384607514807146833 
0.04194237324000223144 0.00000000000000009524 0.19848500974242927475 
0.04955390028260969054 0.00000000000000003911 0.18353617907015212785 
0.05798628743908449540 0.00000000000000010034 0.16900389162174225821 
0.06725480243896575505 -0.00000000000000000680 0.15489110156906174542 
0.07736842106181805734 0.00000000000000004422 0.14119950150487323159 
0.08832987127052938092 0.00000000000000010204 0.12792961397189098194 
0.10013576527748889455 0.00000000000000010544 0.11508088126307261523 
0.11277680889244788565 0.00000000000000007823 0.10265175304387957889 
0.12623807728674649176 0.00000000000000018707 0.09063977141224485723 
0.14049934637591912634 0.00000000000000019727 0.07904165307293614662 
0.15553546931779371754 0.00000000000000011904 0.06785336835976127356 
0.17131678809740152891 -0.00000000000000005102 0.05707021689165300143 
0.18780957078002061267 -0.00000000000000000340 0.04668689969709696741 
0.20497646572149966215 0.00000000000000011904 0.03669758768571296931 
0.22277696479785547012 0.00000000000000009864 0.02709598638612726457 
0.24116786852611951653 0.00000000000000005442 0.01787539690576553722 
0.26010374677219855188 0.00000000000000008163 0.00902877310092701189 
0.27953738955995688364 0.00000000000000008503 0.00054877497468872646 
0.29942024329342609157 0.00000000000000010544 -0.00757218165402610052 
0.31970282846895081708 -0.00000000000000001361 -0.01534187914430303577 
0.34033513567704076763 0.00000000000000012245 -0.02276825560454138336 
0.36126699736816220154 0.00000000000000017346 -0.02985936593901158606 
0.38244843347822526924 0.00000000000000011224 -0.03662334625338043576 
0.40382996957555838957 -0.00000000000000003401 -0.04306838149126148568 
0.42536292670064201893 0.00000000000000011224 -0.04920267616447971532 
0.44699968252302235694 0.00000000000000015986 -0.05503442803240207043 
0.46869390383783915421 0.00000000000000014285 -0.06057180458028509767 
0.49040075076929734443 0.00000000000000002041 -0.06582292214287001342 
0.51207705334277420217 0.00000000000000012585 -0.07079582751731594570 
0.53368146133412330823 0.00000000000000005442 -0.07549848190880184551 
0.55517456850746238484 0.00000000000000003401 -0.07993874705262070390 
0.57651901251480774935 0.00000000000000000680 -0.08412437335816692896 
0.59767955185596322032 0.00000000000000001361 -0.08806298992278148441 
0.61862312138868758016 0.00000000000000006122 -0.09176209626679866782 
0.63931886794089309856 0.00000000000000015646 -0.09522905564525842304 
0.65973816761191084179 0.00000000000000000000 -0.09847108979645499693 
0.67985462636199023301 0.00000000000000014966 -0.10149527499273847120 
0.69964406546034019208 0.00000000000000008163 -0.10430853926460179060 
0.71908447664810226652 0.00000000000000013605 -0.10691766067507975368 
0.73815572975252896626 0.00000000000000000000 -0.10932926652767761821 
0.75683870110972273348 0.00000000000000005442 -0.11154983339745394577 
0.77511399125685898071 0.00000000000000002721 -0.11358568788137221595 
0.79296056686713922712 0.00000000000000012245 -0.11544300797059456332 
0.81035455219460583720 0.00000000000000010884 -0.11712782495393177229 
0.82726829899083997866 0.00000000000000013605 -0.11864602576817620538 
0.84366979477755443817 0.00000000000000004762 -0.12000335571744309704 
0.85952242132664491425 0.00000000000000012245 -0.12120542148994345455 
0.87478504323657646502 0.00000000000000012925 -0.12225769440672669408 
0.88941238663358890282 0.00000000000000008163 -0.12316551384288500215 
0.90335565712504062308 0.00000000000000012245 -0.12393522381782760833 
0.91656334171907694053 0.00000000000000010204 -0.12457098967345157925 
0.92898213957355069148 0.00000000000000008843 -0.12507748922691211413 
0.94055796966182225738 0.00000000000000010204 -0.12545957399640830787 
0.95123700861153581698 0.00000000000000013265 -0.12572198134473133724 
0.96096671825604595973 0.00000000000000011224 -0.12586933800018387797 
0.96969684585846172009 0.00000000000000013265 -0.12590616347994487700 
0.97738058880032918641 -0.00000000000000005782 -0.12583687339530230664 
0.98397623631495778618 0.00000000000000009864 -0.12566578262182698245 
0.98944910664574614589 0.00000000000000004762 -0.12539710832097117343 
0.99377343677503660047 0.00000000000000007483 -0.12503497280268302538 
0.99693399616560141041 0.00000000000000007653 -0.12458340622150848587 
0.99892729614935393823 0.00000000000000021598 -0.12404634910125254821 
0.99976233887595089556 0.00000000000000006207 -0.12342765468564260989 
0.99946090031691370292 0.00000000000000005314 -0.12273109111455313136 
0.99805737573629482728 0.00000000000000010778 -0.12196034342725779742 
0.99559823731441055017 0.00000000000000005293 -0.12111901539584314647 
0.99214116545371133782 0.00000000000000010799 -0.12021005818983150626 
0.98775392024120112211 -0.00000000000000001871 -0.11923668746016037601 
0.98251301957878633964 0.00000000000000013095 -0.11820315264464481553 
0.97650228716676146234 0.00000000000000011734 -0.11711274345062373803 
0.96981132802334413245 0.00000000000000007823 -0.11596867535162891372 
0.96253398244410692808 0.00000000000000007993 -0.11477409052635717535 
0.95476680191912266515 0.00000000000000000000 -0.11353205868106309995 
0.94660758302035175049 0.00000000000000001531 -0.11224557776532080589 
0.93815398799197424751 -0.00000000000000007143 -0.11091757459131376673 
0.92950227395515905293 0.00000000000000007143 -0.10955090536689701675 
0.92074614642357499594 0.00000000000000007143 -0.10814835615266826796 
0.91197574729896790924 0.00000000000000014966 -0.10671264325318699506 
0.90327678271091149664 0.00000000000000002381 -0.10524641355230449080 
0.89472979197951296726 0.00000000000000003741 -0.10375224480231985680 
0.88640955558737222209 0.00000000000000000340 -0.10223264587636521350 
0.87838463730354143788 0.00000000000000008163 -0.10069005699306812773 
0.87071705345295757894 0.00000000000000005442 -0.09912684992212268675 
0.86346206070933473331 0.00000000000000007823 -0.09754532817896459373 
0.85666805264501211248 0.00000000000000002041 -0.09594772721625986767 
0.85037655453535743177 0.00000000000000006462 -0.09433621461942393038 
0.84462230552788042370 0.00000000000000003741 -0.09271289031286468474 
0.83943341719059638706 -0.00000000000000007823 -0.09107978678311084986 
0.83483159759816227830 0.00000000000000009524 -0.08943886932444858329 
0.83083243045050081399 0.00000000000000012245 -0.08779203631214609060 
0.82744569920462363033 -0.00000000000000000340 -0.08614111950780564686 
0.82467574679886290756 -0.00000000000000001701 -0.08448788440084381568 
0.82252186222719581021 0.00000000000000009183 -0.08283403058957800047 
0.82097868595199152697 0.00000000000000019387 -0.08118119220487390875 
0.82003662690274514713 0.00000000000000002381 -0.07953093837881948514 
0.81968228457660063935 0.00000000000000003401 -0.07788477376039264211 
0.81989887051766785486 0.00000000000000002041 -0.07624413907963660531 
0.82066662419345182133 0.00000000000000013605 -0.07461041176140539855 
0.82196321899811219946 0.00000000000000010204 -0.07298490658932091368 
0.82376415478617304178 -0.00000000000000003401 -0.07136887642018595324 
0.82604313397125006535 0.00000000000000014285 -0.06976351294871865893 
0.82877241880870733404 0.00000000000000008163 -0.06816994752212528208 
0.83192316801676990945 -0.00000000000000000680 -0.06658925200370346964 
0.83546575137664891297 -0.00000000000000006803 -0.06502243968436788313 
0.83937004138884108162 0.00000000000000001361 -0.06347046624071284171 
0.84360568145098180359 0.00000000000000004762 -0.06193423073798223766 
0.84814233036407615796 0.00000000000000008163 -0.06041457667608976512 
0.85294988327082088553 -0.00000000000000004762 -0.05891229307663112952 
0.85799866938452495901 0.00000000000000006122 -0.05742811560866025594 
0.86325962708265657763 0.00000000000000004762 -0.05596272775084154549 
0.86870445711819022083 0.00000000000000000680 -0.05451676198746788216 
0.87430575484772077299 0.00000000000000002041 -0.05309080103572022535 
0.88003712249074916851 0.00000000000000005782 -0.05168537910146091957 
0.88587326252261489046 0.00000000000000013945 -0.05030098316078664838 
0.89179005336648797808 0.00000000000000011564 -0.04893805426451416918 
0.89776460138339320149 0.00000000000000000340 -0.04759698886274603413 
0.90377511370600915885 0.00000000000000010884 -0.04627814014664882042 
0.90980022453327613619 0.00000000000000007483 -0.04498181940457645495 
0.91581784088345108419 0.00000000000000007823 -0.04370829738969159856 
0.92180384969065953804 0.00000000000000000340 -0.04245780569626440154 
0.92773093441672138670 0.00000000000000006803 -0.04123053814187373906 
0.93356764693361871110 0.00000000000000001020 -0.04002665215278941591 
0.93927780647921244039 0.00000000000000003741 -0.03884627014987708515 
0.94482024571268419244 0.00000000000000006122 -0.03768948093244253034 
0.95014888909434558339 0.00000000000000002381 -0.03655634105751422863 
0.95521312683369408170 0.00000000000000007143 -0.03544687621215127787 
0.95995843519529511223 0.00000000000000004422 -0.03436137071570691953 
0.96432718842976317131 0.00000000000000013945 -0.03330060859787749988 
0.96825960698084700962 0.00000000000000009524 -0.03226334941799707118 
0.97169478934310493656 0.00000000000000011224 -0.03124951305159631709 
0.97457177981126286159 -0.00000000000000003061 -0.03025899496957107360 
0.97683063064319752833 0.00000000000000005442 -0.02929166753410053156 
0.97841345775244092930 0.00000000000000017346 -0.02834738127316245582 
0.97926574364927232441 0.00000000000000007143 -0.02742596613212453308 
0.97933812827776456356 0.00000000000000004422 -0.02652723270101048011 
0.97858842443734384009 0.00000000000000010204 -0.02565097341615170737 
0.97698353093165990479 0.00000000000000019727 -0.02479696373505379040 
0.97450103591736958464 0.00000000000000014966 -0.02396496328342141019 
0.97113039726305894206 -0.00000000000000000680 -0.02315471697339797560 
0.96687365447532602758 0.00000000000000007143 -0.02236595609218426650 
0.96174567387729348322 0.00000000000000010544 -0.02159839936031417162 
0.95577396004184755895 0.00000000000000018027 -0.02085175395896387077 
0.94899808583562472730 0.00000000000000004422 -0.02012571652577917550 
0.94146880388101761294 0.00000000000000003741 -0.01941940111524234625 
0.93324690620976424871 0.00000000000000012925 -0.01873225570552240413 
0.92440189825657159695 0.00000000000000015306 -0.01806483104674573570 
0.91501054959364236385 -0.00000000000000007483 -0.01741678679837477262 
0.90515537806316093139 -0.00000000000000001701 -0.01678777678385267799 
0.89492311707603044990 0.00000000000000000340 -0.01617744978161801336 
0.88440320844353548235 0.00000000000000022788 -0.01558545028403745918 
0.87368635565254149089 0.00000000000000005782 -0.01501141922440257272 
0.86286316530651996359 -0.00000000000000002041 -0.01445499467221004683 
0.85202289775017148177 0.00000000000000019727 -0.01391581249699638118 
0.84125234180939179041 0.00000000000000008673 -0.01339350700107260275 
0.83063482318368775381 0.00000000000000007823 -0.01288771152154541758 
0.82024935135188148383 0.00000000000000014115 -0.01239805900207200870 
0.81016990588768356130 0.00000000000000012415 -0.01192418253483822424 
0.80046485979961146118 0.00000000000000023639 -0.01146571587329161916 
0.79119653486425334243 0.00000000000000002891 -0.01102229391620428156 
0.78242088185767877384 0.00000000000000008503 -0.01059355316367162868 
0.77418727704639600518 0.00000000000000002721 -0.01017913214568548150 
0.76653842521432169477 0.00000000000000016836 -0.00977867182394991791 
0.75951035881415251971 0.00000000000000006462 -0.00939181596763011967 
0.75313252248115158949 0.00000000000000003061 -0.00901821150374614543 
0.74742793207919167031 0.00000000000000015306 -0.00865750884294477600 
0.74241339761183322565 0.00000000000000007143 -0.00830936218139036349 
0.73809979967902472620 0.00000000000000013775 -0.00797342977953724788 
0.73449240965140760729 0.00000000000000001020 -0.00764937421854620068 
0.73159124433289746126 0.00000000000000009694 -0.00733686263512027797 
0.72939144655667476069 0.00000000000000007483 -0.00703556693553715386 
0.72788368388296853517 0.00000000000000005272 -0.00674516398965732417 
0.72705455831629450802 0.00000000000000005952 -0.00646533580568644552 
0.72688702071618382927 0.00000000000000001020 -0.00619576968646927666 
0.72736078432346640277 0.00000000000000013775 -0.00593615836808651480 
0.72845273255152764857 0.00000000000000006632 -0.00568620014152204038 
0.73013731688900374017 0.00000000000000013265 -0.00544559895815594722 
0.73238694141993521125 0.00000000000000019727 -0.00521406451983621577 
0.73517233108422996857 0.00000000000000017346 -0.00499131235426493805 
0.73846288137204429969 0.00000000000000004592 -0.00477706387642599581 
0.74222698766835748518 0.00000000000000012670 -0.00457104643676780036 
0.74643235293790966001 0.00000000000000012500 -0.00437299335684256368 
0.75104627286602931857 0.00000000000000011054 -0.00418264395308033405 
0.75603589794877457120 0.00000000000000008673 -0.00399974354937573939 
0.76136847235794868904 0.00000000000000009864 -0.00382404347913026330 
0.76701154969505702663 -0.00000000000000000085 -0.00365530107739084212 
0.77293318599570604022 0.00000000000000015051 -0.00349327966369970908 
0.77910211055500822042 0.00000000000000013010 -0.00333774851625489710 
0.78548787531815866814 0.00000000000000002041 -0.00318848283796220903 
0.79206098372145483655 0.00000000000000014115 -0.00304526371494123803 
0.79879299998056763066 0.00000000000000022874 -0.00290787806802615591 
0.80565663990779434744 0.00000000000000005612 -0.00277611859778804102 
0.81262584438018958810 0.00000000000000012840 -0.00264978372358172466 
0.81967581993160942844 0.00000000000000018112 -0.00252867751710289697 
0.82678282888254717165 0.00000000000000023044 -0.00241260963092292937 
0.83392339709951845972 0.00000000000000013350 -0.00230139522244708281 
0.84107310763191223124 0.00000000000000006803 -0.00219485487372683263 
0.84820531503500162795 0.00000000000000005612 -0.00209281450753501588 
0.85529000552603118290 0.00000000000000009439 -0.00199510530009417396 
0.86229293185553235190 0.00000000000000017474 -0.00190156359083531751 
0.86917508273449262113 0.00000000000000007653 -0.00181203078953661562 
0.87589249865828278097 0.00000000000000010034 -0.00172635328118601449 
0.88239641403474899928 0.00000000000000016624 -0.00164438232888315813 
0.88863368568924672175 0.00000000000000015858 -0.00156597397508862791 
0.89454745694080595175 0.00000000000000009651 -0.00149127708075050226 
0.90007800205002475025 0.00000000000000009098 -0.00142097295062886247 
0.90516369600473256529 0.00000000000000013648 -0.00135374971263881863 
0.90974205784824624388 0.00000000000000005229 -0.00128948567947798553 
0.91375082093513015913 0.00000000000000003444 -0.00122806321999015841 
0.91712899243330547883 0.00000000000000006122 -0.00116936866639491717 
0.91981797170273371655 0.00000000000000010331 -0.00111329222108189161 
0.92176306833732368773 0.00000000000000007398 -0.00105972786317668735 
0.92291544934388036747 0.00000000000000016114 -0.00100857325506475471 
0.92323416880463260448 0.00000000000000005782 -0.00095972964905428925 
0.92268800006259998892 0.00000000000000014625 -0.00091310179433995225 
0.92125690342049859627 0.00000000000000004719 -0.00086859784442195047 
0.91893304538412656779 0.00000000000000003465 -0.00082612926512176991 
0.91572134446786390694 0.00000000000000011139 -0.00078561074332332136 
0.91163955898919968313 0.00000000000000017304 -0.00074696009656050055 
0.90671795850978686993 -0.00000000000000001594 -0.00071009818356154329 
0.90099863614543573842 0.00000000000000011458 -0.00067494881584787534 
0.89453452665403931920 0.00000000000000014540 -0.00064058404169776138 
0.88738819721367290239 0.00000000000000014392 -0.00060728180692911358 
0.87963047583638576121 0.00000000000000007780 -0.00057555621410653542 
0.87133897775022028931 0.00000000000000017389 -0.00054533794929914159 
0.86259658383254333991 0.00000000000000011904 -0.00051656043800780125 
0.85348991805042928593 0.00000000000000012904 -0.00048915975449021366 
0.84410786341736276928 0.00000000000000001339 -0.00046307453306971294 
0.83454014861077630005 0.00000000000000001807 -0.00043824588145132673 
0.82487603038946599732 0.00000000000000017495 -0.00041461729605788789 
0.81520309048547712205 0.00000000000000008822 -0.00039213457939356084 
0.80560615983039451926 0.00000000000000010183 -0.00037074575944340049 
0.79616637786471433635 -0.00000000000000001966 -0.00035040101110721370 
0.78696039028414555005 0.00000000000000013818 -0.00033105257966443860 
0.77805968488211840750 0.00000000000000006059 -0.00031265470626287202 
0.76953006211705077266 0.00000000000000015540 -0.00029516355542186056 
0.76143123461646866623 0.00000000000000005495 -0.00027853714453300620 
0.75381654797038488702 -0.00000000000000001764 -0.00026273527534701450 
0.74673281380221956383 0.00000000000000014870 -0.00024771946741993238 
0.74022024517494633411 0.00000000000000007345 -0.00023345289350481279 
0.73431248383253466816 0.00000000000000021481 -0.00021990031685844414 
0.72903670853445512456 0.00000000000000012383 -0.00020702803044087890 
0.72441381376041735773 0.00000000000000013913 -0.00019480379797790132 
0.72045864829447969768 0.00000000000000008620 -0.00018319679685868228 
0.71718030359806628216 0.00000000000000009460 -0.00017217756283544684 
0.71458244241100099536 0.00000000000000012383 -0.00016171793649666770 
0.71266365864407743569 0.00000000000000023161 -0.00015179101147513434 
0.71141786031630915854 0.00000000000000000090 -0.00014237108436239017 
0.71083466801954586778 0.00000000000000016183 -0.00013343360629161527 
0.71089982214140934325 0.00000000000000011825 -0.00012495513615170070 
0.71159559282699602623 0.00000000000000006776 -0.00011691329540191946 
0.71290118739631946898 0.00000000000000006574 -0.00010928672444276238 
0.71479315064675408298 0.00000000000000010066 -0.00010205504051330727 
0.71724575414919611305 0.00000000000000011899 -0.00009519879707380842 
0.72023137128680247976 0.00000000000000020397 -0.00008869944463660268 
0.72372083538157727656 0.00000000000000002487 -0.00008253929300931639 
0.72768377880386980738 0.00000000000000014790 -0.00007670147491222555 
0.73208895146156061084 0.00000000000000016023 -0.00007116991093261380 
0.73690451751900865052 0.00000000000000020471 -0.00006592927577926539 
0.74209832960124033630 0.00000000000000007972 -0.00006096496580066860 
0.74763818009774274387 0.00000000000000002062 -0.00005626306772979116 
0.75349202949435090115 0.00000000000000015824 -0.00005181032862116056 
0.75962821193346496962 0.00000000000000010222 -0.00004759412694047346 
0.76601561843472210089 0.00000000000000018755 -0.00004360244477800337 
0.77262385840308089868 0.00000000000000010517 -0.00003982384114460404 
0.77942340021196487854 0.00000000000000010217 -0.00003624742632117750 
0.78638569177858019810 0.00000000000000008511 -0.00003286283722354022 
0.79348326214969366887 0.00000000000000010400 -0.00002966021375493951 
0.80068980519192844980 0.00000000000000005357 -0.00002663017610834239 
0.80798024573790261371 0.00000000000000006933 -0.00002376380299175696 
0.81533072710410203765 0.00000000000000008875 -0.00002105261073991191 
0.82271818576617694596 0.00000000000000015043 -0.00001848853328876099 
0.83011935067429976076 0.00000000000000007363 -0.00001606390297664746 
0.83750947101455075483 0.00000000000000018210 -0.00001377143214636792 
0.84486106835265628590 0.00000000000000006971 -0.00001160419551934240 
0.85214289608019322397 0.00000000000000011437 -0.00000955561331490769 
0.85931920452862886606 0.00000000000000009915 -0.00000761943508383429 
0.86634935016279679409 0.00000000000000021356 -0.00000578972423684544 
0.87318774622900097171 0.00000000000000003622 -0.00000406084323477184 
0.87978412556583496240 0.00000000000000005095 -0.00000242743942189181 
0.88608407037065284317 0.00000000000000005251 -0.00000088443147421072 
0.89202975569407283452 0.00000000000000018672 -0.00000000000000004326 
0.89756085106983718447 0.00000000000000008903 -0.00000000000000000138 
0.90261552623940111140 0.00000000000000012547 -0.00000000000000010576 
0.90713151106501210830 0.00000000000000003594 -0.00000000000000006781 
0.91104716543056918354 0.00000000000000018326 -0.00000000000000003306 
0.91430252145285795251 0.00000000000000005698 -0.00000000000000010416 
0.91684026711743715765 0.00000000000000001086 -0.00000000000000007610 
0.91860664712428508061 0.00000000000000007808 -0.00000000000000005740 
0.91955226301344072937 0.00000000000000006987 -0.00000000000000006229 
0.91963276037117891448 -0.00000000000000004650 0.00000000000000001456 
0.91880939599607180934 -0.00000000000000005665 -0.00000000000000016028 
0.91704948228893023998 -0.00000000000000000598 0.00000000000000003433 
0.91432670981773744856 0.00000000000000012739 -0.00000000000000009258 
0.91062135202262561862 -0.00000000000000003666 -0.00000000000000007749 
0.90592035840981877115 0.00000000000000008898 -0.00000000000000008280 
0.90021734439211198442 0.00000000000000000943 -0.00000000000000010113 
0.89351248722820009185 0.00000000000000002570 -0.00000000000000007956 
0.88581233835789863207 0.00000000000000004164 0.00000000000000012425 
0.87712956288848964448 0.00000000000000006618 -0.00000000000000005697 
0.86748261712015928282 -0.00000000000000004213 -0.00000000000000003167 
0.85689537486309552694 0.00000000000000005622 -0.00000000000000008609 
0.84539671294787199773 0.00000000000000006858 -0.00000000000000003981 
0.83302006581175258582 0.00000000000000010274 -0.00000000000000001600 
0.81980295839861827556 0.00000000000000004934 0.00000000000000002482 
0.80578652587616517167 0.00000000000000007258 -0.00000000000000004071 
0.79101502788250210862 -0.00000000000000002175 0.00000000000000001839 
0.77553536419215751696 0.00000000000000001658 -0.00000000000000013509 
0.75939659786108204553 0.00000000000000001588 0.00000000000000000069 
0.74264949108981803683 0.00000000000000005317 -0.00000000000000005198 
0.72534605824815023833 0.00000000000000001530 -0.00000000000000010993 
0.70753913974460935776 -0.00000000000000009214 -0.00000000000000002779 
0.68928199970866144142 -0.00000000000000001166 -0.00000000000000002535 
0.67062794978829787240 0.00000000000000009131 -0.00000000000000007549 
0.65163000075498578312 0.00000000000000000437 0.00000000000000000986 
0.63234054305369502558 -0.00000000000000011094 0.00000000002093749713 
0.61281105693869153406 -0.00000000000000009323 0.00000001685637616976 
0.59309185239545902935 0.00000000000000007886 0.00000033634540470061 
0.57323183866405158504 0.00000000000000009790 0.00000233428472429793 
0.55327832284715350308 -0.00000000000000004392 0.00000969893327384943 
0.53327683680441151370 0.00000000000000003362 0.00002972148175436636 
0.51327099129999376181 0.00000000000000011462 0.00007443049110402965 
0.49330235617944057092 -0.00000000000000004167 0.00016144253056438147 
0.47341036520106433150 -0.00000000000000002969 0.00031447024276963720 
0.45363224403282037533 -0.00000000000000001113 0.00056347701317912961 
0.43400295984403547411 0.00000000000000010575 0.00094449930095449127 
0.41455519086909797810 -0.00000000000000000182 0.00149917746657539028 
0.39531931429373490250 0.00000000000000004283 0.00227404675184989143 
0.37632454386093022736 -0.00000000000000003265 0.00331964440246166606 
0.35759576252569819088 0.00000000000000004951 0.00468948869844439294 
0.33915624298251290103 -0.00000000000000003102 0.00643898236037197206 
0.32102735014169792027 -0.00000000000000002029 0.00862428756110626173 
0.30322830492984964579 -0.00000000000000004040 0.01130121344454053899 
0.28577624846603549846 0.00000000000000010604 0.01452415025944750124 
0.26868631380018070942 0.00000000000000007859 0.01834507740721058947 
0.25197170392913770254 -0.00000000000000004073 0.02281266618787180026 
0.23564377488828658347 0.00000000000000010598 0.02797149201411085542 
0.21971212280110741233 0.00000000000000009500 0.03386136547076875475 
0.20418467385477034881 0.00000000000000004237 0.04051678689075528805 
0.18906777625532403264 0.00000000000000004528 0.04796652511420655685 
0.17436629330061206855 0.00000000000000001914 0.05623331778211732024 
0.16008369679185904810 0.00000000000000005291 0.06533368785179405336 
0.14622216008525937281 0.00000000000000004628 0.07527786895847868309 
0.13278265016240628493 -0.00000000000000001010 0.08606983072599845574 
0.11976501817254998905 0.00000000000000004474 0.09770739408601464282 
0.10716808797019145016 0.00000000000000012118 0.11018242603633125742 
0.09498974223813368145 0.00000000000000001268 0.12348110299144739177 
0.08322700584869797968 -0.00000000000000009822 0.13758423189403237719 
0.07187612617424764261 -0.00000000000000005239 0.15246761850960893758 
0.06093265011241457557 0.00000000000000010616 0.16810247276875031619 
0.05039149764151292649 0.00000000000000004568 0.18445584160714373345 
0.04024703176758745449 -0.00000000000000001034 0.20149106044492773315 
0.03049312476647126138 0.00000000000000012343 0.21916821520892940112 
0.02112322066223386655 0.00000000000000014727 0.23744460760599470084 
0.01213039391762401296 -0.00000000000000008702 0.25627521717828799508 
0.00350740434269306055 0.00000000000000007437 0.27561315449229800700 
-0.00475325174507915723 0.00000000000000000930 0.29541010061620176508 
-0.01265929405200079232 0.00000000000000005622 0.31561672881251029432 
-0.02021861445281354294 -0.00000000000000006408 0.33618310510488619292 
-0.02743923665302645115 0.00000000000000007232 0.35705906506258566768 
-0.03432927925805797503 0.00000000000000006347 0.37819456477836560504 
-0.04089692212571069407 0.00000000000000002228 0.39954000459294564118 
-0.04715037586822515281 0.00000000000000005434 0.42104652463993474942 
-0.05309785436203436071 0.00000000000000005114 0.44266627174946826528 
-0.05874755011717432140 -0.00000000000000010245 0.46435263765772011313 
-0.06410761235393648561 0.00000000000000001060 0.48606046882476394710 
-0.06918612763158220325 -0.00000000000000005149 0.50774624846751192919 
-0.07399110287265070474 0.00000000000000000116 0.52936825167055434616 
-0.07853045062638479290 0.00000000000000012578 0.55088667464901353021 
-0.08281197641596720060 0.00000000000000006035 0.57226373940743169300 
-0.08684336801642804360 0.00000000000000005449 0.59346377517088744202 
-0.09063218651315750607 0.00000000000000001086 0.61445327806254046443 
-0.09418585899478346124 -0.00000000000000000786 0.63520095056923564503 
-0.09751167273865954388 0.00000000000000002074 0.65567772237710231220 
-0.10061677075224237377 -0.00000000000000001034 0.67585675417558976896 
-0.10350814853911777247 -0.00000000000000001955 0.69571342602358032803 
-0.10619265196427733755 0.00000000000000013781 0.71522530464108113879 
-0.10867697609937129744 0.00000000000000003987 0.73437193447715709560 
-0.11096766493498638750 -0.00000000000000003977 0.75313408542068682738 
-0.11307111185345614102 0.00000000000000006911 0.77149252334989060209 
-0.11499356076225240864 -0.00000000000000003721 0.78942664555694963546 
-0.11674110779455086628 0.00000000000000002285 0.80691322932775888521 
-0.11831970349009710008 -0.00000000000000008964 0.82392543950143515286 
-0.11973515537594159319 -0.00000000000000013973 0.84043216684624810764 
-0.12099313087295181235 0.00000000000000010379 0.85639771728100810844 
-0.12209916046020655167 0.00000000000000009500 0.87178183714112778002 
-0.12305864103538734222 -0.00000000000000000079 0.88654003768315814416 
-0.12387683941510768681 -0.00000000000000000989 0.90062416954581347994 
-0.12455975055350379521 -0.00000000000000007077 0.91398319234465696947 
-0.12511204342961351754 0.00000000000000005415 0.92656408394559319763 
-0.12553803434203761324 -0.00000000000000000402 0.93831283667259868242 
-0.12584251000669963161 0.00000000000000001533 0.94917549256094113641 
-0.12603014486560951135 0.00000000000000003051 0.95909917588833515367 
-0.12610550455624855437 0.00000000000000003044 0.96803310458395697147 
-0.12607304927086374069 -0.00000000000000000113 0.97592977097210886761 
-0.12593713698730107931 -0.00000000000000008081 0.98274660317283657474 
-0.12570202655650358770 -0.00000000000000003995 0.98844792439341999657 
-0.12537188063503748592 -0.00000000000000006806 0.99300686624027012517 
-0.12495076845397395937 0.00000000000000001326 0.99640700661624903578 
-0.12444266841817001878 -0.00000000000000000707 0.99864360310041599966 
-0.12385147053244809079 0.00000000000000011661 0.99972436511989370977 
-0.12318097865340198183 0.00000000000000004893 0.99966975893243759099 
-0.12243491256753294416 -0.00000000000000006438 0.99851287346865114092 
-0.12161690989819506914 -0.00000000000000010444 0.99629889646096148059 
-0.12073052784537116611 -0.00000000000000001759 0.99308426221893597585 
-0.11977839013487263931 0.00000000000000010466 0.98893553743305262493 
-0.11876424618786945997 -0.00000000000000001161 0.98392811149101488954 
-0.11769200273978794313 -0.00000000000000003868 0.97814475451806692785 
-0.11656490548596261381 0.00000000000000011455 0.97167410089350669811 
-0.11538612632456894669 0.00000000000000003573 0.96460910925007692374 
-0.11415876423049235722 -0.00000000000000014416 0.95704554260201935012 
-0.11288584601852731659 -0.00000000000000008877 0.94908050476007599361 
-0.11157032700597864505 -0.00000000000000001951 0.94081106192335939298 
-0.11021509158488063118 0.00000000000000008534 0.93233297152291416676 
-0.10882295371406777718 -0.00000000000000005683 0.92373953417824461454 
-0.10739665734128076013 -0.00000000000000002398 0.91512057909911992404 
-0.10593887676533672582 0.00000000000000006129 0.90656158845484569042 
-0.10445221694817841129 0.00000000000000007621 0.89814296214069777591 
-0.10293921378632867047 -0.00000000000000014773 0.88993942096988121193 
-0.10140233435093977399 -0.00000000000000006287 0.88201954356577072502 
-0.09984397710523364167 -0.00000000000000004755 0.87444543006908825866 
-0.09826647210769839935 0.00000000000000009057 0.86727248414790769626 
-0.09667208120894818513 -0.00000000000000009496 0.86054930364250603603 
-0.09506299824965476486 0.00000000000000002261 0.85431766942988029978 
-0.09344134926645114581 0.00000000000000007696 0.84861262169430307090 
-0.09180919271218149214 0.00000000000000004975 0.84346261268411726331 
-0.09016851969633205011 -0.00000000000000001876 0.83888972516894300124 
-0.08852125425093898548 0.00000000000000000481 0.83490994613828828363 
-0.08686925362672480444 -0.00000000000000009689 0.83153348575986840707 
-0.08521430862368006842 -0.00000000000000007648 0.82876513220645320335 
-0.08355814395977215203 0.00000000000000002687 0.82660463363131142511 
-0.08190241868094802480 -0.00000000000000003037 0.82504709929643860189 
-0.08024872661508462846 0.00000000000000007847 0.82408341261119288923 
-0.07859859687205751622 0.00000000000000006899 0.82370064960208599913 
-0.07695349439161652816 0.00000000000000006734 0.82388249709121197384 
-0.07531482054031386764 0.00000000000000000398 0.82460966559827364453 
-0.07368391375829191903 -0.00000000000000003319 0.82586029268929905811 
-0.07206205025633187489 0.00000000000000005408 0.82761033316630849832 
-0.07045044476318075566 -0.00000000000000007298 0.82983393312090825145 
-0.06885025132281337445 -0.00000000000000009008 0.83250378545732584001 
-0.06726256414094694547 0.00000000000000006253 0.83559146502464132222 
-0.06568841847982526128 0.00000000000000002172 0.83906774198295785983 
-0.06412879159999382295 -0.00000000000000015577 0.84290287246416129019 
-0.06258460374753539723 -0.00000000000000007050 0.84706686597569436081 
-0.06105671918500024664 -0.00000000000000010534 0.85152972933706394532 
-0.05954594726405438437 -0.00000000000000005044 0.85626168723568418795 
-0.05805304353768387521 -0.00000000000000003168 0.86123337974369895687 
-0.05657871090963487171 -0.00000000000000010087 0.86641603735328942548 
-0.05512360081862680700 0.00000000000000008610 0.87178163426762456112 
-0.05368831445476351244 0.00000000000000002288 0.87730302083099087618 
-0.05227340400546513083 -0.00000000000000008610 0.88295403609775591214 
-0.05087937392817969834 -0.00000000000000010534 0.88870960162862777665 
-0.04950668224706556569 -0.00000000000000009496 0.89454579766639241711 
-0.04815574187080695623 0.00000000000000002728 0.90043991567768877360 
-0.04682692192870082509 -0.00000000000000007752 0.90637033179497583646 
-0.04552054912215240667 -0.00000000000000003161 0.91231583376498737170 
-0.04423690908872004307 -0.00000000000000004645 0.91825446739140026420 
-0.04297624777588836958 -0.00000000000000011372 0.92416224434768357021 
-0.04173877282177247683 -0.00000000000000009331 0.93001195952363102659 
-0.04052465494001482316 -0.00000000000000004776 0.93577226365344656767 
-0.03933402930619282062 -0.00000000000000004130 0.94140706302125676253 
-0.03816699694312829932 -0.00000000000000005648 0.94687526626451190559 
-0.03702362610256330899 -0.00000000000000012871 0.95213086349459297164 
-0.03590395364076062745 -0.00000000000000012018 0.95712330097383035987 
-0.03480798638567315917 -0.00000000000000005765 0.96179810213446392808 
-0.03373627549699176331 -0.00000000000000003202 0.96609768020333153249 
-0.03268900223464699800 -0.00000000000000014001 0.96996228708035969746 
-0.03166521133856592396 -0.00000000000000003450 0.97333104584289154015 
-0.03066480706991205410 -0.00000000000000000629 0.97614301911497547426 
-0.02968767008377760572 0.00000000000000001361 0.97833827431195674595 
-0.02873365871254344311 -0.00000000000000004776 0.97985901402897213064 
-0.02780261022687064223 -0.00000000000000013434 0.98065111102289093115 
-0.02689434207287118989 -0.00000000000000001659 0.98066607600171684656 
-0.02600865308413267962 0.00000000000000008067 0.97986311041918483511 
-0.02514532466737729247 -0.00000000000000016210 0.97821096329528256508 
-0.02430412196065854374 -0.00000000000000001282 0.97568942417357118480 
-0.02348479496310668449 -0.00000000000000017471 0.97229036750578035075 
-0.02268707963534883840 -0.00000000000000005346 0.96801832287533029486 
-0.02191069896983732432 -0.00000000000000014918 0.96289058600652455144 
-0.02115536403042639693 -0.00000000000000008801 0.95693691185163198831 
-0.02042077496063991054 0.00000000000000004056 0.95019884671559817768 
-0.01970662196017743117 -0.00000000000000000112 0.94272876415457396160 
-0.01901145317890434727 -0.00000000000000018133 0.93458867146486557242 
-0.01833586256097375494 -0.00000000000000004066 0.92584885167719999099 
-0.01767980320919316367 -0.00000000000000016816 0.91658640141174607674 
-0.01704293063314684872 -0.00000000000000008154 0.90688371874294904096 
-0.01642489500307822009 -0.00000000000000006483 0.89682698812948802303 
-0.01582534192124623873 -0.00000000000000009098 0.88650470204335674040 
-0.01524391316127286788 0.00000000000000003701 0.87600625158519462854 
-0.01468024737567709403 -0.00000000000000004494 0.86542061137903947277 
-0.01413398077184536798 -0.00000000000000011177 0.85483513758142370964 
-0.01360474775675401572 -0.00000000000000008856 0.84433449202681931656 
-0.01309218155081963084 -0.00000000000000013637 0.83399970041828808132 
-0.01259591477129773547 -0.00000000000000004673 0.82390734807256382766 
-0.01211557998570324604 -0.00000000000000016824 0.81412891302718159992 
-0.01165081023577333418 -0.00000000000000014788 0.80473023327779868996 
-0.01120123953252593826 -0.00000000000000004278 0.79577110248747373600 
-0.01076650332301263939 0.00000000000000004710 0.78730498663926418157 
-0.01034623892938837421 -0.00000000000000014699 0.77937885272824680705 
-0.00994008596096169691 -0.00000000000000007032 0.77203309964720423508 
-0.00954768669989914873 -0.00000000000000015860 0.76530158085143185076 
-0.00916868646129632807 -0.00000000000000007095 0.75921170813495786334 
-0.00880273392833549884 -0.00000000000000017442 0.75378462585942818119 
-0.00844948146327062152 -0.00000000000000017847 0.74903544519900799870 
-0.00810858539499338497 0.00000000000000003325 0.74497352835580610275 
-0.00777970628394433240 -0.00000000000000002901 0.74160281322131815784 
-0.00746250916513883835 -0.00000000000000013017 0.73892216957598044758 
-0.00715666377008493827 -0.00000000000000007753 0.73692577860140329182 
-0.00686184472837266576 -0.00000000000000012551 0.73560352820300589638 
-0.00657773174971342574 0.00000000000000000991 0.73494141738336460357 
-0.00630400978720722580 -0.00000000000000010265 0.73492196365106055023 
-0.00604036918261304564 -0.00000000000000016285 0.73552460818198939219 
-0.00578650579438926699 -0.00000000000000000349 0.73672611415865396634 
-0.00554212110926810293 0.00000000000000008426 0.73850095438923357705 
-0.00530692233811515257 -0.00000000000000013583 0.74082168494574662798 
-0.00508062249681796949 0.00000000000000000531 0.74365930215487574539 
-0.00486294047293416801 -0.00000000000000015547 0.74698358082311033801 
-0.00465360107881960128 -0.00000000000000005680 0.75076339207827336164 
-0.00445233509193866672 -0.00000000000000005515 0.75496699966183100639 
-0.00425887928305081469 -0.00000000000000006897 0.75956233391117422560 
-0.00407297643294567482 -0.00000000000000005468 0.76451724302955548218 
-0.00389437533838598096 -0.00000000000000014900 0.76979972155540932199 
-0.00372283080789998725 -0.00000000000000014071 0.77537811621459062916 
-0.00355810364804964472 -0.00000000000000015349 0.78122130957124058526 
-0.00339996064077588986 -0.00000000000000020266 0.78729888208822818019 
-0.00324817451241585491 -0.00000000000000009739 0.79358125336934692839 
-0.00310252389495373941 -0.00000000000000014429 0.80003980348554593061 
-0.00296279328006445906 -0.00000000000000019028 0.80664697538936369625 
-0.00282877296647115030 -0.00000000000000008430 0.81337635949826792015 
-0.00270025900113952336 0.00000000000000000858 0.82020276078569975819 
-0.00257705311479336030 -0.00000000000000006208 0.82710218728400375365 
-0.00245896265223124414 -0.00000000000000001278 0.83405142577411006677 
-0.00234580049789580650 -0.00000000000000013618 0.84102704213460810490 
-0.00223738499713247926 0.00000000000000000314 0.84800411014705656676 
-0.00213353987355635643 -0.00000000000000006245 0.85495496468555665093 
-0.00203409414292419046 -0.00000000000000012168 0.86184816220323068325 
-0.00193888202389112482 -0.00000000000000001055 0.86864774687428125688 
-0.00184774284601872175 0.00000000000000001044 0.87531286079731729366 
-0.00176052095537283554 -0.00000000000000011328 0.88179769562992871279 
-0.00167706561804411972 -0.00000000000000007214 0.88805175635809729950 
-0.00159723092189889603 -0.00000000000000011866 0.89402039198950777887 
-0.00152087567685390656 -0.00000000000000012059 0.89964553993990836744 
-0.00144871794273651947 -0.00000000000000004482 0.90486662851715327083 
-0.00138027718061796444 -0.00000000000000016692 0.90962158346016386279 
-0.00131484380633633126 0.00000000000000005520 0.91384788862490506922 
-0.00125229857737792086 0.00000000000000002434 0.91748365663640740753 
-0.00119252625177682699 -0.00000000000000011803 0.92046868853843988312 
-0.00113541549505886898 0.00000000000000000486 0.92274571034516295054 
-0.00108085878687376132 -0.00000000000000010148 0.92426209539775117108 
-0.00102875232751540495 -0.00000000000000007378 0.92497188754980497194 
-0.00097899594450717438 -0.00000000000000006124 0.92483777935493793887 
-0.00093149299942787967 0.00000000000000001910 0.92383281414067031090 
-0.00088615029513024310 -0.00000000000000000620 0.92194168146421229260 
-0.00084287798350156742 -0.00000000000000000029 0.91916154812978823063 
-0.00080158947390018484 -0.00000000000000001070 0.91550241791115605228 
-0.00076220134239068167 -0.00000000000000012911 0.91098704738674751713 
-0.00072463324189261480 -0.00000000000000017864 0.90565046688179495771 
-0.00068880781334725266 -0.00000000000000012697 0.89953916762702501586 
-0.00065436245874700687 -0.00000000000000008289 0.89271002142275501789 
-0.00062040952807322376 -0.00000000000000000016 0.88522899933072807244 
-0.00058806175264367023 -0.00000000000000000490 0.87716975275118747035 
-0.00055724869692602144 0.00000000000000011745 0.86861211486936062975 
-0.00052790270163960418 -0.00000000000000010824 0.85964057377618130484 
-0.00049995879229408212 -0.00000000000000000426 0.85034276125575114502 
-0.00047335458970106792 -0.00000000000000009888 0.84080799377775883308 
-0.00044803022248656805 -0.00000000000000007710 0.83112589498465183624 
-0.00042392824161572126 -0.00000000000000002139 0.82138512215698222807 
-0.00040099353694691953 0.00000000000000000630 0.81167221292617319772 
-0.00037917325581398004 0.00000000000000000314 0.80207056296672640805 
-0.00035841672364913196 0.00000000000000003007 0.79265954057543164257 
-0.00033867536663439963 -0.00000000000000012537 0.78351373993358341963 
-0.00031990263638233165 -0.00000000000000006816 0.77470237142434406064 
-0.00030205393663499313 -0.00000000000000011096 0.76628878459876448304 
-0.00028508655196752262 -0.00000000000000008398 0.75833011719731924227 
-0.00026895957848268405 -0.00000000000000006397 0.75087706197969605881 
-0.00025363385647585705 -0.00000000000000007771 0.74397374193215382032 
-0.00023907190505115388 0.00000000000000006710 0.73765768364739237040 
-0.00022523785866558125 0.00000000000000008591 0.73195987824697916757 
-0.00021209740557353248 -0.00000000000000009905 0.72690491908485022066 
-0.00019961772814923985 -0.00000000000000011813 0.72251120558033310459 
-0.00018776744505253211 -0.00000000000000006333 0.71879120283340569575 
-0.00017651655521263025 0.00000000000000002218 0.71575174713128830728 
-0.00016583638359449549 -0.00000000000000003372 0.71339438802672605622 
-0.00015569952871836960 0.00000000000000002131 0.71171575832202682577 
-0.00014607981189508759 0.00000000000000001329 0.71070796400119728986 
-0.00013695222814595219 0.00000000000000003363 0.71035898689179566290 
-0.00012829289876878743 0.00000000000000002343 0.71065309358869821477 
-0.00012007902551629974 -0.00000000000000005391 0.71157124491771717167 
-0.00011228884634939085 -0.00000000000000009133 0.71309150094495865613 
-0.00010490159272855002 -0.00000000000000011517 0.71518941723779649866 
-0.00009789744840557728 -0.00000000000000006683 0.71783842874764225428 
-0.00009125750968159441 0.00000000000000002745 0.72101021830771694354 
-0.00008496374708778394 -0.00000000000000003899 0.72467506731699293798 
-0.00007899896845898421 -0.00000000000000006632 0.72880218671207752656 
-0.00007334678335719331 -0.00000000000000005229 0.73336002681109513368 
-0.00006799156881002228 0.00000000000000007375 0.73831656504760012627 
-0.00006291843632902152 0.00000000000000001000 0.74363957099910826809 
-0.00005811320016685733 0.00000000000000000656 0.74929684845553312655 
-0.00005356234678190590 -0.00000000000000007629 0.75525645456964618507 
-0.00004925300547267952 -0.00000000000000000943 0.76148689638713518146 
-0.00004517292014321215 -0.00000000000000003924 0.76795730527052252778 
-0.00004131042217327024 0.00000000000000003214 0.77463758991200426518 
-0.00003765440434735412 -0.00000000000000014200 0.78149856877809742439 
-0.00003419429581975287 -0.00000000000000003034 0.78851208294676067290 
-0.00003092003807504483 -0.00000000000000013672 0.79565109038830894583 
-0.00002782206185439583 0.00000000000000000327 0.80288974280715685872 
-0.00002489126501490801 -0.00000000000000002852 0.81020343899787639064 
-0.00002211899129165825 -0.00000000000000009189 0.81756869921882258101 
-0.00001949700992959273 0.00000000000000002097 0.82496249316089886872 
-0.00001701749615810442 0.00000000000000001678 0.83236108747268278130 
-0.00001467301247553272 -0.00000000000000009213 0.83973875469356218382 
-0.00001245649071918961 0.00000000000000002999 0.84706659173623910508 
-0.00001036121488827577 -0.00000000000000009065 0.85431159364645048448 
-0.00000838080469604479 -0.00000000000000001913 0.86143605441781478937 
-0.00000650919982271687 0.00000000000000000345 0.86839731486630578061 
-0.00000474064484482807 -0.00000000000000004179 0.87514784276961687937 
-0.00000306967481305795 -0.00000000000000000318 0.88163560849840549860 
-0.00000149110145894306 0.00000000000000004149 0.88780470691445789733 
0.00000000000000001586 -0.00000000000000013045 0.89359617079073094814 
0.00000000000000014602 -0.00000000000000005731 0.89894892039403961892 
0.00000000000000005417 -0.00000000000000014475 0.90380079659657908131 
0.00000000000000010767 -0.00000000000000010431 0.90808962975089957403 
0.00000000000000009009 -0.00000000000000008692 0.91175430267348889224 
0.00000000000000004775 0.00000000000000000361 0.91473577276884920906 
0.00000000000000017007 -0.00000000000000000196 0.91697802510834192091 
0.00000000000000009213 0.00000000000000007514 0.91842893482046228382 
0.00000000000000014314 -0.00000000000000013952 0.91904102322819125614 
0.00000000000000009505 -0.00000000000000002587 0.91877209764700329409 
0.00000000000000008912 -0.00000000000000006449 0.91758576956087811727 
0.00000000000000002876 0.00000000000000005830 0.91545184999793483005 
0.00000000000000009334 -0.00000000000000004239 0.91234662434101188033 
0.00000000000000000136 -0.00000000000000000460 0.90825301156447424411 
0.00000000000000013672 0.00000000000000003288 0.90316061503526257059 
0.00000000000000005996 -0.00000000000000001481 0.89706567361172917519 
0.00000000000000010420 -0.00000000000000011712 0.88997092288084211908 
0.00000000000000009578 -0.00000000000000003645 0.88188537705694280966 
0.00000000000000013842 -0.00000000000000009290 0.87282404238611754899 
0.00000000000000013380 0.00000000000000003559 0.86280757291909027096 
0.00000000000000013384 -0.00000000000000002123 0.85186187928791723412 
-0.00000000000000003114 0.00000000000000006494 0.84001770069819803322 
0.00000000000000016120 -0.00000000000000008617 0.82731014977440542335 
0.00000000000000004966 0.00000000000000001759 0.81377823921123282336 
0.00000000000000012917 -0.00000000000000002680 0.79946439842330563330 
0.00000000000000008158 0.00000000000000000124 0.78441398757888647353 
0.00000000000000008236 -0.00000000000000007118 0.76867481557531680547 
0.00000000000000000062 0.00000000000000001684 0.75229666768555902845 
0.00000000000000010978 -0.00000000000000012375 0.73533084779303903300 
0.00000000000000006753 0.00000000000000002288 0.71782973934931770810 
0.00000000000000012570 0.00000000000000003999 0.69984638844607460761 
0.00000000000000004040 0.00000000000000002556 0.68143411169690071283 
0.00000000000000010845 0.00000000000000000075 0.66264613098068203545 
0.00000000000000002133 -0.00000000000000001725 0.64353523651002708661 
0.00000000000000009740 -0.00000000000000016574 0.62415347915681806956 
0.00000000000000006101 0.00000000079581133463 0.60455189249275287366 
0.00000000000000009008 0.00000006783503700800 0.58478024458473398806 
0.00000000000000001338 0.00000079354332808648 0.56488681922141881220 
0.00000000000000010474 0.00000432183450720634 0.54491822593570438116 
-0.00000000000000005103 0.00001563218221834590 0.52491923792543704330 
0.00000000000000012267 0.00004378847683637436 0.50493265675795451219 
0.00000000000000008250 0.00010297087485803228 0.48499920256962641973 
0.00000000000000007478 0.00021319336253664930 0.46515742833579709625 
-0.00000000000000001338 0.00040066966310973773 0.44544365668574070760 
0.00000000000000008837 0.00069783110257253726 0.42589193766782862394 
0.00000000000000004558 0.00114302666181765006 0.40653402582855319158 
0.00000000000000004660 0.00177995130151243773 0.38739937495196535844 
0.00000000000000002777 0.00265685660858698677 0.36851600343902779500 
0.00000000000000013955 0.00382560011958895524 0.34990846169562994650 
0.00000000000000009409 0.00534058806548246175 0.33159883971867298857 
0.00000000000000008242 0.00725766209009627919 0.31360763577273992331 
-0.00000000000000006684 0.00963297473206573864 0.29595322911845106661 
0.00000000000000000766 0.01252189188151471219 0.27865194736036874579 
-0.00000000000000003875 0.01597795357764911217 0.26171814083365863013 
0.00000000000000003954 0.02005191779135366212 0.24516426277761688146 
-0.00000000000000004677 0.02479090550287829306 0.22900095412757570656 
-0.00000000000000001028 0.03023765960801390665 0.21323713184183748504 
-0.00000000000000001487 0.03642992506360391569 0.19788007976598134818 
-0.00000000000000002183 0.04339995325751116323 0.18293554112212612184 
-0.00000000000000012507 0.05117412986270199887 0.16840781179467259610 
0.00000000000000002771 0.05977272238549971584 0.15429983366595695360 
-0.00000000000000002407 0.06920974120124913365 0.14061328733454456219 
0.00000000000000010197 0.07949290603165082292 0.12734868362509363382 
-0.00000000000000000208 0.09062370849552808805 0.11450545337144961422 
0.00000000000000005416 0.10259756049479863693 0.10208203502361234971 
-0.00000000000000009636 0.11540401771638070239 0.09007595969423325133 
-0.00000000000000000625 0.12902706737744396026 0.07848393332123450306 
-0.00000000000000003171 0.14344546945846095576 0.06730191567989977919 
-0.00000000000000000277 0.15863314100314121480 0.05652519603037497314 
-0.00000000000000000563 0.17455957356899803878 0.04614846523494384872 
0.00000000000000002951 0.19119027454473022654 0.03616588422377782497 
-0.00000000000000000573 0.20848722377389589111 0.02657114872820282026 
0.00000000000000006260 0.22640933770670593206 0.01735755023700528282 
0.00000000000000003957 0.24491293411623799026 0.00851803316403573242 
-0.00000000000000004795 0.26395219123949198448 0.00004524824456142177 
-0.00000000000000014633 0.28347959601913252925 -0.00806839779639691862 
-0.00000000000000003267 0.30344637691375203614 -0.01583069623792647887 
-0.00000000000000007938 0.32380291750166201314 -0.02324959393390117410 
-0.00000000000000000705 0.34449914781692181354 -0.03033315435836802382 
-0.00000000000000005325 0.36548491102048513701 -0.03708952200943808897 
-0.00000000000000002879 0.38671030361992214663 -0.04352689004382682275 
-0.00000000000000010802 0.40812598800593841153 -0.04965347100479787501 
-0.00000000000000004178 0.42968347657206829027 -0.05547747049894734273 
-0.00000000000000005682 0.45133538712593274100 -0.06100706367183454659 
0.00000000000000004800 0.47303566968763877121 -0.06625037432875953425 
-0.00000000000000004144 0.49473980510548093426 -0.07121545654483242560 
0.00000000000000011642 0.51640497620370007237 -0.07591027860772379954 
-0.00000000000000011555 0.53799021241483457878 -0.08034270913696026084 
0.00000000000000012402 0.55945650904349397692 -0.08452050522521845077 
-0.00000000000000005373 0.58076692246278360798 -0.08845130244961807442 
-0.00000000000000003172 0.60188664266266178604 -0.09214260660439599349 
-0.00000000000000000423 0.62278304465488687480 -0.09560178701045049521 
-0.00000000000000005755 0.64342572029536282407 -0.09883607126196604364 
-0.00000000000000001349 0.66378649211510354355 -0.10185254127554574377 
0.00000000000000002534 0.68383941075889942418 -0.10465813051291379676 
-0.00000000000000007222 0.70356073744724156871 -0.10725962225422477903 
-0.00000000000000004253 0.72292887894014956629 -0.10966364880521453640 
0.00000000000000001739 0.74192399461731739496 -0.11187669152782503401 
0.00000000000000000563 0.76052701484829265954 -0.11390508159042606051 
-0.00000000000000005455 0.77871831980031591680 -0.11575500134030876354 
0.00000000000000000169 0.79647639678413251207 -0.11743248620767066104 
0.00000000000000004269 0.81377667963578004251 -0.11894342705681559824 
0.00000000000000010387 0.83059068331900109960 -0.12029357290669064062 
-0.00000000000000001869 0.84688548251756712304 -0.12148853394917979998 
0.00000000000000012599 0.86262353853116169322 -0.12253378479968538017 
0.00000000000000001274 0.87776284953484828844 -0.12343466792048009284 
-0.00000000000000007926 0.89225738142150079479 -0.12419639716304135824 
-0.00000000000000010062 0.90605772702162257204 -0.12482463438464518057 
-0.00000000000000000693 0.91911193813281888421 -0.12532457751394213141 
-0.00000000000000005520 0.93136647566155195133 -0.12570019623234884865 
0.00000000000000010439 0.94276722687384229005 -0.12595623029017205541 
-0.00000000000000009681 0.95326054419892880532 -0.12609730860048334877 
-0.00000000000000001740 0.96279426722583960618 -0.12612795266710599695 
-0.00000000000000008540 0.97131875776779330600 -0.12605257989464382917 
-0.00000000000000000001 0.97878825772935995619 -0.12587550676361508595 
-0.00000000000000002764 0.98516271418961898210 -0.12560095185715330901 
0.00000000000000004142 0.99040975562746491612 -0.12523303872885543919 
-0.00000000000000003117 0.99450651627458208637 -0.12477579860423239355 
0.00000000000000013036 0.99744112309037102904 -0.12423317291081549529 
-0.00000000000000000569 0.99921374819468078421 -0.12360901563434946449 
0.00000000000000001948 0.99983719264993065057 -0.12290709550061604260 
-0.00000000000000000347 0.99933701097901184163 -0.12213109798433577358 
0.00000000000000001083 0.99775121434123359432 -0.12128462714827217828 
-0.00000000000000000421 0.99512960754432544519 -0.12037120731712784572 
-0.00000000000000000282 0.99153282396782860264 -0.11939342996331517299 
-0.00000000000000003603 0.98703112531573733435 -0.11835501281592250566 
0.00000000000000011502 0.98170303170465433862 -0.11725983142226192868 
-0.00000000000000005066 0.97563384332142444322 -0.11611110073966465772 
0.00000000000000012221 0.96891410881643080799 -0.11491196232827360912 
0.00000000000000001529 0.96163808853772647645 -0.11366548517865801560 
0.00000000000000005868 0.95390225324978195065 -0.11237466643275274836 
0.00000000000000007797 0.94580385154618917820 -0.11104243200827308702 
0.00000000000000002399 0.93743957205581529557 -0.10967163713683396320 
0.00000000000000002277 0.92890431995371880447 -0.10826506682600876841 
0.00000000000000007985 0.92029012134150411928 -0.10682543625545173893 
-0.00000000000000001458 0.91168516381852038322 -0.10535539111704547710 
0.00000000000000000479 0.90317297704398435965 -0.10385750790877483485 
0.00000000000000003140 0.89483175327838926361 -0.10233429419173159514 
-0.00000000000000005869 0.88673380475623475583 -0.10078818881928570950 
-0.00000000000000001974 0.87894515223286495686 -0.09922156214705400712 
0.00000000000000001954 0.87152523710882767727 -0.09763671623185295190 
-0.00000000000000005489 0.86452674810431806574 -0.09603588502734680676 
0.00000000000000003121 0.85799555247121428447 -0.09442123458359860666 
-0.00000000000000000289 0.85197072112955807288 -0.09279486325721832130 
0.00000000000000007000 0.84648463684032571042 -0.09115880193826593481 
-0.00000000000000004121 0.84156317452222606512 -0.08951501429953077904 
-0.00000000000000001473 0.83722594303676722838 -0.08786539707326522508 
-0.00000000000000004963 0.83348657815765136991 -0.08621178035991187982 
0.00000000000000008695 0.83035307696734195204 -0.08455592797282283912 
-0.00000000000000003388 0.82782816455010599377 -0.08289953782245060299 
0.00000000000000000294 0.82590968454630320217 -0.08124424234296651059 
-0.00000000000000003049 0.82459100587115652381 -0.07959160896376819838 
0.00000000000000000408 0.82386143866068661801 -0.07794314062784951647 
-0.00000000000000003503 0.82370665326981118426 -0.07630027635854574886 
-0.00000000000000003018 0.82410909689800959654 -0.07466439187571691227 
-0.00000000000000001397 0.82504840314477512209 -0.07303680026201554709 
-0.00000000000000002524 0.82650179049119210095 -0.07141875267948084860 
-0.00000000000000003729 0.82844444635873193405 -0.06981143913633140741 
0.00000000000000004933 0.83084989400694431172 -0.06821598930347338996 
-0.00000000000000006863 0.83369034009513842687 -0.06663347337991944175 
0.00000000000000005342 0.83693700124771497340 -0.06506490300601158738 
0.00000000000000010297 0.84056040842811730052 -0.06351123222306893912 
0.00000000000000004127 0.84453068834285072164 -0.06197335847782993457 
-0.00000000000000000733 0.84881782146599149552 -0.06045212366983778590 
0.00000000000000010907 0.85339187659784276896 -0.05894831523971245935 
0.00000000000000002694 0.85822322215123902911 -0.05746266729608503349 
0.00000000000000008004 0.86328271459801986243 -0.05599586177881038518 
-0.00000000000000003748 0.86854186470922845054 -0.05454852965595037573 
0.00000000000000013231 0.87397298238855702923 -0.05312125215190690447 
0.00000000000000006218 0.87954930103250228424 -0.05171456200400161712 
0.00000000000000002259 0.88524508245550692642 -0.05032894474473033342 
-0.00000000000000001070 0.89103570349708405285 -0.04896484000686799481 
0.00000000000000012476 0.89689772531130151911 -0.04762264284857784663 
0.00000000000000007481 0.90280891246501560055 -0.04630270509565783538 
0.00000000000000005463 0.90874792116573999134 -0.04500533669806171949 
0.00000000000000001033 0.91469339555391415697 -0.04373080709785001630 
0.00000000000000003922 0.92062272101861675200 -0.04247934660575498206 
0.00000000000000001377 0.92651075249469705408 -0.04125114778358709294 
0.00000000000000009788 0.93232872113916964718 -0.04004636682976433354 
0.00000000000000002253 0.93804343250961952361 -0.03886512496530990929 
0.00000000000000008000 0.94361680498642186432 -0.03770750981773791227 
0.00000000000000001006 0.94900575275575238532 -0.03657357680032899405 
0.00000000000000009014 0.95416238844401302099 -0.03546335048438511300 
0.00000000000000002558 0.95903450267769785320 -0.03437682596215212161 
0.00000000000000003474 0.96356626843859782827 -0.03331454320175367828 
0.00000000000000006570 0.96769911474010805730 -0.03227667280976394965 
0.00000000000000007345 0.97137271503593858313 -0.03126224940425132576 
-0.00000000000000003650 0.97452603947930893646 -0.03027116764857966033 
0.00000000000000007215 0.97709842560900617148 -0.02930329911597252118 
0.00000000000000011268 0.97903063565535142221 -0.02835849356410651695 
0.00000000000000000591 0.98026602490776504339 -0.02743658018674225915 
0.00000000000000000499 0.98075216423920863473 -0.02653736884098958568 
0.00000000000000000184 0.98044283287170364005 -0.02566065124892498786 
-0.00000000000000000357 0.97930002740967003749 -0.02480620217239245390 
0.00000000000000008404 0.97729573206396314067 -0.02397378055993016829 
0.00000000000000011168 0.97441330189126362793 -0.02316313066488608768 
0.00000000000000009717 0.97064838860548618982 -0.02237398313388619733 
0.00000000000000004619 0.96600939338822688907 -0.02160605606493652686 
0.00000000000000015885 0.96051746837754803376 -0.02085905603453637458 
0.00000000000000006716 0.95420611235595043098 -0.02013267909329157293 
-0.00000000000000000920 0.94712041994520157484 -0.01942632359035990561 
-0.00000000000000003103 0.93931605000676066108 -0.01873885137836512130 
0.00000000000000003096 0.93085798003231379205 -0.01807111423097652880 
-0.00000000000000006121 0.92181911071806776903 -0.01742277124499473639 
-0.00000000000000003645 0.91227877990421557541 -0.01679347569965090187 
-0.00000000000000005380 0.90232123858235757652 -0.01618287584722797462 
0.00000000000000005960 0.89203413444342971594 -0.01559061567159445924 
-0.00000000000000001321 0.88150704098092880212 -0.01501633561480164927 
-0.00000000000000000095 0.87083006285265440738 -0.01445967327195599346 
-0.00000000000000005437 0.86009254129507639597 -0.01392026405465119840 
-0.00000000000000004663 0.84938187704337708706 -0.01339774182329313799 
-0.00000000000000001979 0.83878248253355336406 -0.01289173948871602873 
0.00000000000000000354 0.82837487019516786724 -0.01240188958353019739 
0.00000000000000004364 0.81823487939078054509 -0.01192782480369553033 
0.00000000000000003386 0.80843304099986235123 -0.01146917852085324076 
0.00000000000000002126 0.79903407574158469284 -0.01102558526598890372 
-0.00000000000000001599 0.79009652003071095816 -0.01059668118503547321 
-0.00000000000000005894 0.78167247140539253270 -0.01018210446705401263 
0.00000000000000000696 0.77380744429335646117 -0.00978149574566325453 
0.00000000000000005823 0.76654032603195476625 -0.00939449847440452894 
-0.00000000000000007881 0.75990342256764076279 -0.00902075927675923331 
0.00000000000000001923 0.75392258307484394386 -0.00865992827154886922 
0.00000000000000002155 0.74861739280006178721 -0.00831165937446048074 
-0.00000000000000006847 0.74400142370622468491 -0.00797561057645872033 
-0.00000000000000003479 0.74008253292176406912 -0.00765144419985036399 
-0.00000000000000004605 0.73686319955012846705 -0.00733882713277364800 
0.00000000000000005366 0.73434089103535138410 -0.00703743104289108329 
0.00000000000000012412 0.73250845097893446667 -0.00674693257106503790 
0.00000000000000001561 0.73135450103832344571 -0.00646701350579533853 
0.00000000000000002244 0.73086385028722944401 -0.00619736093919520236 
-0.00000000000000001114 0.73101790616612405405 -0.00593766740527769486 
-0.00000000000000003425 0.73179508188387454304 -0.00568763100131837191 
0.00000000000000000973 0.73317119583796908078 -0.00544695549305487456 
0.00000000000000001339 0.73511985929294332287 -0.00521535040446826064 
0.00000000000000002921 0.73761284918845704262 -0.00499253109288988993 
-0.00000000000000001007 0.74062046353584620739 -0.00477821881015456050 
-0.00000000000000002257 0.74411185740234953023 -0.00457214075051817076 
0.00000000000000004357 0.74805535797434208334 -0.00437403008603747673 
0.00000000000000010799 0.75241875763465138061 -0.00418362599009455827 
-0.00000000000000003773 0.75716958438510539864 -0.00400067364973766184 
0.00000000000000003624 0.76227534929530760266 -0.00382492426748785386 
0.00000000000000007887 0.76770377096418718210 -0.00365613505324768320 
0.00000000000000002997 0.77342297724448483276 -0.00349406920692886883 
-0.00000000000000000489 0.77940168470466741901 -0.00333849589239593051 
0.00000000000000005400 0.78560935649058816210 -0.00318919020331038345 
0.00000000000000004422 0.79201633940347726526 -0.00304593312143409218 
0.00000000000000003996 0.79859398113446544709 -0.00290851146793420171 
0.00000000000000005314 0.80531472869176534690 -0.00277671784821679210 
-0.00000000000000002168 0.81215220912766905581 -0.00265035059079006107 
-0.00000000000000004422 0.81908129105952920401 -0.00252921368064625224 
0.00000000000000010544 0.82607802493562276780 -0.00241311668762350532 
0.00000000000000005017 0.83311909560957830845 -0.00230187469020188976 
0.00000000000000004039 0.84018073856167174718 -0.00219530819515526303 
0.00000000000000003741 0.84723745318475385258 -0.00209324305347334799 
0.00000000000000005144 0.85426078518121750793 -0.00199551037294336741 
-0.00000000000000004592 0.86121834179599154879 -0.00190194642776462587 
-0.00000000000000000425 0.86807312449308848823 -0.00181239256555176245 
0.00000000000000002636 0.87478320792804120654 -0.00172669511206459294 
0.00000000000000007228 0.88130175623734696710 -0.00164470527398246236 
0.00000000000000005867 0.88757734341213523344 -0.00156627904003236291 
0.00000000000000004592 0.89355453039396415260 -0.00149127708075051332 
0.00000000000000000170 0.89917464480274122973 -0.00142097295062871957 
-0.00000000000000000425 0.90437670774998624168 -0.00135374971263872517 
0.00000000000000003316 0.90909845435453118245 -0.00128948567947797361 
0.00000000000000004252 0.91327739909814298347 -0.00122806321999021804 
0.00000000000000006888 0.91685190310157993476 -0.00116936866639474218 
0.00000000000000006973 0.91976222370569782338 -0.00111329222108176064 
-0.00000000000000003996 0.92195173561704524268 -0.00105972786317655985 
0.00000000000000001531 0.92336863381632328096 -0.00100857325506465431 
0.00000000000000003316 0.92396793444851266219 -0.00095972964905423905 
0.00000000000000005017 0.92371342893823193965 -0.00091310179433992417 
0.00000000000000006973 0.92257936114750338508 -0.00086859784442200241 
-0.00000000000000007653 0.92055169786403567844 -0.00082612926512176655 
-0.00000000000000001105 0.91762893545472734580 -0.00078561074332327875 
0.00000000000000006292 0.91382243635296200868 -0.00074696009656040785 
0.00000000000000009609 0.90915632319220585078 -0.00071009818356144463 
0.00000000000000014710 0.90366697987738930919 -0.00067494881584779457 
0.00000000000000006122 0.89740222090553378731 -0.00064058404169766358 
0.00000000000000010884 0.89042019534391392277 -0.00060728180692909233 
-0.00000000000000002211 0.88278809203759822655 -0.00057555621410655580 
0.00000000000000000298 0.87458070939525178744 -0.00054533794929906851 
-0.00000000000000007610 0.86587894768155770908 -0.00051656043800773924 
-0.00000000000000004337 0.85676827502799568492 -0.00048915975449010307 
0.00000000000000005017 0.84733721103301018474 -0.00046307453306956500 
-0.00000000000000001361 0.83767586434768681602 -0.00043824588145129615 
