-64.205246 -64.045944 -63.889091 -63.734672 -63.582669 -63.433068 -63.285852 -63.141005 -62.998511 -62.858354 -62.720518 -62.584986 -62.451743 -62.320773 -62.192059 -62.065586 -61.941337 -61.819297 -61.699449 -61.581777 -61.466265 -61.352897 -61.241658 -61.132530 -61.025498 -60.920546 -60.817658 -60.716817 -60.618008 -60.521215 -60.426421 -60.333610 -60.242767 -60.153875 -60.066918 -59.981881 -59.898746 -59.817499 -59.738122 -59.660601 -59.584918 -59.511058 -59.439004 -59.368742 -59.300253 -59.233524 -59.168536 -59.105275 -59.043725 -58.983868 -58.925690 -58.869174 -58.814303 -58.761063 -58.709437 -58.659408 -58.610961 -58.564080 -58.518748 -58.474950 -58.432670 -58.391890 -58.352597 -58.314772 -58.278401 -58.243467 -58.209953 -58.177845 -58.147126 -58.117780 -58.089790 -58.063142 -58.037818 -58.013802 -57.991079 -57.969633 -57.949447 -57.930505 -57.912791 -57.896290 -57.880985 -57.866860 -57.853899 -57.842086 -57.831405 -57.821839 -57.813374 -57.805992 -57.799677 -57.794415 -57.790187 -57.786979 -57.784775 -57.783557 -57.783311 -57.784020 -57.785668 -57.788239 -57.791717 -57.796086 -57.801330 -57.807432 -57.814377 -57.822149 -57.830731 -57.840107 -57.850263 -57.861180 -57.872844 -57.885237 -57.898345 -57.912151 -57.926639 -57.941793 -57.957597 -57.974035 -57.991090 -58.008747 -58.026990 -58.045802 -58.065168 -58.085071 -58.105495 -58.126425 -58.147844 -58.169736 -58.192085 -58.214875 -58.238090 -58.261713 -58.285730 -58.310123 -58.334877 -58.359976 -58.385403 -58.411142 -58.437178 -58.463495 -58.490075 -58.516904 -58.543965 -58.571242 -58.598719 -58.626380 -58.654208 -58.682189 -58.710305 -58.738541 -58.766883 -58.795323 -58.823853 -58.852465 -58.881152 -58.909906 -58.938720 -58.967585 -58.996495 -59.025441 -59.054415 -59.083411 -59.112420 -59.141435 -59.170447 -59.199450 -59.228436 -59.257397 -59.286325 -59.315213 -59.344053 -59.372837 -59.401558 -59.430209 -59.458787 -59.487292 -59.515723 -59.544079 -59.572360 -59.600566 -59.628694 -59.656746 -59.684719 -59.712614 -59.740430 -59.768165 -59.795821 -59.823394 -59.850886 -59.878295 -59.905621 -59.932863 -59.960020 -59.987092 -60.014078 -60.040977 -60.067789 -60.094513 -60.121148 -60.147693 -60.174149 -60.200514 -60.226787 -60.252969 -60.279058 -60.305053 -60.330954 -60.356761 -60.382472 -60.408086 -60.433605 -60.459025 -60.484348 -60.509572 -60.534696 -60.559720 -60.584643 -60.609465 -60.634185 -60.658801 -60.683315 -60.707724 -60.732028 -60.756227 -60.780319 -60.804305 -60.828183 -60.851953 -60.875613 -60.899165 -60.922606 -60.945936 -60.969155 -60.992261 -61.015254 -61.038134 -61.060899 -61.083550 -61.106085 -61.128503 -61.150805 -61.172989 -61.195054 -61.217001 -61.238828 -61.260534 -61.282120 -61.303584 -61.324926 -61.346146 -61.367244 -61.388221 -61.409077 -61.429811 -61.450423 -61.470914 -61.491284 -61.511533 -61.531660 -61.551667 -61.571553 -61.591318 -61.610962 -61.630485 -61.649888 -61.669170 -61.688332 -61.707374 -61.726295 -61.745096 -61.763777 -61.782337 -61.800778 -61.819099 -61.837300 -61.855381 -61.873343 -61.891185 -61.908908 -61.926511 -61.943995 -61.961359 -61.978605 -61.995731 -62.012738 -62.029626 -62.046396 -62.063046 -62.079578 -62.095991 -62.112286 -62.128462 -62.144520 -62.160460 -62.176281 -62.191984 -62.207569 -62.223036 -62.238385 -62.253616 -62.268729 -62.283725 -62.298603 -62.313364 -62.328007 -62.342533 -62.356941 -62.371232 -62.385406 -62.399463 -62.413403 -62.427227 -62.440933 -62.454522 -62.467995 -62.481352 -62.494591 -62.507715 -62.520722 -62.533612 -62.546387 -62.559045 -62.571588 -62.584014 -62.596325 -62.608519 -62.620598 -62.632562 -62.644410 -62.656142 -62.667759 -62.679260 -62.690647 -62.701918 -62.713074 -62.724115 -62.735041 -62.745852 -62.756549 -62.767130 -62.777598 -62.787950 -62.798188 -62.808312 -62.818322 -62.828217 -62.837998 -62.847665 -62.857218 -62.866657 -62.875982 -62.885194 -62.894292 -62.903276 -62.912147 -62.920904 -62.929548 -62.938079 -62.946496 -62.954800 -62.962992 -62.971070 -62.979035 -62.986888 -62.994628 -63.002255 -63.009770 -63.017172 -63.024462 -63.031639 -63.038704 -63.045657 -63.052498 -63.059227 -63.065844 -63.072349 -63.078742 -63.085024 -63.091194 -63.097252 -63.103199 -63.109035 -63.114759 -63.120372 -63.125874 -63.131265 -63.136545 -63.141713 -63.146771 -63.151719 -63.156555 -63.161281 -63.165897 -63.170402 -63.174796 -63.179081 -63.183255 -63.187319 -63.191273 -63.195117 -63.198851 -63.202475 -63.205990 -63.209395 -63.212690 -63.215876 -63.218952 -63.221919 -63.224777 -63.227526 -63.230165 -63.232696 -63.235117 -63.237430 -63.239634 -63.241729 -63.243716 -63.245594 -63.247363 -63.249024 -63.250577 -63.252021 -63.253358 -63.254586 -63.255706 -63.256719 -63.257623 -63.258420 -63.259109 -63.259691 -63.260165 -63.260531 -63.260790 -63.260942 -63.260987 -63.260924 -63.260755 -63.260478 -63.260095 -63.259604 -63.259007 -63.258304 -63.257493 -63.256577 -63.255553 -63.254424 -63.253188 -63.251846 -63.250398 -63.248844 -63.247184 -63.245418 -63.243546 -63.241568 -63.239485 -63.237297 -63.235002 -63.232603 -63.230098 -63.227488 -63.224773 -63.221952 -63.219027 -63.215996 -63.212861 -63.209621 -63.206277 -63.202827 -63.199274 -63.195615 -63.191853 -63.187986 -63.184015 -63.179939 -63.175760 -63.171477 -63.167089 -63.162598 -63.158003 -63.153305 -63.148503 -63.143597 -63.138588 -63.133476 -63.128260 -63.122941 -63.117519 -63.111994 -63.106366 -63.100635 -63.094802 -63.088865 -63.082826 -63.076685 -63.070441 -63.064094 -63.057645 -63.051094 -63.044441 -63.037686 -63.030828 -63.023869 -63.016808 -63.009645 -63.002380 -62.995014 -62.987546 -62.979977 -62.972306 -62.964535 -62.956661 -62.948687 -62.940612 -62.932435 -62.924158 -62.915780 -62.907301 -62.898721 -62.890041 -62.881261 -62.872380 -62.863398 -62.854316 -62.845134 -62.835852 -62.826470 -62.816988 -62.807406 -62.797724 -62.787943 -62.778062 -62.768081 -62.758001 -62.747821 -62.737542 -62.727164 -62.716686 -62.706110 -62.695434 -62.684660 -62.673787 -62.662814 -62.651744 -62.640574 -62.629306 -62.617940 -62.606475 -62.594912 -62.583250 -62.571491 -62.559633 -62.547677 -62.535624 -62.523472 -62.511223 -62.498876 -62.486432 -62.473890 -62.461251 -62.448514 -62.435680 -62.422748 -62.409720 -62.396595 -62.383372 -62.370053 -62.356637 -62.343124 -62.329514 -62.315808 -62.302006 -62.288107 -62.274111 -62.260020 -62.245832 -62.231548 -62.217168 -62.202692 -62.188120 -62.173453 -62.158689 -62.143830 -62.128876 -62.113826 -62.098681 -62.083440 -62.068104 -62.052673 -62.037147 -62.021526 -62.005810 -61.989999 -61.974093 -61.958093 -61.941998 -61.925808 -61.909524 -61.893146 -61.876673 -61.860107 -61.843446 -61.826691 -61.809842 -61.792899 -61.775862 -61.758731 -61.741507 -61.724190 -61.706778 -61.689274 -61.671676 -61.653984 -61.636200 -61.618322 -61.600352 -61.582288 -61.564132 -61.545883 -61.527541 -61.509106 -61.490579 -61.471959 -61.453247 -61.434443 -61.415546 -61.396557 -61.377477 -61.358304 -61.339039 -61.319682 -61.300234 -61.280694 -61.261062 -61.241339 -61.221524 -61.201618 -61.181620 -61.161532 -61.141352 -61.121081 -61.100719 -61.080267 -61.059723 -61.039089 -61.018364 -60.997548 -60.976642 -60.955646 -60.934559 -60.913382 -60.892114 -60.870757 -60.849309 -60.827772 -60.806145 -60.784427 -60.762621 -60.740724 -60.718738 -60.696662 -60.674497 -60.652243 -60.629900 -60.607467 -60.584945 -60.562334 -60.539634 -60.516846 -60.493968 -60.471002 -60.447947 -60.424804 -60.401572 -60.378252 -60.354844 -60.331347 -60.307762 -60.284089 -60.260329 -60.236480 -60.212543 -60.188519 -60.164407 -60.140207 -60.115920 -60.091545 -60.067083 -60.042534 -60.017898 -59.993174 -59.968363 -59.943466 -59.918481 -59.893410 -59.868252 -59.843007 -59.817676 -59.792258 -59.766754 -59.741164 -59.715487 -59.689724 -59.663875 -59.637940 -59.611919 -59.585812 -59.559620 -59.533341 -59.506977 -59.480528 -59.453993 -59.427372 -59.400667 -59.373876 -59.347000 -59.320038 -59.292992 -59.265861 -59.238645 -59.211345 -59.183959 -59.156489 -59.128935 -59.101296 -59.073573 -59.045765 -59.017873 -58.989897 -58.961837 -58.933693 -58.905465 -58.877154 -58.848758 -58.820279 -58.791717 -58.763071 -58.734341 -58.705528 -58.676632 -58.647653 -58.618590 -58.589445 -58.560216 -58.530905 -58.501511 -58.472034 -58.442474 -58.412832 -58.383108 -58.353301 -58.323412 -58.293440 -58.263387 -58.233251 -58.203033 -58.172734 -58.142352 -58.111889 -58.081344 -58.050718 -58.020010 -57.989220 -57.958349 -57.927397 -57.896364 -57.865249 -57.834054 -57.802777 -57.771420 -57.739981 -57.708462 -57.676863 -57.645182 -57.613422 -57.581580 -57.549659 -57.517657 -57.485575 -57.453413 -57.421171 -57.388849 -57.356447 -57.323965 -57.291403 -57.258762 -57.226041 -57.193241 -57.160362 -57.127403 -57.094364 -57.061247 -57.028051 -56.994775 -56.961421 -56.927988 -56.894476 -56.860885 -56.827216 -56.793468 -56.759642 -56.725737 -56.691754 -56.657693 -56.623553 -56.589336 -56.555040 -56.520667 -56.486216 -56.451687 -56.417081 -56.382396 -56.347635 -56.312796 -56.277879 -56.242886 -56.207815 -56.172667 -56.137442 -56.102139 -56.066761 -56.031305 -55.995772 -55.960163 -55.924478 -55.888715 -55.852877 -55.816962 -55.780971 -55.744904 -55.708760 -55.672541 -55.636245 -55.599874 -55.563427 -55.526904 -55.490306 -55.453632 -55.416883 -55.380058 -55.343158 -55.306183 -55.269132 -55.232007 -55.194806 -55.157531 -55.120181 -55.082756 -55.045256 -55.007682 -54.970033 -54.932310 -54.894512 -54.856641 -54.818694 -54.780674 -54.742580 -54.704412 -54.666170 -54.627854 -54.589464 -54.551001 -54.512464 -54.473854 -54.435170 -54.396413 -54.357583 -54.318679 -54.279702 -54.240653 -54.201530 -54.162335 -54.123066 -54.083725 -54.044312 -54.004826 -53.965267 -53.925636 -53.885933 -53.846157 -53.806309 -53.766390 -53.726398 -53.686334 -53.646199 -53.605991 -53.565712 -53.525362 -53.484940 -53.444446 -53.403881 -53.363245 -53.322538 -53.281759 -53.240909 -53.199989 -53.158997 -53.117935 -53.076802 -53.035598 -52.994324 -52.952979 -52.911564 -52.870078 -52.828523 -52.786897 -52.745201 -52.703434 -52.661598 -52.619692 -52.577717 -52.535671 -52.493556 -52.451372 -52.409117 -52.366794 -52.324401 -52.281939 -52.239408 -52.196807 -52.154138 -52.111401 -52.068595 -52.025721 -51.982779 -51.939770 -51.896693 -51.853550 -51.810341 -51.767065 -51.723723 -51.680315 -51.636842 -51.593304 -51.549700 -51.506033 -51.462300 -51.418504 -51.374645 -51.330721 -51.286735 -51.242685 -51.198573 -51.154399 -51.110163 -51.065865 -51.021505 -50.977085 -50.932603 -50.888061 -50.843458 -50.798795 -50.754073 -50.709291 -50.664450 -50.619550 -50.574591 -50.529574 -50.484499 -50.439367 -50.394176 -50.348929 -50.303624 -50.258263 -50.212846 -50.167372 -50.121843 -50.076258 -50.030618 -49.984923 -49.939173 -49.893369 -49.847511 -49.801599 -49.755633 -49.709615 -49.663543 -49.617418 -49.571242 -49.525013 -49.478732 -49.432400 -49.386016 -49.339582 -49.293097 -49.246561 -49.199975 -49.153340 -49.106655 -49.059920 -49.013137 -48.966305 -48.919425 -48.872496 -48.825519 -48.778495 -48.731424 -48.684306 -48.637141 -48.589929 -48.542672 -48.495368 -48.448019 -48.400625 -48.353185 -48.305701 -48.258172 -48.210600 -48.162983 -48.115323 -48.067619 -48.019873 -47.972083 -47.924252 -47.876378 -47.828462 -47.780504 -47.732505 -47.684466 -47.636385 -47.588263 -47.540100 -47.491897 -47.443653 -47.395368 -47.347042 -47.298675 -47.250268 -47.201820 -47.153332 -47.104803 -47.056234 -47.007624 -46.958973 -46.910283 -46.861551 -46.812780 -46.763968 -46.715116 -46.666224 -46.617292 -46.568319 -46.519307 -46.470254 -46.421161 -46.372028 -46.322856 -46.273643 -46.224391 -46.175098 -46.125766 -46.076394 -46.026983 -45.977531 -45.928040 -45.878510 -45.828939 -45.779330 -45.729680 -45.679992 -45.630263 -45.580496 -45.530689 -45.480842 -45.430957 -45.381032 -45.331068 -45.281065 -45.231022 -45.180941 -45.130820 -45.080660 -45.030462 -44.980224 -44.929948 -44.879632 -44.829278 -44.778885 -44.728453 -44.677983 -44.627474 -44.576926 -44.526339 -44.475714 -44.425050 -44.374348 -44.323607 -44.272828 -44.222011 -44.171155 -44.120261 -44.069328 -44.018357 -43.967348 -43.916301 -43.865216 -43.814092 -43.762931 -43.711731 -43.660491 -43.609211 -43.557889 -43.506525 -43.455118 -43.403666 -43.352169 -43.300626 -43.249036 -43.197398 -43.145711 -43.093974 -43.042186 -42.990346 -42.938453 -42.886506 -42.834505 -42.782448 -42.730335 -42.678164 -42.625935 -42.573646 -42.521297 -42.468886 -42.416413 -42.363877 -42.311277 -42.258612 -42.205880 -42.153082 -42.100216 -42.047280 -41.994275 -41.941199 -41.888052 -41.834831 -41.781537 -41.728169 -41.674725 -41.621204 -41.567606 -41.513930 -41.460174 -41.406338 -41.352421 -41.298422 -41.244339 -41.190173 -41.135922 -41.081584 -41.027160 -40.972648 -40.918047 -40.863356 -40.808575 -40.753702 -40.698736 -40.643677 -40.588524 -40.533275 -40.477929 -40.422487 -40.366946 -40.311306 -40.255565 -40.199724 -40.143781 -40.087734 -40.031584 -39.975330 -39.918971 -39.862507 -39.805939 -39.749265 -39.692486 -39.635601 -39.578610 -39.521513 -39.464309 -39.406999 -39.349582 -39.292057 -39.234425 -39.176685 -39.118837 -39.060881 -39.002816 -38.944643 -38.886360 -38.827968 -38.769466 -38.710854 -38.652130 -38.593295 -38.534347 -38.475286 -38.416112 -38.356824 -38.297421 -38.237903 -38.178269 -38.118518 -38.058650 -37.998665 -37.938562 -37.878340 -37.817998 -37.757536 -37.696954 -37.636248 -37.575419 -37.514464 -37.453383 -37.392173 -37.330832 -37.269361 -37.207756 -37.146018 -37.084143 -37.022131 -36.959980 -36.897689 -36.835256 -36.772679 -36.709958 -36.647091 -36.584076 -36.520912 -36.457597 -36.394130 -36.330510 -36.266734 -36.202802 -36.138711 -36.074462 -36.010051 -35.945477 -35.880740 -35.815837 -35.750767 -35.685529 -35.620120 -35.554541 -35.488788 -35.422861 -35.356759 -35.290478 -35.224020 -35.157380 -35.090560 -35.023555 -34.956367 -34.888992 -34.821429 -34.753677 -34.685734 -34.617600 -34.549271 -34.480748 -34.412028 -34.343110 -34.273993 -34.204674 -34.135153 -34.065428 -33.995498 -33.925360 -33.855014 -33.784459 -33.713692 -33.642712 -33.571518 -33.500108 -33.428480 -33.356634 -33.284568 -33.212280 -33.139768 -33.067032 -32.994070 -32.920880 -32.847461 -32.773812 -32.699930 -32.625815 -32.551464 -32.476877 -32.402052 -32.326988 -32.251683 -32.176135 -32.100343 -32.024306 -31.948021 -31.871489 -31.794706 -31.717673 -31.640386 -31.562845 -31.485049 -31.406995 -31.328682 -31.250109 -31.171274 -31.092177 -31.012814 -30.933185 -30.853289 -30.773124 -30.692688 -30.611980 -30.530998 -30.449741 -30.368208 -30.286397 -30.204305 -30.121931 -30.039273 -29.956330 -29.873099 -29.789579 -29.705767 -29.621663 -29.537263 -29.452567 -29.367572 -29.282277 -29.196679 -29.110778 -29.024570 -28.938054 -28.851229 -28.764093 -28.676643 -28.588878 -28.500796 -28.412395 -28.323673 -28.234629 -28.145260 -28.055565 -27.965542 -27.875190 -27.784503 -27.693477 -27.602104 -27.510378 -27.418292 -27.325841 -27.233018 -27.139815 -27.046228 -26.952248 -26.857871 -26.763089 -26.667896 -26.572285 -26.476250 -26.379785 -26.282882 -26.185537 -26.087741 -25.989489 -25.890774 -25.791590 -25.691930 -25.591788 -25.491157 -25.390031 -25.288404 -25.186268 -25.083618 -24.980447 -24.876748 -24.772515 -24.667742 -24.562423 -24.456549 -24.350116 -24.243117 -24.135545 -24.027394 -23.918657 -23.809328 -23.699401 -23.588868 -23.477724 -23.365962 -23.253576 -23.140558 -23.026904 -22.912605 -22.797656 -22.682051 -22.565782 -22.448843 -22.331228 -22.212931 -22.093945 -21.974263 -21.853879 -21.732787 -21.610979 -21.488450 -21.365194 -21.241203 -21.116471 -20.990992 -20.864759 -20.737766 -20.609924 -20.480774 -20.349758 -20.216317 -20.079892 -19.939923 -19.795852 -19.647118 -19.493164 -19.333430 -19.167356 -18.994385 -18.813955 -18.625509 -18.428488 -18.222331 -18.006481 -17.780377 -17.543461 -17.295174 -17.034956 -16.762248 -16.476492 -16.177128 -15.863596 -15.535339 -15.191796 -14.832408 -14.456617 -14.063863 -13.653588 -13.225231 -12.778234 -12.312038 -11.826083 -11.319811 -10.792662 -10.244077 -9.673498 -9.080364 -8.464117 -7.824197 -7.160046 -6.471105 -5.756911 -5.018206 -4.257637 -3.479339 -2.687546 -1.886492 -1.080409 -0.273530 0.529910 1.325679 2.109543 2.877269 3.624623 4.347373 5.041285 5.702126 6.325663 6.907661 7.443889 7.930112 8.362097 8.735612 9.046433 9.293890 9.485888 9.631601 9.740203 9.820869 9.882773 9.935089 9.985333 10.034905 10.083797 10.131999 10.179505 10.226304 10.272389 10.317751 10.362382 10.406272 10.449413 10.491798 10.533416 10.574260 10.614322 10.653592 10.692062 10.729723 10.766568 10.802587 10.837772 10.872114 10.905605 10.938236 10.969999 11.000885 11.030886 11.059993 11.088197 11.115491 11.141865 11.167311 11.191820 11.215384 11.237994 11.259642 11.280319 11.300017 11.318727 11.336441 11.353149 11.368844 11.383517 11.397160 11.409763 11.421319 11.431818 11.441252 11.449614 11.456893 11.463082 11.468172 11.472155 11.475021 11.476763 11.477372 11.476840 11.475169 11.472367 11.468443 11.463404 11.457259 11.450015 11.441682 11.432267 11.421778 11.410223 11.397611 11.383950 11.369247 11.353512 11.336752 11.318975 11.300190 11.280404 11.259626 11.237864 11.215127 11.191421 11.166756 11.141139 11.114580 11.087085 11.058663 11.029322 10.999071 10.967917 10.935869 10.902934 10.869122 10.834439 10.798895 10.762497 10.725254 10.687174 10.648264 10.608534 10.567990 10.526642 10.484498 10.441565 10.397852 10.353366 10.308117 10.262112 10.215360 10.167868 10.119645 10.070699 10.021037 9.970669 9.919602 9.867845 9.815405 9.762291 9.708511 9.654073 9.598986 9.543256 9.486893 9.429905 9.372300 9.314086 9.255271 9.195863 9.135871 9.075302 9.014165 8.952469 8.890220 8.827427 8.764099 8.700243 8.635868 8.570982 8.505593 8.439709 8.373338 8.306489 8.239169 8.171387 8.103151 8.034469 7.965349 7.895800 7.825829 7.755445 7.684656 7.613470 7.541895 7.469939 7.397610 7.324918 7.251869 7.178471 7.104734 7.030666 6.956273 6.881565 6.806550 6.731235 6.655630 6.579742 6.503579 6.427149 6.350461 6.273523 6.196342 6.118928 6.041288 5.963430 5.885363 5.807094 5.728633 5.649986 5.571162 5.492170 5.413017 5.333714 5.254272 5.174702 5.095016 5.015224 4.935337 4.855367 4.775325 4.695222 4.615070 4.534878 4.454660 4.374425 4.294184 4.213950 4.133733 4.053544 3.973394 3.893295 3.813258 3.733294 3.653414 3.573629 3.493950 3.414389 3.334956 3.255664 3.176522 3.097542 3.018736 2.940114 2.861688 2.783469 2.705467 2.627695 2.550163 2.472882 2.395863 2.319119 2.242659 2.166495 2.090638 2.015100 1.939891 1.865023 1.790506 1.716352 1.642573 1.569178 1.496180 1.423590 1.351418 1.279676 1.208375 1.137526 1.067141 0.997230 0.927804 0.858876 0.790455 0.722553 0.655182 0.588352 0.522074 0.456361 0.391222 0.326669 0.262713 0.199365 0.136637 0.074540 0.013084 -0.047718 -0.107857 -0.167320 -0.226097 -0.284176 -0.341547 -0.398198 -0.454118 -0.509295 -0.563720 -0.617380 -0.670264 -0.722361 -0.773661 -0.824151 -0.873821 -0.922660 -0.970656 -1.017799 -1.064077 -1.109478 -1.153993 -1.197609 -1.240315 -1.282101 -1.322956 -1.362867 -1.401824 -1.439816 -1.476831 -1.512859 -1.547888 -1.581908 -1.614906 -1.646872 -1.677795 -1.707663 -1.736466 -1.764192 -1.790830 -1.816368 -1.840797 -1.864104 -1.886279 -1.907309 -1.927185 -1.945895 -1.963428 -1.979772 -1.994917 -2.008851 -2.021564 -2.033043 -2.043278 -2.052258 -2.059972 -2.066408 -2.071555 -2.075403 -2.077939 -2.079153 -2.079034 -2.077570 -2.074751 -2.070565 -2.065001 -2.058047 -2.049694 -2.039929 -2.028741 -2.016120 -2.002054 -1.986531 -1.969542 -1.951074 -1.931117 -1.909659 -1.886689 -1.862196 -1.836169 -1.808597 -1.779468 -1.748772 -1.716497 -1.682632 -1.647166 -1.610088 -1.571386 -1.531050 -1.489068 -1.445430 -1.400123 -1.353137 -1.304461 -1.254084 -1.201994 -1.148180 -1.092631 -1.035336 -0.976284 -0.915464 -0.852864 -0.788473 -0.722281 -0.654275 -0.584445 -0.512780 -0.439269 -0.363900 -0.286662 -0.207545 -0.126536 -0.043625 0.041200 0.127948 0.216633 0.307265 0.399854 0.494413 0.590952 0.689482 0.790015 0.892562 0.997133 1.103741 1.212396 1.323110 1.435893 1.550753 1.667698 1.786734 1.907866 2.031102 2.156446 2.283906 2.413488 2.545198 2.679042 2.815026 2.953157 3.093441 3.235885 3.380493 3.527274 3.676232 3.827374 3.980707 4.136237 4.293969 4.453910 4.616067 4.780446 4.947052 5.115893 5.286973 5.460301 5.635881 5.813720 5.993825 6.176201 6.360855 6.547793 6.737022 6.928547 7.122374 7.318511 7.516963 7.717737 7.920838 8.126273 8.334049 8.544171 8.756645 8.971479 9.188678 9.408248 9.630196 9.854528 10.081251 10.310369 10.541891 10.775821 11.012166 11.250933 11.492128 11.735756 11.981824 12.230339 12.481307 12.734733 12.990625 13.248987 13.509828 13.773152 14.038966 14.307277 14.578090 14.851412 15.127250 15.405608 15.686494 15.969914 16.255873 16.544380 16.835438 17.129055 17.425238 17.723991 18.025322 18.329237 18.635742 18.944843 19.256546 19.570859 19.887785 20.207326 20.529483 20.854256 21.181642 21.511619 21.844162 22.179247 22.516846 22.856936 23.199491 23.544485 23.891894 24.241692 24.593853 24.948353 25.305166 25.664267 26.025630 26.389230 26.755042 27.123041 27.493201 27.865497 28.239904 28.616396 28.994948 29.375535 29.758131 30.142711 30.529250 30.917720 31.308096 31.700351 32.094460 32.490395 32.888132 33.287643 33.688903 34.091885 34.496563 34.902911 35.310903 35.720512 36.131702 36.544423 36.958622 37.374247 37.791248 38.209573 38.629170 39.049986 39.471972 39.895074 40.319241 40.744422 41.170565 41.597618 42.025529 42.454248 42.883721 43.313898 43.744727 44.176155 44.608132 45.040606 45.473525 45.906838 46.340492 46.774436 47.208618 47.642988 48.077489 48.512052 48.946594 49.381038 49.815302 50.249308 50.682974 51.116221 51.548970 51.981140 52.412652 52.843426 53.273381 53.702438 54.130516 54.557537 54.983421 55.408086 55.831454 56.253445 56.673978 57.092974 57.510353 57.926035 58.339945 58.752005 59.162137 59.570266 59.976315 60.380205 60.781862 61.181207 61.578164 61.972656 62.364606 62.753937 63.140572 63.524435 63.905449 64.283536 64.658620 65.030624 65.399471 65.765084 66.127387 66.486302 66.841752 67.193661 67.541952 67.886548 68.227372 68.564347 68.897396 69.226443 69.551410 69.872221 70.188798 70.501066 70.808946 71.112363 71.411239 71.705497 71.995061 72.279853 72.559797 72.834816 73.104833 73.369771 73.629553 73.884103 74.133343 74.377196 74.615587 74.848437 75.075670 75.297209 75.512977 75.722898 75.926894 76.124889 76.316805 76.502566 76.682096 76.855316 77.022150 77.182522 77.336376 77.483737 77.624646 77.759142 77.887266 78.009060 78.124563 78.233817 78.336862 78.433738 78.524487 78.609148 78.687763 78.760372 78.827016 78.887735 78.942570 78.991562 79.034751 79.072178 79.103884 79.129908 79.150293 79.165078 79.174303 79.178011 79.176241 79.169033 79.156430 79.138470 79.115195 79.086646 79.052863 79.013886 78.969757 78.920515 78.866203 78.806859 78.742525 78.673242 78.599050 78.519989 78.436101 78.347426 78.254004 78.155877 78.053085 77.945668 77.833667 77.717123 77.596076 77.470567 77.340637 77.206326 77.067675 76.924724 76.777515 76.626087 76.470482 76.310740 76.146902 75.979007 75.807098 75.631214 75.451397 75.267686 75.080122 74.888747 74.693600 74.494723 74.292156 74.085939 73.876113 73.662719 73.445798 73.225390 73.001535 72.774275 72.543649 72.309700 72.072466 71.831990 71.588310 71.341469 71.091507 70.838464 70.582381 70.323299 70.061258 69.796299 69.528462 69.257788 68.984319 68.708093 68.429153 68.147538 67.863290 67.576448 67.287054 66.995148 66.700771 66.403963 66.104766 65.803217 65.499352 65.193203 64.884805 64.574190 64.261393 63.946447 63.629385 63.310241 62.989048 62.665840 62.340651 62.013513 61.684461 61.353528 61.020748 60.686153 60.349778 60.011645 59.671768 59.330164 58.986847 58.641831 58.295132 57.946764 57.596741 57.245079 56.891793 56.536896 56.180405 55.822333 55.462695 55.101507 54.738782 54.374536 54.008784 53.641540 53.272818 52.902635 52.531009 52.157963 51.783522 51.407709 51.030547 50.652061 50.272273 49.891208 49.508889 49.125339 48.740583 48.354645 47.967547 47.579313 47.189967 46.799533 46.408034 46.015494 45.621937 45.227386 44.831865 44.435397 44.038006 43.639717 43.240551 42.840534 42.439688 42.038038 41.635607 41.232418 40.828496 40.423864 40.018545 39.612563 39.205942 38.798706 38.390878 37.982482 37.573541 37.164079 36.754120 36.343685 35.932794 35.521468 35.109727 34.697592 34.285083 33.872221 33.459025 33.045516 32.631715 32.217641 31.803316 31.388760 30.973992 30.559034 30.143906 29.728627 29.313220 28.897703 28.482097 28.066423 27.650701 27.234952 26.819195 26.403451 25.987740 25.572082 25.156497 24.741007 24.325630 23.910387 23.495299 23.080386 22.665667 22.251163 21.836894 21.422881 21.009143 20.595702 20.182576 19.769787 19.357355 18.945299 18.533640 18.122398 17.711594 17.301248 16.891379 16.482008 16.073156 15.664842 15.257087 14.849911 14.443335 14.037377 13.632059 13.227402 12.823424 12.420146 12.017589 11.615773 11.214718 10.814443 10.414971 10.016319 9.618510 9.221563 8.825498 8.430335 8.036096 7.642799 7.250465 6.859115 6.468768 6.079445 5.691166 5.303951 4.917821 4.532796 4.148895 3.766140 3.384549 3.004145 2.624946 2.246973 1.870247 1.494787 1.120613 0.747747 0.376207 0.006015 -0.362809 -0.730246 -1.096275 -1.460875 -1.824027 -2.185711 -2.545905 -2.904591 -3.261747 -3.617354 -3.971391 -4.323838 -4.674675 -5.023881 -5.371437 -5.717322 -6.061515 -6.403998 -6.744749 -7.083748 -7.420976 -7.756411 -8.090034 -8.421824 -8.751761 -9.079826 -9.405997 -9.730254 -10.052578 -10.372948 -10.691344 -11.007745 -11.322132 -11.634484 -11.944781 -12.253003 -12.559129 -12.863140 -13.165015 -13.464733 -13.762276 -14.057621 -14.350750 -14.641642 -14.930277 -15.216634 -15.500694 -15.782435 -16.061839 -16.338884 -16.613551 -16.885819 -17.155668 -17.423078 -17.688028 -17.950499 -18.210469 -18.467920 -18.722831 -18.975181 -19.224950 -19.472118 -19.716665 -19.958571 -20.197815 -20.434377 -20.668237 -20.899375 -21.127770 -21.353403 -21.576252 -21.796299 -22.013522 -22.227902 -22.439417 -22.648049 -22.853776 -23.056579 -23.256438 -23.453331 -23.647239 -23.838142 -24.026019 -24.210850 -24.392616 -24.571295 -24.746868 -24.919314 -25.088613 -25.254745 -25.417690 -25.577427 -25.733936 -25.887197 -26.037190 -26.183895 -26.327291 -26.467358 -26.604076 -26.737425 -26.867384 -26.993934 -27.117053 -27.236722 -27.352921 -27.465629 -27.574827 -27.680493 -27.782608 -27.881151 -27.976103 -28.067443 -28.155150 -28.239206 -28.319588 -28.396278 -28.469254 -28.538498 -28.603988 -28.665704 -28.723626 -28.777734 -28.828008 -28.874427 -28.916971 -28.955621 -28.990355 -29.021153 -29.047996 -29.070863 -29.089734 -29.104588 -29.115406 -29.122167 -29.124851 -29.123438 -29.117907 -29.108239 -29.094413 -29.076409 -29.054206 -29.027785 -28.997125 -28.962206 -28.923008 -28.879510 -28.831693 -28.779542 -28.723040 -28.662173 -28.596925 -28.527282 -28.453229 -28.374753 -28.291864 -28.204582 -28.112927 -28.016919 -27.916579 -27.811927 -27.702982 -27.589766 -27.472299 -27.350600 -27.224689 -27.094588 -26.960317 -26.821906 -26.679426 -26.532956 -26.382574 -26.228358 -26.070387 -25.908738 -25.743490 -25.574722 -25.402511 -25.226937 -25.048076 -24.866009 -24.680812 -24.492564 -24.301345 -24.107231 -23.910301 -23.710633 -23.508307 -23.303399 -23.095989 -22.886155 -22.673975 -22.459527 -22.242890 -22.024141 -21.803360 -21.580625 -21.356014 -21.129604 -20.901476 -20.671703 -20.440349 -20.207476 -19.973143 -19.737412 -19.500344 -19.261999 -19.022439 -18.781724 -18.539902 -18.296999 -18.053035 -17.808033 -17.562013 -17.314997 -17.067008 -16.818065 -16.568192 -16.317410 -16.065739 -15.813202 -15.559821 -15.305616 -15.050609 -14.794823 -14.538277 -14.280995 -14.022997 -13.764306 -13.504942 -13.244927 -12.984283 -12.723032 -12.461194 -12.198792 -11.935847 -11.672380 -11.408413 -11.143968 -10.879067 -10.613730 -10.347979 -10.081836 -9.815323 -9.548461 -9.281271 -9.013776 -8.745996 -8.477953 -8.209669 -7.941165 -7.672464 -7.403585 -7.134552 -6.865385 -6.596107 -6.326738 -6.057300 -5.787815 -5.518305 -5.248790 -4.979293 -4.709835 -4.440437 -4.171122 -3.901910 -3.632823 -3.363883 -3.095112 -2.826530 -2.558160 -2.290023 -2.022140 -1.754534 -1.487225 -1.220235 -0.953586 -0.687300 -0.421397 -0.155900 0.109170 0.373791 0.637943 0.901602 1.164749 1.427361 1.689416 1.950893 2.211771 2.472028 2.731643 2.990593 3.248858 3.506415 3.763244 4.019322 4.274628 4.529141 4.782839 5.035700 5.287703 5.538827 5.789049 6.038349 6.286704 6.534093 6.780495 7.025887 7.270249 7.513559 7.755796 7.996937 8.236961 8.475847 8.713573 8.950118 9.185459 9.419576 9.652447 9.884050 10.114364 10.343366 10.571025 10.797311 11.022192 11.245635 11.467610 11.688083 11.907025 12.124402 12.340184 12.554339 12.766834 12.977638 13.186719 13.394047 13.599588 13.803311 14.005185 14.205178 14.403258 14.599393 14.793552 14.985703 15.175792 15.363729 15.549416 15.732755 15.913650 16.092004 16.267720 16.440700 16.610847 16.778065 16.942257 17.103324 17.261172 17.415701 17.566816 17.714418 17.858412 17.998700 18.135185 18.267770 18.396358 18.520852 18.641154 18.757169 18.868798 18.975944 19.078512 19.176403 19.269520 19.357767 19.441046 19.519261 19.592314 19.660108 19.722547 19.779532 19.830968 19.876757 19.916802 19.951006 19.979271 20.001502 20.017600 20.027469 20.031012 20.028132 20.018731 20.002713 19.979980 19.950436 19.913983 19.870524 19.819963 19.762202 19.697144 19.624693 19.544750 19.457220 19.362004 19.259075 19.148698 19.031226 18.907007 18.776392 18.639730 18.497371 18.349666 18.196964 18.039616 17.877970 17.712378 17.543188 17.370752 17.195418 17.017537 16.837459 16.655534 16.472111 16.287541 16.102173 15.916358 15.730445 15.544784 15.359726 15.175620 14.992816 14.811664 14.632514 14.455716 14.281620 14.110575 13.942933 13.779042 13.619252 13.463914 13.313378 13.167958 13.027744 12.892736 12.762947 12.638397 12.519107 12.405095 12.296383 12.192991 12.094938 12.002246 11.914934 11.833023 11.756532 11.685483 11.619895 11.559788 11.505183 11.456099 11.412558 11.374579 11.342182 11.315388 11.294217 11.278680 11.268740 11.264350 11.265460 11.272022 11.283985 11.301302 11.323923 11.351799 11.384882 11.423122 11.466470 11.514877 11.568295 11.626674 11.689965 11.758120 11.831088 11.908822 11.991273 12.078390 12.170126 12.266431 12.367257 12.472553 12.582272 12.696365 12.814781 12.937473 13.064392 13.195487 13.330711 13.470014 13.613348 13.760663 13.911910 14.067041 14.226006 14.388756 14.555242 14.725416 14.899229 15.076630 15.257572 15.442006 15.629881 15.821150 16.015764 16.213673 16.414828 16.619180 16.826681 17.037282 17.250932 17.467584 17.687189 17.909697 18.135059 18.363227 18.594151 18.827782 19.064072 19.302972 19.544428 19.788382 20.034773 20.283538 20.534616 20.787946 21.043468 21.301118 21.560837 21.822562 22.086233 22.351788 22.619166 22.888305 23.159144 23.431622 23.705677 23.981249 24.258275 24.536695 24.816447 25.097470 25.379702 25.663082 25.947549 26.233041 26.519498 26.806857 27.095058 27.384039 27.673739 27.964096 28.255050 28.546538 28.838500 29.130873 29.423598 29.716612 30.009854 30.303264 30.596778 30.890337 31.183879 31.477342 31.770665 32.063787 32.356647 32.649182 32.941333 33.233037 33.524234 33.814861 34.104858 34.394162 34.682714 34.970451 35.257313 35.543237 35.828163 36.112029 36.394774 36.676337 36.956655 37.235669 37.513316 37.789536 38.064266 38.337446 38.609014 38.878908 39.147069 39.413434 39.677941 39.940530 40.201140 40.459716 40.716242 40.970717 41.223135 41.473495 41.721791 41.968023 42.212185 42.454274 42.694288 42.932223 43.168075 43.401841 43.633519 43.863103 44.090593 44.315983 44.539270 44.760452 44.979525 45.196485 45.411329 45.624055 45.834658 46.043135 46.249483 46.453698 46.655778 46.855719 47.053517 47.249170 47.442674 47.634025 47.823220 48.010256 48.195130 48.377838 48.558377 48.736743 48.912934 49.086946 49.258775 49.428419 49.595873 49.761135 49.924202 50.085069 50.243734 50.400193 50.554443 50.706480 50.856302 51.003905 51.149285 51.292440 51.433365 51.572059 51.708516 51.842734 51.974710 52.104441 52.231922 52.357150 52.480123 52.600837 52.719289 52.835475 52.949392 53.061036 53.170405 53.277494 53.382302 53.484823 53.585056 53.682996 53.778640 53.871986 53.963029 54.051766 54.138194 54.222310 54.304110 54.383591 54.460750 54.535583 54.608087 54.678258 54.746094 54.811591 54.874745 54.935554 54.994014 55.050121 55.103873 55.155265 55.204296 55.250960 55.295256 55.337179 55.376726 55.413895 55.448681 55.481082 55.511093 55.538712 55.563935 55.586760 55.607182 55.625198 55.640805 55.654000 55.664779 55.673140 55.679078 55.682590 55.683673 55.682324 55.678539 55.672315 55.663649 55.652537 55.638977 55.622963 55.604495 55.583567 55.560177 55.534321 55.505996 55.475199 55.441926 55.406174 55.367940 55.327220 55.284012 55.238310 55.190114 55.139418 55.086220 55.030516 54.972303 54.911578 54.848338 54.782578 54.714353 54.643854 54.571298 54.496899 54.420871 54.343430 54.264791 54.185168 54.104734 54.023520 53.941530 53.858769 53.775241 53.690950 53.605900 53.520096 53.433540 53.346238 53.258193 53.169410 53.079893 52.989645 52.898672 52.806976 52.714563 52.621436 52.527599 52.433057 52.337813 52.241873 52.145239 52.047916 51.949908 51.851219 51.751854 51.651816 51.551110 51.449739 51.347708 51.245021 51.141682 51.037695 50.933064 50.827794 50.721888 50.615350 50.508185 50.400397 50.291990 50.182968 50.073335 49.963096 49.852253 49.740812 49.628777 49.516151 49.402939 49.289145 49.174773 49.059828 48.944312 48.828231 48.711588 48.594388 48.476635 48.358332 48.239484 48.120096 48.000170 47.879712 47.758725 47.637214 47.515183 47.392635 47.269575 47.146006 47.021934 46.897362 46.772295 46.646736 46.520689 46.394159 46.267150 46.139665 46.011710 45.883287 45.754402 45.625058 45.495260 45.365011 45.234316 45.103178 44.971603 44.839593 44.707154 44.574288 44.441001 44.307297 44.173179 44.038652 43.903719 43.768386 43.632655 43.496531 43.360019 43.223122 43.085845 42.948191 42.810165 42.671771 42.533012 42.393894 42.254420 42.114594 41.974420 41.833903 41.693046 41.551855 41.410332 41.268482 41.126309 40.983817 40.841010 40.697893 40.554469 40.410743 40.266719 40.122401 39.977792 39.832898 39.687721 39.542267 39.396540 39.250543 39.104280 38.957757 38.810976 38.663942 38.516659 38.369132 38.221364 38.073359 37.925122 37.776656 37.627966 37.479056 37.329930 37.180593 37.031047 36.881298 36.731349 36.581205 36.430869 36.280346 36.129641 35.978756 35.827696 35.676465 35.525068 35.373509 35.221791 35.069918 34.917896 34.765727 34.613416 34.460968 34.308386 34.155674 34.002836 33.849878 33.696802 33.543612 33.390314 33.236911 33.083407 32.929806 32.776113 32.622331 32.468465 32.314518 32.160495 32.006401 31.852238 31.698012 31.543726 31.389384 31.234991 31.080550 30.926066 30.771543 30.616985 30.462396 30.307781 30.153142 29.998486 29.843814 29.689133 29.534445 29.379755 29.225066 29.070385 28.915713 28.761055 28.606417 28.451800 28.297211 28.142652 27.988129 27.833646 27.679207 27.524818 27.370481 27.216203 27.061987 26.907837 26.753759 26.599757 26.445835 26.291998 26.138250 25.984595 25.831038 25.677585 25.524238 25.371002 25.217883 25.064884 24.912010 24.759265 24.606655 24.454182 24.301853 24.149670 23.997638 23.845599 23.693092 23.539926 23.386111 23.231656 23.076574 22.920875 22.764570 22.607672 22.450190 22.292137 22.133522 21.974359 21.814657 21.654428 21.493683 21.332434 21.170691 21.008466 20.845769 20.682613 20.519008 20.354966 20.190497 20.025613 19.860325 19.694644 19.528582 19.362150 19.195358 19.028219 18.860742 18.692940 18.524824 18.356405 18.187693 18.018701 17.849439 17.679919 17.510151 17.340148 17.169920 16.999478 16.828833 16.657998 16.486982 16.315798 16.144455 15.972967 15.801343 15.629595 15.457734 15.285772 15.113718 14.941586 14.769386 14.597128 14.424825 14.252488 14.080127 13.907754 13.735380 13.563016 13.390674 13.218364 13.046098 12.873887 12.701743 12.529676 12.357697 12.185818 12.014051 11.842405 11.670893 11.499526 11.328314 11.157269 10.986402 10.815725 10.645250 10.474991 10.304963 10.135180 9.965656 9.796406 9.627445 9.458786 9.290444 9.122434 8.954770 8.787466 8.620536 8.453996 8.287859 8.122140 7.956853 7.792013 7.627634 7.463730 7.300316 7.137406 6.975016 6.813162 6.651866 6.491146 6.331022 6.171514 6.012641 5.854424 5.696882 5.540035 5.383901 5.228502 5.073857 4.919985 4.766905 4.614639 4.463205 4.312623 4.162913 4.014094 3.866187 3.719210 3.573184 3.428128 3.284062 3.141005 2.998978 2.857999 2.718089 2.579268 2.441554 2.304968 2.169529 2.035258 1.902173 1.770294 1.639641 1.510235 1.382093 1.255237 1.129685 1.005458 0.882575 0.761056 0.640920 0.522188 0.404878 0.289011 0.174606 0.061684 -0.049738 -0.159638 -0.267997 -0.374795 -0.480013 -0.583631 -0.685630 -0.785989 -0.884688 -0.981710 -1.077032 -1.170637 -1.262504 -1.352613 -1.440946 -1.527481 -1.612200 -1.695083 -1.776110 -1.855261 -1.932517 -2.007858 -2.081265 -2.152717 -2.222195 -2.289680 -2.355151 -2.418589 -2.479975 -2.539288 -2.596509 -2.651619 -2.704597 -2.755424 -2.804080 -2.850545 -2.894801 -2.936826 -2.976602 -3.014109 -3.049327 -3.082237 -3.112818 -3.141051 -3.166917 -3.190395 -3.211467 -3.230111 -3.246310 -3.260042 -3.271289 -3.280030 -3.286246 -3.289918 -3.291025 -3.289548 -3.285467 -3.278762 -3.269415 -3.257405 -3.242712 -3.225317 -3.205200 -3.182341 -3.156721 -3.128321 -3.097119 -3.063098 -3.026236 -2.986515 -2.943914 -2.898414 -2.849996 -2.798639 -2.744324 -2.687032 -2.626742 -2.563435 -2.497091 -2.427690 -2.355213 -2.279641 -2.200953 -2.119130 -2.034152 -1.945999 -1.854652 -1.760091 -1.662297 -1.561249 -1.456928 -1.349315 -1.238389 -1.124131 -1.006522 -0.885541 -0.761169 -0.633386 -0.502172 -0.367509 -0.229376 -0.087753 0.057379 0.206040 0.358257 0.514062 0.673487 0.836533 1.003143 1.173251 1.346792 1.523700 1.703910 1.887358 2.073977 2.263703 2.456470 2.652213 2.850866 3.052365 3.256644 3.463637 3.673280 3.885507 4.100254 4.317453 4.537042 4.758953 4.983122 5.209484 5.437973 5.668524 5.901072 6.135551 6.371896 6.610042 6.849924 7.091476 7.334634 7.579330 7.825502 8.073083 8.322007 8.572210 8.823627 9.076192 9.329839 9.584504 9.840121 10.096626 10.353952 10.612034 10.870808 11.130207 11.390167 11.650623 11.911508 12.172758 12.434308 12.696092 12.958045 13.220101 13.482196 13.744264 14.006239 14.268058 14.529653 14.790961 15.051915 15.312450 15.572502 15.832005 16.090893 16.349101 16.606565 16.863218 17.118996 17.373833 17.627666 17.880452 18.132158 18.382749 18.632192 18.880455 19.127503 19.373303 19.617822 19.861026 20.102881 20.343355 20.582414 20.820024 21.056151 21.290763 21.523826 21.755307 21.985172 22.213387 22.439919 22.664735 22.887801 23.109084 23.328550 23.546167 23.761899 23.975714 24.187579 24.397460 24.605324 24.811136 25.014865 25.216475 25.415935 25.613215 25.808318 26.001256 26.192038 26.380677 26.567183 26.751568 26.933843 27.114018 27.292106 27.468117 27.642061 27.813952 27.983799 28.151613 28.317406 28.481190 28.642974 28.802770 28.960590 29.116444 29.270344 29.422301 29.572325 29.720429 29.866622 30.010917 30.153324 30.293855 30.432520 30.569332 30.704300 30.837436 30.968751 31.098257 31.225964 31.351884 31.476028 31.598406 31.719030 31.837912 31.955062 32.070491 32.184210 32.296232 32.406566 32.515224 32.622217 32.727557 32.831253 32.933318 33.033763 33.132599 33.229836 33.325486 33.419561 33.512070 33.603026 33.692440 33.780322 33.866685 33.951538 34.034893 34.116761 34.197154 34.276082 34.353556 34.429589 34.504190 34.577371 34.649144 34.719518 34.788507 34.856119 34.922367 34.987262 35.050815 35.113038 35.173940 35.233533 35.291829 35.348839 35.404574 35.459044 35.512261 35.564236 35.614981 35.664506 35.712823 35.759942 35.805875 35.850633 35.894227 35.936668 35.977968 36.018137 36.057187 36.095128 36.131972 36.167730 36.202414 36.236033 36.268601 36.300126 36.330621 36.360097 36.388565 36.416036 36.442522 36.468032 36.492579 36.516174 36.538827 36.560551 36.581355 36.601251 36.620251 36.638365 36.655604 36.671981 36.687505 36.702188 36.716041 36.729075 36.741302 36.752732 36.763376 36.773247 36.782354 36.790709 36.798324 36.805208 36.811374 36.816833 36.821595 36.825672 36.829075 36.831815 36.833904 36.835351 36.836169 36.836369 36.835961 36.834958 36.833369 36.831206 36.828481 36.825204 36.821387 36.817040 36.812175 36.806803 36.800935 36.794583 36.787756 36.780467 36.772727 36.764547 36.755937 36.746909 36.737475 36.727645 36.717430 36.706841 36.695891 36.684589 36.672947 36.660976 36.648687 36.636092 36.623201 36.610026 36.596578 36.582867 36.568905 36.554704 36.540274 36.525626 36.510772 36.495722 36.480488 36.465081 36.449513 36.433793 36.417934 36.401946 36.385841 36.369629 36.353323 36.336932 36.320469 36.303944 36.287368 36.270753 36.254109 36.237449 36.220782 36.204120 36.187475 36.170856 36.154277 36.137747 36.121277 36.104880 36.088565 36.072345 36.056230 36.040231 36.024360 36.008628 35.993045 35.977623 35.962374 35.947307 35.932435 35.917769 35.903319 35.889096 35.875113 35.861380 35.847907 35.834707 35.821791 35.809169 35.796853 35.784853 35.773181 35.761849 35.750867 35.740246 35.729997 35.720132 35.710662 35.701598 35.692950 35.684731 35.676951 35.669622 35.662754 35.656359 35.650447 35.645031 35.640121 35.635727 35.631863 35.628537 35.625762 35.623549 35.621909 35.620853 35.620392 35.620537 35.621300 35.622691 35.624722 35.627404 35.630747 35.634764 35.639465 35.644861 35.650964 35.657784 35.665334 35.673623 35.682662 35.692465 35.703040 35.714400 35.726555 35.739517 35.753297 35.767906 35.783355 35.799655 35.816817 35.834853 35.853774 35.873590 35.894313 35.915954 35.938524 35.962035 35.986497 36.011921 36.038320 36.065703 36.094081 36.123467 36.153872 36.185305 36.217779 36.251305 36.285893 36.321556 36.358303 36.396146 36.435097 36.475166 36.516365 36.558704 36.602195 36.646849 36.692678 36.739691 36.787901 36.837318 36.887954 36.939819 36.992926 37.047284 37.102906 37.159802 37.217983 37.277461 37.338246 37.400351 37.463785 37.528560 37.594688 37.662179 37.731044 37.801295 37.872943 37.945999 38.020473 38.096378 38.173724 38.252523 38.332785 38.414521 38.497744 38.582463 38.668691 38.756438 38.845715 38.936533 39.028905 39.122840 39.218349 39.315445 39.414138 39.514440 39.616360 39.719911 39.825104 39.931950 40.040460 40.150645 40.262516 40.376084 40.491361 40.608357 40.727084 40.847553 40.969775 41.093762 41.219523 41.347071 41.476416 41.607570 41.740544 41.875349 42.011996 42.150496 42.290861 42.433101 42.577228 42.723252 42.871185 43.021039 43.172823 43.326550 43.482230 43.639875 43.799495 43.961102 44.124707 44.290321 44.457956 44.627622 44.799330 44.973092 45.148918 45.326821 45.506810 45.688898 45.873095 46.059412 46.247861 46.438453 46.631198 46.826109 47.023195 47.222469 47.423941 47.627622 47.833525 48.041658 48.252035 48.464666 48.679562 48.896734 49.116194 49.337952 49.562020 49.788408 50.017129 50.248193 50.481611 50.717394 50.955554 51.196101 51.439047 51.684403 51.932180 52.182389 52.435042 52.690149 52.947721 53.207770 53.470307 53.735343 54.002889 54.272956 54.545556 54.820699 55.098397 55.378660 55.661500 55.946929 56.234956 56.525594 