0.000000 0.000000 0.000000 0.000000 0.000000 0.000000 0.000000 0.000000 -0.000000 0.000000 0.000000 0.000000 0.000000 0.000000 0.000000 0.000000 0.000000 0.000000 0.000000 0.000000 0.000000 0.000000 0.000000 0.000000 0.000000 0.000000 0.000000 0.000000 0.000000 0.000000 0.000000 0.000000 0.000000 0.000000 0.000000 0.000000 -0.000000 0.000000 0.000000 0.000000 0.000000 0.000000 0.000000 0.000000 -0.000000 0.000000 0.000000 0.000000 0.000000 0.000000 0.000000 0.000000 0.000000 0.000000 0.000000 0.000000 -0.000000 0.000000 0.000000 0.000000 -0.000000 0.000000 0.000000 0.000000 0.000000 0.000000 0.000000 0.000000 0.000000 0.000000 0.000000 0.000000 -0.000000 0.000000 0.000000 0.000000 -0.000000 0.000000 0.000000 0.000000 0.000000 0.000000 -0.000000 0.000000 0.000000 0.000000 -0.000000 0.000000 -0.000000 0.000000 0.000000 0.000000 0.000000 -0.000000 -0.000000 0.000000 0.000000 0.000000 -0.000000 0.000000 0.000000 0.000000 -0.000000 0.000000 -0.000000 -0.000000 0.000000 0.000000 0.000000 -0.000000 0.000000 0.000000 0.000005 0.000026 0.000094 0.000263 0.000619 0.001281 0.002408 0.004194 0.006869 0.010697 0.015966 0.022990 0.032094 0.043615 0.057890 0.075251 0.096020 0.120503 0.148982 0.181714 0.218927 0.260813 0.307533 0.359206 0.415918 0.477715 0.544606 0.616564 0.693524 0.775393 0.862040 0.953311 1.049022 1.148964 1.252911 1.360615 1.471813 1.586230 1.703580 1.823571 1.945905 2.070279 2.196394 2.323949 2.452647 2.582197 2.712315 2.842724 2.973156 3.103353 3.233070 3.362073 3.490138 3.617058 3.742636 3.866689 3.989047 4.109556 4.228072 4.344466 4.458617 4.570413 4.679734 4.786452 4.890419 4.991463 5.089387 5.183965 5.274946 5.362051 5.444985 5.523434 5.597078 5.665592 5.728652 5.785945 5.837173 5.882058 5.920357 5.951865 5.976436 5.993985 6.004498 6.008037 6.004742 5.994827 5.978578 5.956350 5.928556 5.895665 5.858185 5.816660 5.771661 5.723771 5.673583 5.621687 5.568663 5.515079 5.461476 5.408372 5.356252 5.305564 5.256720 5.210094 5.166015 5.124774 5.086618 5.051755 5.020350 4.992533 4.968395 4.947991 4.931346 4.918451 4.909273 4.903750 4.901799 4.903316 4.908181 4.916255 4.927389 4.941423 4.958186 4.977504 4.999195 5.023077 5.048965 5.076673 5.106021 5.136827 5.168914 5.202112 5.236254 5.271180 5.306737 5.342779 5.379166 5.415767 5.452453 5.489090 5.525532 5.561615 5.597149 5.631916 5.665668 5.698128 5.728992 5.757931 5.784599 5.808637 5.829678 5.847357 5.861312 5.871196 5.876681 5.877471 5.873312 5.864005 5.849415 5.829480 5.804212 5.773699 5.738109 5.697677 5.652711 5.603574 5.550685 5.494505 5.435531 5.374283 5.311300 5.247127 5.182307 5.117378 5.052862 4.989259 4.927044 4.866662 4.808524 4.753005 4.700440 4.651127 4.605323 4.563244 4.525067 4.490930 4.460935 4.435148 4.413599 4.396289 4.383189 4.374244 4.369372 4.368471 4.371419 4.378078 4.388295 4.401902 4.418725 4.438580 4.461276 4.486620 4.514416 4.544465 4.576572 4.610541 4.646181 4.683303 4.721725 4.761269 4.801766 4.843050 4.884965 4.927363 4.970101 5.013037 5.056026 5.098907 5.141500 5.183599 5.224970 5.265349 5.304442 5.341931 5.377474 5.410712 5.441274 5.468786 5.492873 5.513169 5.529322 5.541001 5.547910 5.549800 5.546476 5.537812 5.523753 5.504321 5.479617 5.449814 5.415161 5.375970 5.332615 5.285518 5.235145 5.181995 5.126589 5.069466 5.011168 4.952237 4.893204 4.834587 4.776879 4.720549 4.666033 4.613735 4.564021 4.517219 4.473618 4.433466 4.396971 4.364304 4.335595 4.310938 4.290393 4.273986 4.261711 4.253535 4.249398 4.249215 4.252881 4.260272 4.271248 4.285654 4.303322 4.324078 4.347737 4.374110 4.403004 4.434223 4.467573 4.502858 4.539885 4.578465 4.618414 4.659549 4.701698 4.744693 4.788373 4.832584 4.877181 4.922023 4.966971 5.011878 5.056582 5.100899 5.144620 5.187505 5.229287 5.269669 5.308327 5.344918 5.379082 5.410447 5.438641 5.463291 5.484035 5.500523 5.512430 5.519451 5.521315 5.517781 5.508647 5.493746 5.472951 5.446177 5.413377 5.374545 5.329713 5.278949 5.222359 5.160079 5.092277 5.019150 4.940918 4.857824 4.770131 4.678118 4.582078 4.482314 4.379138 4.272866 4.163819 4.052316 3.938678 3.823220 3.706253 3.588081 3.468999 3.349294 3.229243 3.109108 2.989144 2.869590 2.750672 2.632603 2.515582 2.399795 2.285422 2.172611 2.061508 1.952243 1.844935 1.739688 1.636597 1.535743 1.437197 1.341018 1.247256 1.155951 1.067134 0.980828 0.897048 0.815800 0.737086 0.660899 0.587228 0.516057 0.447370 0.381158 0.317424 0.256194 0.197518 0.141475 0.088175 0.037757 -0.009609 -0.053731 -0.094393 -0.131366 -0.164408 -0.193273 -0.217718 -0.237503 -0.252401 -0.262203 -0.266717 -0.265779 -0.259247 -0.247013 -0.228995 -0.205148 -0.175454 -0.139930 -0.098625 -0.051617 0.000986 0.059048 0.122407 0.190879 0.264257 0.342315 0.424811 0.511488 0.602078 0.696302 0.793877 0.894511 0.997905 1.103771 1.211818 1.321756 1.433299 1.546167 1.660087 1.774793 1.890030 2.005551 2.121121 2.236515 2.351520 2.465934 2.579569 2.692247 2.803804 2.914092 3.022968 3.130300 3.235966 3.339846 3.441816 3.541738 3.639458 3.734799 3.827562 3.917524 4.004439 4.088041 4.168051 4.244175 4.316118 4.383580 4.446268 4.503900 4.556210 4.602958 4.643938 4.678993 4.708018 4.730971 4.747877 4.758824 4.763971 4.763539 4.757809 4.747115 4.731840 4.712405 4.689264 4.662892 4.633783 4.602435 4.569351 4.535024 4.499937 4.464556 4.429324 4.394657 4.360945 4.328544 4.297777 4.268932 4.242264 4.217990 4.196294 4.177325 4.161199 4.148001 4.137785 4.130578 4.126380 4.125167 4.126893 4.131493 4.138883 4.148961 4.161613 4.176721 4.194153 4.213768 4.235419 4.258957 4.284227 4.311076 4.339348 4.368891 4.399554 4.431189 4.463651 4.496801 4.530504 4.564632 4.599069 4.633693 4.668392 4.703057 4.737575 4.771823 4.805662 4.838928 4.871436 4.902972 4.933296 4.962146 4.989238 5.014272 5.036936 5.056913 5.073884 5.087538 5.097572 5.103703 5.105673 5.103261 5.096298 5.084666 5.068312 5.047249 5.021556 4.991381 4.956931 4.918477 4.876338 4.830882 4.782513 4.731666 4.678799 4.624382 4.568894 4.512812 4.456607 4.400735 4.345635 4.291725 4.239393 4.189000 4.140875 4.095313 4.052573 4.012883 3.976431 3.943374 3.913833 3.887898 3.865627 3.847049 3.832163 3.820946 3.813350 3.809304 3.808720 3.811492 3.817494 3.826595 3.838654 3.853517 3.871025 3.891012 3.913308 3.937742 3.964143 3.992338 4.022158 4.053435 4.086006 4.119709 4.154392 4.189905 4.226105 4.262863 4.300042 4.337516 4.375162 4.412852 4.450447 4.487789 4.524698 4.560971 4.596374 4.630654 4.663530 4.694705 4.723864 4.750684 4.774837 4.795996 4.813840 4.828062 4.838376 4.844529 4.846309 4.843558 4.836176 4.824128 4.807448 4.786235 4.760654 4.730930 4.697346 4.660234 4.619967 4.576953 4.531629 4.484446 4.435870 4.386367 4.336403 4.286432 4.236894 4.188210 4.140776 4.094961 4.051103 4.009511 3.970457 3.934182 3.900890 3.870754 3.843910 3.820464 3.800490 3.784031 3.771103 3.761696 3.755776 3.753286 3.754151 3.758275 3.765550 3.775844 3.789029 3.804961 3.823489 3.844454 3.867692 3.893039 3.920327 3.949389 3.980058 4.012171 4.045565 4.080085 4.115576 4.151892 4.188890 4.226434 4.264395 4.302650 4.341079 4.379558 4.417957 4.456128 4.493902 4.531088 4.567467 4.602795 4.636803 4.669202 4.699685 4.727933 4.753621 4.776421 4.796012 4.812081 4.824330 4.832480 4.836278 4.835495 4.829935 4.819432 4.803854 4.783106 4.757124 4.725884 4.689391 4.647687 4.600844 4.548966 4.492183 4.430651 4.364550 4.294082 4.219466 4.140937 4.058744 3.973146 3.884412 3.792816 3.698636 3.602151 3.503642 3.403387 3.301659 3.198728 3.094857 2.990301 2.885306 2.780111 2.674941 2.570012 2.465531 2.361689 2.258668 2.156637 2.055753 1.956165 1.858006 1.761394 1.666438 1.573236 1.481878 1.392439 1.304989 1.219583 1.136271 1.055092 0.976079 0.899255 0.824637 0.752235 0.682053 0.614089 0.548336 0.484781 0.423410 0.364210 0.307181 0.252340 0.199730 0.149428 0.101544 0.056226 0.013657 -0.025945 -0.062335 -0.095245 -0.124386 -0.149460 -0.170165 -0.186200 -0.197274 -0.203110 -0.203451 -0.198065 -0.186749 -0.169332 -0.145678 -0.115687 -0.079297 -0.036484 0.012737 0.068318 0.130169 0.198172 0.272171 0.351985 0.437403 0.528188 0.624084 0.724813 0.830083 0.939586 1.053005 1.170013 1.290281 1.413472 1.539246 1.667276 1.797233 1.928789 2.061628 2.195439 2.329920 2.464782 2.599746 2.734547 2.868929 3.002654 3.135495 3.267240 3.397691 3.526665 3.653996 3.779526 3.903108 4.024609 4.143892 4.260814 4.375217 4.486920 4.595716 4.701372 4.803624 4.902185 4.996746 5.086977 5.172541 5.253092 5.328286 5.397786 5.461267 5.518428 5.569001 5.612764 5.649552 5.679269 5.701889 5.717467 5.726136 5.728105 5.723657 5.713142 5.696971 5.675607 5.649555 5.619355 5.585569 5.548778 5.509565 5.468513 5.426196 5.383172 5.339975 5.297112 5.255060 5.214261 5.175117 5.137993 5.103213 5.071058 5.041772 5.015554 4.992568 4.972936 4.956746 4.944052 4.934876 4.929209 4.927015 4.928235 4.932785 4.940564 4.951449 4.965304 4.981988 5.001344 5.023206 5.047403 5.073759 5.102096 5.132236 5.163998 5.197206 5.231687 5.267268 5.303785 5.341077 5.378991 5.417380 5.456108 5.495039 5.534043 5.572992 5.611751 5.650169 5.688071 5.725256 5.761494 5.796520 5.830044 5.861747 5.891287 5.918306 5.942435 5.963301 5.980532 5.993765 6.002655 6.006877 6.006146 6.000225 5.988937 5.972175 5.949906 5.922174 5.889106 5.850900 5.807831 5.760238 5.708519 5.653122 5.594536 5.533282 5.469901 5.404951 5.338991 5.272578 5.206257 5.140554 5.075975 5.012994 4.952054 4.893563 4.837889 4.785361 4.736269 4.690858 4.649336 4.611868 4.578581 4.549565 4.524872 4.504524 4.488508 4.476784 4.469284 4.465918 4.466572 4.471115 4.479394 4.491248 4.506508 4.524990 4.546502 4.570850 4.597832 4.627248 4.658895 4.692573 4.728083 4.765231 4.803826 4.843683 4.884623 4.926474 4.969075 5.012268 5.055901 5.099827 5.143903 5.187972 5.231863 5.275382 5.318307 5.360384 5.401332 5.440839 5.478568 5.514162 5.547247 5.577441 5.604359 5.627620 5.646853 5.661706 5.671852 5.677006 5.676932 5.671459 5.660487 5.643989 5.622020 5.594713 5.562278 5.524996 5.483213 5.437331 5.387804 5.335122 5.279807 5.222401 5.163457 5.103533 5.043180 4.982936 4.923324 4.864837 4.807945 4.753080 4.700641 4.650988 4.604440 4.561276 4.521735 4.486014 4.454271 4.426625 4.403157 4.383914 4.368910 4.358127 4.351520 4.349017 4.350523 4.355921 4.365077 4.377835 4.394039 4.413512 4.436072 4.461528 4.489684 4.520341 4.553299 4.588357 4.625316 4.663981 4.704159 4.745662 4.788308 4.831921 4.876332 4.921379 4.966908 5.012773 5.058831 5.104937 5.150935 5.196651 5.241887 5.286416 5.329982 5.372298 5.413048 5.451893 5.488473 5.522414 5.553335 5.580852 5.604587 5.624174 5.639264 5.649531 5.654678 5.654438 5.648579 5.636909 5.619273 5.595559 5.565695 5.529650 5.487432 5.439091 5.384711 5.324414 5.258352 5.186711 5.109700 5.027556 4.940536 4.848918 4.752991 4.653062 4.549443 4.442458 4.332432 4.219693 4.104570 3.987389 3.868470 3.748131 3.626678 3.504413 3.381623 3.258587 3.135571 3.012828 2.890599 2.769111 2.648575 2.529191 2.411142 2.294604 2.179731 2.066662 1.955525 1.846438 1.739502 1.634808 1.532436 1.432454 1.334918 1.239875 1.147364 1.057411 0.970037 0.885253 0.803065 0.723471 0.646461 0.572022 0.500137 0.430791 0.363979 0.299712 0.238023 0.178972 0.122651 0.069180 0.018709 -0.028583 -0.072495 -0.112807 -0.149284 -0.181685 -0.209763 -0.233279 -0.251998 -0.265701 -0.274186 -0.277273 -0.274809 -0.266665 -0.252745 -0.232983 -0.207345 -0.175830 -0.138467 -0.095318 -0.046475 0.007941 0.067784 0.132882 0.203039 0.278040 0.357652 0.441625 0.529697 0.621594 0.717035 0.815732 0.917392 1.021717 1.128413 1.237191 1.347763 1.459845 1.573157 1.687430 1.802401 1.917817 2.033436 2.149026 2.264365 2.379246 2.493470 2.606854 2.719224 2.830420 2.940303 3.048726 3.155564 3.260697 3.364002 3.465351 3.564599 3.661583 3.756118 3.847994 3.936977 4.022814 4.105232 4.183945 4.258658 4.329073 4.394891 4.455824 4.511594 4.561946 4.606654 4.645533 4.678452 4.705337 4.726176 4.741026 4.750012 4.753322 4.751206 4.743973 4.731979 4.715625 4.695347 4.671608 4.644889 4.615685 4.584492 4.551806 4.518113 4.483882 4.449564 4.415586 4.382349 4.350219 4.319535 4.290600 4.263681 4.239013 4.216793 4.197186 4.180322 4.166302 4.155192 4.147034 4.141839 4.139595 4.140268 4.143801 4.150122 4.159139 4.170741 4.184816 4.201241 4.219878 4.240587 4.263220 4.287627 4.313656 4.341155 4.369971 4.399955 4.430957 4.462835 4.495447 4.528660 4.562342 4.596373 4.630638 4.665020 4.699409 4.733698 4.767768 4.801488 4.834705 4.867243 4.898900 4.929448 4.958633 4.986179 5.011792 5.035166 5.055984 5.073929 5.088685 5.099946 5.107418 5.110829 5.109935 5.104534 5.094471 5.079649 5.060036 5.035664 5.006634 4.973113 4.935331 4.893576 4.848188 4.799551 4.748087 4.694246 4.638500 4.581331 4.523229 4.464681 4.406163 4.348141 4.291058 4.235333 4.181359 4.129498 4.080076 4.033389 3.989693 3.949213 3.912133 3.878604 3.848745 3.822637 3.800332 3.781853 3.767194 3.756322 3.749183 3.745699 3.745774 3.749295 3.756126 3.766134 3.779168 3.795069 3.813670 3.834797 3.858278 3.883933 3.911586 3.941060 3.972179 4.004772 4.038670 4.073709 4.109731 4.146584 4.184125 4.222215 4.260716 4.299502 4.338447 4.377421 4.416283 4.454874 4.493012 4.530492 4.567081 4.602524 4.636540 4.668829 4.699079 4.726965 4.752158 4.774332 4.793166 4.808352 4.819598 4.826636 4.829229 4.827179 4.820339 4.808621 4.791998 4.770512 4.744274 4.713458 4.678305 4.639113 4.596231 4.550056 4.501018 4.449581 4.396225 4.341445 4.285740 4.229606 4.173532 4.117990 4.063431 4.010283 3.958944 3.909782 3.863129 3.819282 3.778504 3.741017 3.707009 3.676631 3.649999 3.627196 3.608269 3.593240 3.582097 3.574805 3.571305 3.571514 3.575328 3.582624 3.593276 3.607136 3.624048 3.643844 3.666352 3.691394 3.718788 3.748352 3.779901 3.813254 3.848229 3.884650 3.922343 3.961139 4.000877 4.041399 4.082555 4.124202 4.166205 4.208433 4.250761 4.293059 4.335188 4.376992 4.418295 4.458896 4.498570 4.537064 4.574103 4.609394 4.642626 4.673477 4.701621 4.726731 4.748487 4.766579 4.780713 4.790617 4.796042 4.796768 4.792604 4.783394 4.769013 4.749375 4.724425 4.694145 4.658552 4.617694 4.571651 4.520534 4.464480 4.403651 4.338235 4.268437 4.194482 4.116609 4.035071 3.950130 3.862058 3.771131 3.677628 3.581831 3.484021 3.384476 3.283470 3.181273 3.078146 2.974346 2.870116 2.765695 2.661306 2.557165 2.453475 2.350429 2.248204 2.146976 2.046894 1.948100 1.850727 1.754893 1.660707 1.568266 1.477658 1.388956 1.302229 1.217531 1.134912 1.054409 0.976053 0.899867 0.825868 0.754065 0.684461 0.617054 0.551835 0.488794 0.427915 0.369188 0.312615 0.258219 0.206046 0.156178 0.108729 0.063852 0.021731 -0.017416 -0.053346 -0.085791 -0.114468 -0.139087 -0.159352 -0.174970 -0.185661 -0.191159 -0.191217 -0.185614 -0.174160 -0.156695 -0.133092 -0.103264 -0.067156 -0.024753 0.023923 0.078815 0.139832 0.206848 0.279708 0.358226 0.442191 0.531369 0.625503 0.724320 0.827529 0.934829 1.045907 1.160440 1.278104 1.398576 1.521527 1.646634 1.773572 1.902026 2.031687 2.162251 2.293428 2.424936 2.556505 2.687877 2.818807 2.949062 3.078426 3.206693 3.333679 3.459198 3.583089 3.705201 3.825396 3.943542 4.059507 4.173147 4.284304 4.392795 4.498414 4.600926 4.700069 4.795557 4.887085 4.974328 5.056953 5.134624 5.207005 5.273767 5.334599 5.389209 5.437341 5.478784 5.513383 5.541051 5.561771 5.575604 5.582686 5.583231 5.577521 5.565906 5.548794 5.526644 5.499954 5.469257 5.435108 5.398077 5.358739 5.317665 5.275420 5.232549 5.189576 5.146998 5.105281 5.064855 5.026114 4.989413 4.955068 4.923352 4.894501 4.868708 4.846129 4.826884 4.811055 4.798692 4.789813 4.784407 4.782437 4.783841 4.788528 4.796403 4.807347 4.821227 4.837895 4.857196 4.878967 4.903037 4.929233 4.957379 4.987296 5.018809 5.051743 5.085926 5.121189 5.157370 5.194310 5.231864 5.269882 5.308224 5.346759 5.385363 5.423909 5.462265 5.500281 5.537787 5.574587 5.610453 5.645130 5.678331 5.709746 5.739040 5.765865 5.789859 5.810658 5.827900 5.841229 5.850308 5.854820 5.854483 5.849061 5.838377 5.822318 5.800845 5.773995 5.741883 5.704697 5.662699 5.616216 5.565632 5.511382 5.453944 5.393826 5.331560 5.267690 5.202770 5.137345 5.071955 5.007121 4.943342 4.881089 4.820801 4.762885 4.707709 4.655600 4.606847 4.561700 4.520365 4.483012 4.449769 4.420729 4.395948 4.375450 4.359228 4.347244 4.339436 4.335715 4.335968 4.340071 4.347881 4.359240 4.373979 4.391916 4.412865 4.436634 4.463024 4.491839 4.522878 4.555943 4.590838 4.627371 4.665354 4.704602 4.744939 4.786194 4.828209 4.870825 4.913891 4.957264 5.000802 5.044356 5.087762 5.130834 5.173360 5.215100 5.255783 5.295111 5.332759 5.368382 5.401617 5.432093 5.459435 5.483268 5.503229 5.518969 5.530164 5.536526 5.537816 5.533852 5.524522 5.509787 5.489684 5.464328 5.433910 5.398689 5.358993 5.315205 5.267757 5.217122 5.163805 5.108331 5.051240 4.993076 4.934378 4.875676 4.817483 4.760288 4.704553 4.650709 4.599153 4.550242 4.504297 4.461599 4.422389 4.386867 4.355195 4.327497 4.303859 4.284335 4.268943 4.257674 4.250487 4.247318 4.248079 4.252660 4.260930 4.272746 4.287953 4.306384 4.327861 4.352199 4.379207 4.408693 4.440462 4.474316 4.510062 4.547509 4.586466 4.626751 4.668184 4.710592 4.753808 4.797675 4.842039 4.886757 4.931690 4.976696 5.021626 5.066315 5.110574 5.154189 5.196913 5.238474 5.278569 5.316871 5.353032 5.386689 5.417471 5.445005 5.468918 5.488852 5.504461 5.515423 5.521442 5.522250 5.517615 5.507342 5.491271 5.469286 5.441306 5.407296 5.367255 5.321223 5.269277 5.211528 5.148120 5.079226 5.005047 4.925810 4.841761 4.753168 4.660311 4.563487 4.463000 4.359163 4.252293 4.142712 4.030740 3.916695 3.800892 3.683642 3.565246 3.445998 3.326184 3.206076 3.085937 2.966018 2.846554 2.727770 2.609877 2.493070 2.377532 2.263439 2.150941 2.040178 1.931277 1.824356 1.719516 1.616849 1.516434 1.418340 1.322624 1.229335 1.138509 1.050178 0.964361 0.881072 0.800316 0.722093 0.646396 0.573213 0.502527 0.434326 0.368605 0.305377 0.244677 0.186567 0.131138 0.078513 0.028844 -0.017689 -0.060885 -0.100520 -0.136361 -0.168163 -0.195680 -0.218669 -0.236896 -0.250140 -0.258199 -0.260891 -0.258061 -0.249581 -0.235353 -0.215309 -0.189416 -0.157670 -0.120101 -0.076770 -0.027768 0.026787 0.086748 0.151942 0.222177 0.297237 0.376889 0.460885 0.548964 0.640852 0.736268 0.834925 0.936531 1.040788 1.147404 1.256090 1.366557 1.478523 1.591709 1.705845 1.820670 1.935931 2.051385 2.166802 2.281961 2.396653 2.510683 2.623865 2.736028 2.847011 2.956675 3.064875 3.171485 3.276386 3.379456 3.480566 3.579573 3.676313 3.770601 3.862228 3.950961 4.036547 4.118712 4.197172 4.271632 4.341792 4.407357 4.468036 4.523553 4.573651 4.618101 4.656718 4.689363 4.715956 4.736480 4.750987 4.759592 4.762481 4.759897 4.752145 4.739579 4.722597 4.701635 4.677156 4.649644 4.619594 4.587508 4.553886 4.519217 4.483977 4.448625 4.413592 4.379285 4.346080 4.314319 4.284313 4.256335 4.230626 4.207390 4.186795 4.168978 4.154042 4.142060 4.133074 4.127100 4.124128 4.124125 4.127038 4.132793 4.141301 4.152449 4.166128 4.182210 4.200561 4.221036 4.243487 4.267764 4.293711 4.321175 4.350000 4.380036 4.411131 4.443139 4.475918 4.509331 4.543244 4.577531 4.612082 4.646772 4.681494 4.716137 4.750585 4.784709 4.818361 4.851369 4.883536 4.914637 4.944425 4.972626 4.998950 5.023092 5.044738 5.063568 5.079266 5.091525 5.100047 5.104558 5.104814 5.100615 5.091809 5.078305 5.060076 5.037161 5.009667 4.977766 4.941692 4.901734 4.858234 4.811573 4.762170 4.710470 4.656936 4.602043 4.546270 4.490092 4.433975 4.378369 4.323705 4.270388 4.218798 4.169283 4.122156 4.077701 4.036163 3.997753 3.962649 3.930992 3.902890 3.878421 3.857631 3.840536 3.827127 3.817370 3.811208 3.808563 3.809339 3.813425 3.820687 3.830992 3.844195 3.860139 3.878662 3.899596 3.922771 3.948015 3.975157 4.004025 4.034450 4.066267 4.099312 4.133428 4.168462 4.204269 4.240708 4.277652 4.314965 4.352524 4.390206 4.427877 4.465393 4.502586 4.539268 4.575223 4.610211 4.643965 4.676199 4.706607 4.734871 4.760664 4.783659 4.803531 4.819963 4.832653 4.841322 4.845719 4.845637 4.840920 4.831468 4.817249 4.798294 4.774707 4.746652 4.714361 4.678119 4.638267 4.595185 4.549292 4.501033 4.450876 4.399297 4.346778 4.293800 4.240832 4.188330 4.136730 4.086443 4.037853 3.991312 3.947141 3.905625 3.867016 3.831528 3.799341 3.770601 3.745418 3.723871 3.706007 3.691845 3.681375 3.674565 3.671355 3.671668 3.675408 3.682460 3.692688 3.705962 3.722131 3.741037 3.762514 3.786394 3.812502 3.840666 3.870710 3.902460 3.935745 3.970396 4.006247 4.043140 4.080919 4.119435 4.158545 4.198114 4.238013 4.278117 4.318302 4.358439 4.398386 4.437980 4.477038 4.515350 4.552681 4.588771 4.623337 4.656078 4.686680 4.714818 4.740164 4.762395 4.781192 4.796252 4.807288 4.814035 4.816257 4.813743 4.806315 4.793830 4.776176 4.753278 4.725097 4.691627 4.652896 4.608965 4.559926 4.505899 4.447031 4.383493 4.315479 4.243203 4.166893 4.086795 4.003164 3.916266 3.826374 3.733764 3.638717 3.541513 3.442432 3.341750 3.239738 3.136664 3.032784 2.928352 2.823606 2.718780 2.614094 2.509758 2.405970 2.302916 2.200770 2.099696 1.999849 1.901362 1.804360 1.708958 1.615260 1.523358 1.433333 1.345258 1.259194 1.175193 1.093300 1.013549 0.935967 0.860575 0.787386 0.716405 0.647635 0.581068 0.516697 0.454506 0.394483 0.336620 0.280927 0.227437 0.176212 0.127350 0.080983 0.037282 -0.003550 -0.041278 -0.075641 -0.106357 -0.133133 -0.155665 -0.173652 -0.186798 -0.194818 -0.197448 -0.194443 -0.185590 -0.170704 -0.149634 -0.122265 -0.088521 -0.048361 -0.001785 0.051173 0.110439 0.175906 0.247434 0.324852 0.407959 0.496531 0.590317 0.689050 0.792440 0.900189 1.011980 1.127493 1.246398 1.368356 1.493036 1.620105 1.749232 1.880090 2.012356 2.145719 2.279871 2.414521 2.549383 2.684187 2.818674 2.952600 3.085731 3.217851 3.348756 3.478256 3.606183 3.732369 3.856666 3.978935 4.099042 4.216849 4.332204 4.444936 4.554849 4.661719 4.765296 4.865301 4.961434 5.053372 5.140780 5.223316 5.300633 5.372391 5.438259 5.497925 5.551103 5.597542 5.637046 5.669476 5.694765 5.712918 5.724023 5.728243 5.725819 5.717064 5.702357 5.682133 5.656878 5.627119 5.593411 5.556333 5.516475 5.474430 5.430786 5.386121 5.340992 5.295934 5.251449 5.208009 5.166048 5.125962 5.088106 5.052793 5.020295 4.990842 4.964624 4.941790 4.922452 4.906687 4.894535 4.886007 4.881083 4.879716 4.881836 4.887350 4.896141 4.908085 4.923041 4.940855 4.961362 4.984391 5.009763 5.037300 5.066816 5.098128 5.131054 5.165412 5.201026 5.237723 5.275334 5.313698 5.352660 5.392077 5.431801 5.471699 5.511640 5.551495 5.591124 5.630370 5.669053 5.706964 5.743864 5.779485 5.813527 5.845667 5.875559 5.902841 5.927142 5.948090 5.965312 5.978450 5.987162 5.991135 5.990099 5.983840 5.972207 5.955120 5.932579 5.904660 5.871517 5.833380 5.790547 5.743379 5.692289 5.637739 5.580226 5.520274 5.458423 5.395225 5.331231 5.266985 5.203016 5.139834 5.077924 5.017739 4.959701 4.904194 4.851563 4.802116 4.756118 4.713795 4.675332 4.640876 4.610535 4.584381 4.562454 4.544760 4.531273 4.521944 4.516696 4.515431 4.518030 4.524349 4.534246 4.547557 4.564106 4.583712 4.606186 4.631333 4.658959 4.688864 4.720853 4.754729 4.790301 4.827380 4.865781 4.905328 4.945847 4.987173 5.029157 5.071640 5.114479 5.157531 5.200647 5.243665 5.286402 5.328649 5.370165 5.410683 5.449901 5.487495 5.523114 5.556391 5.586948 5.614399 5.638362 5.658462 5.674337 5.685648 5.692089 5.693400 5.689376 5.679880 5.664850 5.644299 5.618321 5.587090 5.550850 5.509918 5.464671 5.415540 5.363000 5.307561 5.249760 5.190149 5.129288 5.067737 5.006045 4.944748 4.884358 4.825363 4.768217 4.713340 4.661115 4.611886 4.565956 4.523584 4.484993 4.450361 4.419827 4.393495 4.371427 4.353656 4.340179 4.330964 4.325952 4.325059 4.328177 4.335180 4.345919 4.360238 4.377970 4.398931 4.422933 4.449779 4.479271 4.511206 4.545381 4.581594 4.619645 4.659337 4.700478 4.742880 4.786362 4.830748 4.875872 4.921573 4.967700 5.014107 5.060649 5.107179 5.153531 5.199524 5.244946 5.289559 5.333094 5.375250 5.415703 5.454103 5.490085 5.523269 5.553273 5.579714 5.602219 5.620427 5.633998 5.642616 5.645996 5.643885 5.636066 5.622363 5.602637 5.576791 5.544771 5.506562 5.462189 5.411715 5.355239 5.292897 5.224854 5.151306 5.072474 4.988602 4.899957 4.806822 4.709493 4.608279 4.503499 4.395475 4.284536 4.171010 4.055225 3.937505 3.818169 3.697531 3.575895 3.453557 3.330803 3.207905 3.085125 2.962710 2.840897 2.719905 2.599942 2.481201 2.363863 2.248096 2.134044 2.021844 1.911621 1.803485 1.697533 1.593853 1.492518 1.393593 1.297130 1.203173 1.111754 1.022900 0.936626 0.852942 0.771849 0.693344 0.617415 0.544047 0.473223 0.404935 0.339186 0.276004 0.215444 0.157594 0.102578 0.050555 0.001716 -0.043716 -0.085496 -0.123357 -0.157020 -0.186197 -0.210602 -0.229956 -0.243988 -0.252448 -0.255108 -0.251766 -0.242250 -0.226422 -0.204178 -0.175450 -0.140207 -0.098456 -0.050239 0.004366 0.065246 0.132258 0.205227 0.283952 0.368205 0.457737 0.552279 0.651544 0.755232 0.863031 0.974621 1.089674 1.207859 1.328837 1.452283 1.577869 1.705272 1.834171 1.964256 2.095225 2.226787 2.358660 2.490575 2.622275 2.753517 2.884071 3.013720 3.142262 3.269507 3.395284 3.519435 3.641805 3.762257 3.880656 3.996864 4.110729 4.222081 4.330725 4.436441 4.538981 4.638070 4.733412 4.824689 4.911573 4.993724 5.070805 5.142479 5.208421 5.268325 5.321908 5.368925 5.409181 5.442539 5.468930 5.488360 5.500911 5.506741 5.506084 5.499243 5.486587 5.468539 5.445573 5.418200 5.386962 5.352423 5.315158 5.275744 5.234754 5.192752 5.150281 5.107861 5.065982 5.025105 4.985651 4.948008 4.912520 4.879494 4.849193 4.821843 4.797627 4.776693 4.759148 4.745066 4.734488 4.727423 4.723852 4.723730 4.726986 4.733532 4.743257 4.756029 4.771716 4.790169 4.811227 4.834722 4.860482 4.888330 4.918086 4.949573 4.982612 5.017027 5.052645 5.089297 5.126820 5.165055 5.203852 5.243073 5.282574 5.322224 5.361897 5.401466 5.440794 5.479730 5.518096 5.555691 5.592281 5.627605 5.661370 5.693261 5.722941 5.750057 5.774249 5.795150 5.812400 5.825649 5.834560 5.838826 5.838177 5.832392 5.821313 5.804849 5.782983 5.755777 5.723366 5.685962 5.643846 5.597362 5.546909 5.492934 5.435921 5.376385 5.314859 5.251888 5.188019 5.123793 5.059742 4.996374 4.934179 4.873614 4.815105 4.759043 4.705781 4.655633 4.608872 4.565732 4.526408 4.491053 4.459785 4.432684 4.409795 4.391133 4.376680 4.366392 4.360199 4.358007 4.359702 4.365148 4.374200 4.386701 4.402479 4.421355 4.443140 4.467642 4.494668 4.524019 4.555500 4.588914 4.624070 4.660777 4.698852 4.738114 4.778391 4.819517 4.861339 4.903700 4.946453 4.989459 5.032573 5.075642 5.118495 5.160938 5.202747 5.243671 5.283427 5.321708 5.358180 5.392490 5.424273 5.453153 5.478757 5.500713 5.518663 5.532266 5.541209 5.545219 5.544073 5.537612 5.525743 5.508451 5.485797 5.457919 5.425029 5.387410 5.345407 5.299421 5.249900 5.197331 5.142228 5.085125 5.026568 4.967104 4.907276 4.847612 4.788622 4.730794 4.674584 4.620417 4.568681 4.519728 4.473870 4.431377 4.392482 4.357375 4.326209 4.299097 4.276118 4.257314 4.242697 4.232247 4.225916 4.223632 4.225300 4.230803 4.240002 4.252751 4.268890 4.288245 4.310636 4.335874 4.363765 4.394112 4.426718 4.461386 4.497920 4.536125 4.575812 4.616797 4.658901 4.701949 4.745776 4.790222 4.835137 4.880376 4.925800 4.971265 5.016619 5.061691 5.106288 5.150187 5.193139 5.234861 5.275047 5.313364 5.349462 5.382974 5.413529 5.440751 5.464273 5.483736 5.498800 5.509147 5.514487 5.514558 5.509137 5.498033 5.481098 5.458221 5.429331 5.394399 5.353435 5.306484 5.253632 5.194995 5.130724 5.060998 4.986025 4.906034 4.821276 4.732023 4.638558 4.541179 4.440193 4.335914 4.228662 4.118755 4.006516 3.892262 3.776307 3.658960 3.540521 3.421283 3.301529 3.181530 3.061546 2.941825 2.822600 2.704094 2.586513 2.470053 2.354894 2.241207 2.129138 2.018826 1.910398 1.803965 1.699630 1.597480 1.497593 1.400036 1.304863 1.212122 1.121847 1.034068 0.948803 0.866064 0.785856 0.708177 0.633019 0.560368 0.490206 0.422517 0.357293 0.294543 0.234299 0.176626 0.121623 0.069424 0.020201 -0.025842 -0.068472 -0.107428 -0.142432 -0.173194 -0.199417 -0.220807 -0.237075 -0.247947 -0.253167 -0.252505 -0.245756 -0.232749 -0.213347 -0.187447 -0.154986 -0.115936 -0.070310 -0.018155 0.040442 0.105365 0.176460 0.253545 0.336412 0.424824 0.518523 0.617234 0.720660 0.828494 0.940416 1.056098 1.175206 1.297395 1.422333 1.549684 1.679114 1.810291 1.942894 2.076606 2.211122 2.346147 2.481397 2.616599 2.751495 2.885840 3.019402 3.151962 3.283318 3.413283 3.541686 3.668358 3.793152 3.915930 4.036553 4.154881 4.270754 4.383995 4.494402 4.601742 4.705757 4.806163 4.902651 4.994896 5.082558 5.165290 5.242747 5.314588 5.380483 5.440123 5.493230 5.539565 5.578944 5.611249 5.636432 5.654522 5.665627 5.669933 5.667702 5.659264 5.645013 5.625399 5.600916 5.572098 5.539503 5.503711 5.465308 5.424882 5.383014 5.340271 5.297198 5.254317 5.212117 5.171053 5.131544 5.093970 5.058670 5.025941 4.996039 4.969180 4.945540 4.925254 4.908422 4.895108 4.885344 4.879130 4.876438 4.877215 4.881383 4.888846 4.899479 4.913160 4.929743 4.949073 4.970986 4.995310 5.021868 5.050480 5.080966 5.113145 5.146836 5.181863 5.218051 5.255232 5.293241 5.331921 5.371125 5.410709 5.450531 5.490462 5.530374 5.570135 5.609599 5.648603 5.686957 5.724440 5.760802 5.795764 5.829015 5.860224 5.889038 5.915091 5.938013 5.957428 5.972972 5.984289 5.991046 5.992942 5.989718 5.981174 5.967172 5.947651 5.922623 5.892183 5.856501 5.815823 5.770463 5.720797 5.667253 5.610307 5.550467 5.488269 5.424265 5.359015 5.293077 5.227003 5.161328 5.096566 5.033205 4.971702 4.912477 4.855917 4.802367 4.752131 4.705474 4.662619 4.623747 4.589001 4.558486 4.532269 4.510385 4.492832 4.479584 4.470582 4.465745 4.464969 4.468128 4.475075 4.485661 4.499716 4.517061 4.537508 4.560863 4.586927 4.615499 4.646379 4.679364 4.714255 4.750856 4.788974 4.828424 4.869022 4.910595 4.952979 4.996013 5.039542 5.083419 5.127499 5.171632 5.215656 5.259384 5.302607 5.345085 5.386546 5.426692 5.465194 5.501703 5.535851 5.567260 5.595543 5.620320 5.641213 5.657861 5.669928 5.677109 5.679148 5.675846 5.667075 5.652777 5.632976 5.607773 5.577348 5.541953 5.501911 5.457602 5.409460 5.357961 5.303617 5.246963 5.188549 5.128930 5.068663 5.008291 4.948343 4.889327 4.831720 4.775972 4.722495 4.671664 4.623815 4.579243 4.538204 4.500911 4.467537 4.438216 4.413046 4.392086 4.375364 4.362874 4.354581 4.350424 4.350317 4.354151 4.361798 4.373109 4.387933 4.406098 4.427425 4.451724 4.478803 4.508463 4.540504 4.574726 4.610930 4.648917 4.688494 4.729471 4.771663 4.814893 4.858987 4.903782 4.949120 4.994852 5.040835 5.086924 5.132971 5.178807 5.224247 5.269075 5.313046 5.355885 5.397289 5.436926 5.474444 5.509475 5.541639 5.570553 5.595835 5.617114 5.634034 5.646258 5.653478 5.655413 5.651819 5.642486 5.627244 5.605965 5.578560 5.544981 5.505221 5.459315 5.407331 5.349378 5.285596 5.216157 5.141261 5.061135 4.976029 4.886211 4.791966 4.693596 4.591411 4.485729 4.376876 4.265179 4.150967 4.034566 3.916301 3.796489 3.675442 3.553463 3.430846 3.307873 3.184815 3.061931 2.939466 2.817653 2.696709 2.576839 2.458233 2.341069 2.225512 2.111703 1.999777 1.889855 1.782045 1.676443 1.573132 1.472185 1.373663 1.277617 1.184087 1.093107 1.004698 0.918877 0.835649 0.755017 0.676974 0.601507 0.528602 0.458242 0.390420 0.325144 0.262447 0.202389 0.145066 0.090610 0.039184 -0.009012 -0.053753 -0.094786 -0.131844 -0.164643 -0.192897 -0.216321 -0.234635 -0.247575 -0.254894 -0.256368 -0.251801 -0.241029 -0.223919 -0.200376 -0.170337 -0.133782 -0.090722 -0.041208 0.014675 0.076808 0.145041 0.219194 0.299060 0.384406 0.474980 0.570509 0.670702 0.775257 0.883860 0.996189 1.111915 1.230707 1.352225 1.476147 1.602144 1.729893 1.859076 1.989383 2.120516 2.252184 2.384108 2.516022 2.647672 2.778816 2.909227 3.038692 3.167010 3.293996 3.419483 3.543309 3.665327 3.785399 3.903391 4.019162 4.132558 4.243403 4.351499 4.456619 4.558509 4.656890 4.751462 4.841904 4.927885 5.009066 5.085107 5.155675 5.220449 5.279126 5.331431 5.377133 5.416052 5.448070 5.473140 5.491291 5.502626 5.507327 5.505649 5.497913 5.484504 5.465860 5.442464 5.414835 5.383519 5.349080 5.312090 5.273124 5.232747 5.191513 5.149954 5.108578 5.067863 5.028253 4.990156 4.953944 4.919945 4.888451 4.859712 4.833937 4.811298 4.791927 4.775922 4.763345 4.754226 4.748566 4.746337 4.747488 4.751943 4.759606 4.770361 4.784079 4.800624 4.819843 4.841576 4.865655 4.891907 4.920159 4.950232 4.981950 5.015138 5.049622 5.085233 5.121806 5.159181 5.197204 5.235727 5.274618 5.313737 5.352955 5.392148 5.431187 5.469931 5.508219 5.545865 5.582656 5.618347 5.652665 5.685308 5.715952 5.744252 5.769852 5.792389 5.811499 5.826825 5.838019 5.844756 5.846737 5.843704 5.835448 5.821827 5.802762 5.778255 5.748380 5.713291 5.673215 5.628448 5.579348 5.526328 5.469848 5.410406 5.348526 5.284751 5.219636 5.153734 5.087594 5.021752 4.956723 4.892996 4.831033 4.771260 4.714069 4.659812 4.608800 4.561306 4.517561 4.477755 4.442039 4.410526 4.383290 4.360374 4.341784 4.327500 4.317471 4.311621 4.309850 4.312041 4.318050 4.327727 4.340910 4.357421 4.377075 4.399681 4.425041 4.452955 4.483223 4.515643 4.550016 4.586146 4.623840 4.662910 4.703173 4.744455 4.786585 4.829411 4.872770 4.916515 4.960504 5.004593 5.048625 5.092428 5.135808 5.178539 5.220369 5.261016 5.300170 5.337498 5.372646 5.405249 5.434931 5.461317 5.484038 5.502733 5.517066 5.526731 5.531463 5.531058 5.525374 5.514342 5.497967 5.476334 5.449603 5.418004 5.381837 5.341458 5.297278 5.249750 5.199361 5.146621 5.092058 5.036208 4.979604 4.922772 4.866223 4.810448 4.755912 4.703050 4.652265 4.603923 4.558352 4.515844 4.476648 4.440977 4.409003 4.380862 4.356652 4.336437 4.320248 4.308085 4.299921 4.295700 4.295345 4.298755 4.305812 4.316374 4.330298 4.347425 4.367583 4.390594 4.416274 4.444434 4.474884 4.507432 4.541889 4.578065 4.615774 4.654835 4.695071 4.736311 4.778389 4.821149 4.864438 4.908114 4.952038 4.996072 5.040071 5.083875 5.127301 5.170141 5.212158 5.253083 5.292621 5.330449 5.366225 5.399588 5.430169 5.457594 5.481491 5.501497 5.517265 5.528466 5.534799 5.535991 5.531802 5.522027 5.506502 5.485100 5.457733 5.424356 5.384963 5.339583 5.288288 5.231180 5.168397 5.100106 5.026503 4.947809 4.864266 4.776138 4.683703 4.587252 4.487091 4.383529 4.276884 4.167474 4.055622 3.941644 3.825858 3.708574 3.590095 3.470718 3.350728 3.230401 3.110001 2.989782 2.869982 2.750827 2.632531 2.515293 2.399297 2.284719 2.171718 2.060433 1.950994 1.843520 1.738116 1.634875 1.533879 1.435199 1.338893 1.245011 1.153594 1.064672 0.978268 0.894396 0.813063 0.734270 0.658010 0.584272 0.513040 0.444291 0.378008 0.314178 0.252810 0.193933 0.137611 0.083940 0.033055 -0.014877 -0.059650 -0.101031 -0.138762 -0.172565 -0.202151 -0.227223 -0.247486 -0.262652 -0.272448 -0.276617 -0.274928 -0.267178 -0.253195 -0.232840 -0.206013 -0.172648 -0.132718 -0.086235 -0.033247 0.026161 0.091872 0.163734 0.241565 0.325155 0.414270 0.508653 0.608026 0.712096 0.820554 0.933081 1.049349 1.169024 1.291763 1.417234 1.545101 1.675028 1.806688 1.939756 2.073917 2.208867 2.344310 2.479963 2.615553 2.750822 2.885525 3.019431 3.152322 3.283995 3.414266 3.542958 3.669907 3.794965 3.917994 4.038857 4.157411 4.273499 4.386944 4.497543 4.605064 4.709250 4.809815 4.906453 4.998837 5.086628 5.169481 5.247048 5.318990 5.384977 5.444702 5.497883 5.544286 5.583725 5.616081 5.641309 5.659436 5.670572 5.674902 5.672688 5.664261 5.650016 5.630402 5.605914 5.577085 5.544476 5.508663 5.470235 5.429781 5.387880 5.345100 5.301988 5.259063 5.216816 5.175703 5.136142 5.098513 5.063156 5.030367 5.000404 4.973482 4.949776 4.929424 4.912524 4.899142 4.889307 4.883022 4.880259 4.880963 4.885059 4.892445 4.903004 4.916611 4.933120 4.952377 4.974216 4.998466 5.024951 5.053491 5.083905 5.116012 5.149632 5.184587 5.220706 5.257817 5.295758 5.334371 5.373507 5.413026 5.452783 5.492650 5.532500 5.572199 5.611603 5.650547 5.688842 5.726268 5.762574 5.797480 5.830678 5.861834 5.890596 5.916600 5.939471 5.958839 5.974335 5.985607 5.992320 5.994172 5.990906 5.982320 5.968279 5.948718 5.923652 5.893175 5.857458 5.816745 5.771351 5.721652 5.668077 5.611100 5.551230 5.489003 5.424971 5.359694 5.293730 5.227630 5.161931 5.097145 5.033761 4.972235 4.912990 4.856409 4.802839 4.752584 4.705908 4.663035 4.624146 4.589383 4.558852 4.532620 4.510721 4.493154 4.479892 4.470876 4.466027 4.465239 4.468386 4.475322 4.485897 4.499942 4.517277 4.537714 4.561059 4.587115 4.615679 4.646550 4.679527 4.714411 4.751005 4.789116 4.828559 4.869151 4.910718 4.953101 4.996130 5.039653 5.083524 5.127600 5.171728 5.215747 5.259471 5.302690 5.345164 5.386621 5.426763 5.465261 5.501767 5.535912 5.567318 5.595599 5.620372 5.641262 5.657909 5.669973 5.677152 5.679188 5.675885 5.667111 5.652812 5.633009 5.607804 5.577377 5.541982 5.501938 5.457627 5.409483 5.357984 5.303639 5.246984 5.188568 5.128949 5.068680 5.008307 4.948359 4.889341 4.831734 4.775985 4.722507 4.671676 4.623826 4.579254 4.538214 4.500920 4.467546 4.438225 4.413054 4.392094 4.375371 4.362881 4.354587 4.350430 4.350322 4.354156 4.361798 4.373109 4.387933 4.406098 4.427425 4.451724 4.478803 4.508463 4.540504 4.574726 4.610930 4.648917 4.688494 4.729471 4.771663 4.814893 4.858987 4.903782 4.949120 4.994852 5.040835 5.086924 5.132971 5.178807 5.224247 5.269075 5.313046 5.355885 5.397289 5.436926 5.474444 5.509475 5.541639 5.570553 5.595835 5.617114 5.634034 5.646258 5.653478 5.655413 5.651819 5.642486 5.627244 5.605965 5.578560 5.544981 5.505221 5.459315 5.407331 5.349378 5.285596 5.216157 5.141261 5.061135 4.976029 4.886211 4.791966 4.693596 4.591411 4.485729 4.376876 4.265179 4.150967 4.034566 3.916301 3.796489 3.675442 3.553463 3.430846 3.307873 3.184815 3.061931 2.939466 2.817653 2.696709 2.576839 2.458233 2.341069 2.225512 2.111703 1.999777 1.889855 1.782045 1.676443 1.573132 1.472185 1.373663 1.277617 1.184087 1.093107 1.004698 0.918877 0.835649 0.755017 0.676974 0.601507 0.528603 0.458245 0.390426 0.325155 0.262460 0.202398 0.145052 0.090539 0.039003 -0.009383 -0.054421 -0.095894 -0.133571 -0.167209 -0.196565 -0.221395 -0.241464 -0.256550 -0.266446 -0.270969 -0.269959 -0.263283 -0.250838 -0.232553 -0.208386 -0.178331 -0.142411 -0.100681 -0.053228 -0.000167 0.058360 0.122187 0.191121 0.264951 0.343448 0.426364 0.513440 0.604403 0.698974 0.796864 0.897784 1.001436 1.107520 1.215752 1.325841 1.437502 1.550454 1.664425 1.779152 1.894379 2.009861 2.125364 2.240666 2.355554 2.469829 2.583303 2.695803 2.807163 2.917240 3.025891 3.132986 3.238403 3.342022 3.443714 3.543340 3.640741 3.735734 3.828115 3.917656 4.004105 4.087195 4.166642 4.242150 4.313423 4.380162 4.442075 4.498882 4.550322 4.596162 4.636210 4.670322 4.698411 4.720454 4.736494 4.746641 4.751071 4.750022 4.743792 4.732728 4.717223 4.697705 4.674633 4.648485 4.619754 4.588937 4.556529 4.523018 4.488878 4.454564 4.420508 4.387114 4.354759 4.323786 4.294503 4.267188 4.242078 4.219381 4.199267 4.181874 4.167307 4.155639 4.146917 4.141159 4.138356 4.138478 4.141474 4.147273 4.155788 4.166913 4.180532 4.196526 4.214761 4.235095 4.257384 4.281476 4.307222 4.334466 4.363058 4.392847 4.423684 4.455425 4.487927 4.521056 4.554680 4.588674 4.622926 4.657317 4.691738 4.726079 4.760226 4.794050 4.827403 4.860114 4.891986 4.922796 4.952295 4.980211 5.006255 5.030121 5.051494 5.070058 5.085494 5.097495 5.105765 5.110031 5.110052 5.105631 5.096622 5.082940 5.064565 5.041542 5.013984 4.982068 4.946035 4.906177 4.862837 4.816401 4.767287 4.715938 4.662818 4.608397 4.553150 4.497549 4.442055 4.387110 4.333141 4.280547 4.229699 4.180939 4.134575 4.090882 4.050101 4.012437 3.978061 3.947109 3.919685 3.895862 3.875681 3.859158 3.846278 3.837007 3.831283 3.829030 3.830149 3.834528 3.842035 3.852535 3.865884 3.881925 3.900498 3.921437 3.944573 3.969736 3.996755 4.025462 4.055690 4.087275 4.120056 4.153878 4.188592 4.224052 4.260120 4.296674 4.333579 4.370711 4.407948 4.445155 4.482183 4.518862 4.554997 4.590370 4.624733 4.657817 4.689330 4.718966 4.746403 4.771314 4.793371 4.812251 4.827640 4.839239 4.846774 4.850002 4.848725 4.842797 4.832132 4.816710 4.796576 4.771846 4.742699 4.709376 4.672176 4.631445 4.587573 4.540984 4.492130 4.441478 4.389508 4.336701 4.283537 4.230481 4.177986 4.126483 4.076378 4.028049 3.981840 3.938067 3.897007 3.858905 3.823967 3.792368 3.764243 3.739699 3.718807 3.701608 3.688116 3.678315 3.672167 3.669609 3.670561 3.674920 3.682571 3.693376 3.707199 3.723889 3.743286 3.765224 3.789533 3.816040 3.844568 3.874945 3.906996 3.940551 3.975440 4.011500 4.048572 4.086502 4.125143 4.164352 4.203995 4.243945 4.284077 4.324267 4.364384 4.404281 4.443792 4.482729 4.520876 4.557993 4.593816 4.628057 4.660412 4.690565 4.718190 4.742959 4.764548 4.782643 4.796943 4.807165 4.813050 4.814364 4.810906 4.802503 4.789017 4.770346 4.746421 4.717209 4.682711 4.642962 4.598030 4.548011 4.493031 4.433244 4.368823 4.299968 4.226895 4.149837 4.069040 3.984763 3.897272 3.806843 3.713751 3.618278 3.520704 3.421308 3.320366 3.218148 