10.503949 10.436094 10.369578 10.304394 10.240535 10.177993 10.116762 10.056835 9.998203 9.940860 9.884799 9.830012 9.776492 9.724232 9.673225 9.623464 9.574941 9.527649 9.481581 9.436729 9.393088 9.350648 9.309403 9.269347 9.230471 9.192768 9.156232 9.120854 9.086629 9.053548 9.021604 8.990791 8.961100 8.932525 8.905059 8.878694 8.853423 8.829240 8.806135 8.784104 8.763137 8.743229 8.724371 8.706557 8.689780 8.674031 8.659305 8.645593 8.632889 8.621186 8.610475 8.600751 8.592005 8.584231 8.577421 8.571568 8.566665 8.562705 8.559680 8.557583 8.556408 8.556146 8.556791 8.558335 8.560771 8.564093 8.568292 8.573362 8.579295 8.586084 8.593723 8.602202 8.611517 8.621659 8.632620 8.644395 8.656975 8.670354 8.684524 8.699478 8.715209 8.731709 8.748972 8.766990 8.785756 8.805263 8.825503 8.846470 8.868156 8.890553 8.913656 8.937455 8.961945 8.987119 9.012968 9.039485 9.066665 9.094498 9.122978 9.152098 9.181851 9.212229 9.243225 9.274833 9.307044 9.339851 9.373248 9.407227 9.441781 9.476901 9.512572 9.548777 9.585499 9.622719 9.660421 9.698588 9.737203 9.776247 9.815703 9.855555 9.895786 9.936376 9.977311 10.018571 10.060140 10.102001 10.144136 10.186528 10.229159 10.272013 10.315072 10.358319 10.401735 10.445306 10.489011 10.532836 10.576761 10.620771 10.664847 10.708972 10.753129 10.797302 10.841471 10.885620 10.929733 10.973791 11.017777 11.061673 11.105464 11.149130 11.192656 11.236023 11.279215 11.322214 11.365003 11.407564 11.449880 11.491934 11.533708 11.575186 11.616350 11.657182 11.697666 11.737784 11.777519 11.816853 11.855769 11.894250 11.932280 11.969849 12.006951 12.043582 12.079734 12.115401 12.150578 12.185259 12.219438 12.253109 12.286265 12.318902 12.351012 12.382591 12.413631 12.444127 12.474074 12.503465 12.532294 12.560555 12.588242 12.615350 12.641872 12.667803 12.693136 12.717875 12.742023 12.765584 12.788563 12.810963 12.832791 12.854049 12.874742 12.894874 12.914450 12.933474 12.951951 12.969884 12.987278 13.004138 13.020467 13.036270 13.051551 13.066315 13.080566 13.094309 13.107547 13.120285 13.132527 13.144278 13.155541 13.166322 13.176625 13.186453 13.195812 13.204705 13.213137 13.221113 13.228635 13.235710 13.242341 13.248533 13.254289 13.259614 13.264513 13.268990 13.273049 13.276695 13.279931 13.282762 13.285193 13.287228 13.288871 13.290126 13.290998 13.291491 13.291610 13.291358 13.290740 13.289761 13.288424 13.286735 13.284697 13.282315 13.279592 13.276534 13.273145 13.269429 13.265390 13.261033 13.256362 13.251381 13.246095 13.240507 13.234623 13.228447 13.221983 13.215235 13.208207 13.200905 13.193332 13.185492 13.177390 13.169031 13.160418 13.151556 13.142450 13.133102 13.123519 13.113704 13.103662 13.093396 13.082911 13.072213 13.061303 13.050189 13.038872 13.027359 13.015652 13.003757 12.991678 12.979419 12.966985 12.954379 12.941606 12.928671 12.915578 12.902330 12.888933 12.875391 12.861708 12.847887 12.833931 12.819841 12.805619 12.791268 12.776787 12.762181 12.747450 12.732596 12.717621 12.702526 12.687315 12.671988 12.656548 12.640995 12.625333 12.609562 12.593686 12.577704 12.561620 12.545435 12.529151 12.512770 12.496293 12.479723 12.463061 12.446309 12.429469 12.412543 12.395533 12.378439 12.361265 12.344012 12.326682 12.309277 12.291798 12.274247 12.256627 12.238939 12.221184 12.203365 12.185484 12.167542 12.149541 12.131483 12.113370 12.095203 12.076985 12.058717 12.040401 12.022039 12.003633 11.985185 11.966695 11.948167 11.929603 11.911002 11.892369 11.873704 11.855010 11.836288 11.817539 11.798767 11.779972 11.761157 11.742323 11.723472 11.704606 11.685727 11.666836 11.647936 11.629028 11.610114 11.591197 11.572276 11.553356 11.534437 11.515521 11.496610 11.477706 11.458811 11.439926 11.421054 11.402195 11.383353 11.364529 11.345724 11.326941 11.308181 11.289446 11.270738 11.252059 11.233411 11.214795 11.196213 11.177667 11.159160 11.140692 11.122265 11.103882 11.085544 11.067253 11.049009 11.030812 11.012662 10.994560 10.976504 10.958496 10.940535 10.922622 10.904756 10.886937 10.869166 10.851442 10.833766 10.816138 10.798557 10.781025 10.763540 10.746102 10.728713 10.711372 10.694078 10.676833 10.659636 10.642487 10.625386 10.608333 10.591329 10.574373 10.557465 10.540606 10.523795 10.507032 10.490319 10.473654 10.457037 10.440469 10.423950 10.407480 10.391059 10.374686 10.358363 10.342088 10.325863 10.309687 10.293559 10.277481 10.261453 10.245473 10.229543 10.213662 10.197831 10.182049 10.166317 10.150634 10.135001 10.119417 10.103883 10.088399 10.072965 10.057581 10.042246 10.026962 10.011727 9.996543 9.981409 9.966324 9.951290 9.936307 9.921373 9.906490 9.891658 9.876875 9.862143 9.847462 9.832832 9.818252 9.803722 9.789243 9.774816 9.760439 9.746112 9.731837 9.717613 9.703440 9.689317 9.675246 9.661226 9.647257 9.633340 9.619474 9.605659 9.591895 9.578183 9.564523 9.550914 9.537356 9.523851 9.510397 9.496994 9.483644 9.470345 9.457098 9.443903 9.430760 9.417669 9.404630 9.391643 9.378709 9.365826 9.352996 9.340218 9.327493 9.314820 9.302199 9.289631 9.277116 9.264653 9.252242 9.239885 9.227580 9.215327 9.203128 9.190982 9.178888 9.166848 9.154860 9.142926 9.131045 9.119216 9.107442 9.095720 9.084052 9.072437 9.060875 9.049367 9.037912 9.026511 9.015164 9.003870 8.992630 8.981444 8.970311 8.959233 8.948208 8.937237 8.926320 8.915457 8.904649 8.893894 8.883193 8.872547 8.861955 8.851418 8.840934 8.830505 8.820131 8.809811 8.799546 8.789335 8.779179 8.769078 8.759031 8.749039 8.739103 8.729221 8.719393 8.709621 8.699904 8.690242 8.680635 8.671084 8.661587 8.652146 8.642760 8.633430 8.624155 8.614936 8.605772 8.596663 8.587610 8.578613 8.569672 8.560786 8.551956 8.543182 8.534464 8.525802 8.517196 8.508646 8.500152 8.491714 8.483332 8.475007 8.466737 8.458525 8.450368 8.442268 8.434225 8.426238 8.418307 8.410433 8.402616 8.394856 8.387152 8.379505 8.371915 8.364382 8.356906 8.349487 8.342125 8.334820 8.327573 8.320382 8.313249 8.306173 8.299154 8.292193 8.285289 8.278442 8.271654 8.264922 8.258249 8.251633 8.245075 8.238574 8.232132 8.225747 8.219420 8.213151 8.206940 8.200788 8.194693 8.188656 8.182678 8.176758 8.170896 8.165093 8.159348 8.153661 8.148033 8.142464 8.136953 8.131501 8.126107 8.120772 8.115496 8.110279 8.105120 8.100021 8.094981 8.089999 8.085077 8.080213 8.075409 8.070664 8.065979 8.061353 8.056786 8.052278 8.047830 8.043441 8.039112 8.034843 8.030633 8.026483 8.022393 8.018362 8.014391 8.010480 8.006630 8.002839 7.999108 7.995437 7.991826 7.988276 7.984785 7.981355 7.977986 7.974676 7.971427 7.968239 7.965111 7.962043 7.959037 7.956091 7.953205 7.950380 7.947616 7.944913 7.942271 7.939690 7.937170 7.934711 7.932312 7.929975 7.927700 7.925485 7.923332 7.921240 7.919209 7.917240 7.915332 7.913486 7.911701 7.909978 7.908317 7.906717 7.905179 7.903703 7.902289 7.900937 7.899646 7.898418 7.897252 7.896147 7.895105 7.894125 7.893208 7.892352 7.891559 7.890828 7.890160 7.889554 7.889011 7.888530 7.888112 7.887757 7.887464 7.887234 7.887067 7.886963 7.886921 7.886943 7.887028 7.887175 7.887386 7.887660 7.887997 7.888397 7.888861 7.889388 7.889978 7.890632 7.891349 7.892130 7.892974 7.893882 7.894854 7.895890 7.896989 7.898152 7.899379 7.900669 7.902024 7.903443 7.904926 7.906473 7.908084 7.909759 7.911498 7.913302 7.915170 7.917103 7.919100 7.921161 7.923287 7.925478 7.927733 7.930053 7.932438 7.934887 7.937402 7.939981 7.942625 7.945331 7.948095 7.950910 7.953769 7.956667 7.959597 7.962554 7.965530 7.968522 7.971527 7.974542 7.977565 7.980595 7.983628 7.986664 7.989699 7.992732 7.995760 7.998782 8.001794 8.004795 8.007783 8.010756 8.013711 8.016646 8.019559 8.022449 8.025312 8.028146 8.030950 8.033721 8.036457 8.039156 8.041816 8.044434 8.047009 8.049538 8.052018 8.054449 8.056827 8.059151 8.061417 8.063625 8.065771 8.067854 8.069872 8.071822 8.073702 8.075511 8.077246 8.078905 8.080486 8.081987 8.083406 8.084741 8.085990 8.087150 8.088220 8.089198 8.090081 8.090867 8.091555 8.092142 8.092626 8.093006 8.093278 8.093442 8.093494 8.093433 8.093257 8.092963 8.092550 8.092016 8.091358 8.090574 8.089663 8.088622 8.087449 8.086142 8.084699 8.083118 8.081397 8.079534 8.077526 8.075372 8.073070 8.070617 8.068011 8.065251 8.062334 8.059258 8.056021 8.052621 8.049056 8.045324 8.041423 8.037351 8.033106 8.028688 8.024099 8.019339 8.014408 8.009306 8.004034 7.998593 7.992983 7.987203 7.981256 7.975141 7.968858 7.962408 7.955792 7.949010 7.942063 7.934950 7.927672 7.920230 7.912625 7.904855 7.896923 7.888829 7.880572 7.872154 7.863575 7.854835 7.845934 7.836874 7.827654 7.818276 7.808738 7.799043 7.789190 7.779180 7.769014 7.758690 7.748211 7.737577 7.726788 7.715844 7.704746 7.693494 7.682089 7.670532 7.658822 7.646960 7.634947 7.622782 7.610468 7.598003 7.585388 7.572624 7.559712 7.546651 7.533442 7.520086 7.506582 7.492932 7.479136 7.465195 7.451108 7.436876 7.422500 7.407980 7.393317 7.378510 7.363561 7.348470 7.333237 7.317863 7.302348 7.286693 7.270897 7.254963 7.238889 7.222676 7.206326 7.189838 7.173212 7.156450 7.139551 7.122516 7.105346 7.088041 7.070601 7.053027 7.035319 7.017478 6.999504 6.981398 6.963160 6.944790 6.926289 6.907657 6.888896 6.870004 6.850984 6.831834 6.812556 6.793150 6.773616 6.753956 6.734168 6.714255 6.694216 6.674051 6.653762 6.633348 6.612810 6.592149 6.571364 6.550457 6.529428 6.508276 6.487004 6.465610 6.444097 6.422463 6.400709 6.378837 6.356845 6.334736 6.312509 6.290164 6.267703 6.245125 6.222430 6.199621 6.176696 6.153657 6.130503 6.107235 6.083855 6.060361 6.036754 6.013036 5.989206 5.965265 5.941213 5.917051 5.892779 5.868398 5.843908 5.819309 5.794602 5.769788 5.744866 5.719838 5.694704 5.669463 5.644117 5.618667 5.593111 5.567452 5.541689 5.515823 5.489854 5.463783 5.437610 5.411335 5.384960 5.358484 5.331907 5.305232 5.278457 5.251583 5.224611 5.197541 5.170374 5.143109 5.115749 5.088292 5.060739 5.033091 5.005348 4.977512 4.949581 4.921556 4.893439 4.865229 4.836927 4.808533 4.780049 4.751473 4.722807 4.694051 4.665205 4.636271 4.607248 4.578137 4.548938 4.519652 4.490279 4.460820 4.431274 4.401644 4.371928 4.342128 4.312243 4.282275 4.252224 4.222089 4.191873 4.161574 4.131194 4.100733 4.070191 4.039569 4.008867 3.978086 3.947227 3.916289 3.885272 3.854179 3.823008 3.791761 3.760437 3.729038 3.697563 3.666014 3.634390 3.602692 3.570921 3.539076 3.507159 3.475170 3.443109 3.410977 3.378773 3.346500 3.314156 3.281743 3.249261 3.216710 3.184091 3.151404 3.118649 3.085828 3.052941 3.019987 2.986968 2.953884 2.920735 2.887521 2.854244 2.820904 2.787501 2.754035 2.720507 2.686918 2.653268 2.619557 2.585785 2.551954 2.518063 2.484114 2.450106 2.416040 2.381916 2.347736 2.313498 2.279205 2.244855 2.210450 2.175990 2.141476 2.106908 2.072286 2.037611 2.002883 1.968102 1.933270 1.898387 1.863453 1.828468 1.793433 1.758348 1.723215 1.688032 1.652801 1.617523 1.582197 1.546824 1.511404 1.475939 1.440427 1.404871 1.369270 1.333624 1.297935 1.262202 1.226426 1.190608 1.154747 1.118845 1.082902 1.046918 1.010893 0.974829 0.938725 0.902582 0.866401 0.830182 0.793925 0.757630 0.721299 0.684932 0.648528 0.612089 0.575616 0.539107 0.502565 0.465988 0.429379 0.392736 0.356062 0.319357 0.282622 0.245858 0.209069 0.172253 0.135414 0.098552 0.061669 0.024766 -0.012155 -0.049093 -0.086047 -0.123015 -0.159996 -0.196989 -0.233992 -0.271003 -0.308021 -0.345046 -0.382075 -0.419107 -0.456141 -0.493175 -0.530208 -0.567239 -0.604265 -0.641287 -0.678302 -0.715309 -0.752307 -0.789293 -0.826268 -0.863229 -0.900175 -0.937105 -0.974017 -1.010910 -1.047782 -1.084632 -1.121459 -1.158262 -1.195038 -1.231787 -1.268507 -1.305197 -1.341855 -1.378480 -1.415070 -1.451625 -1.488142 -1.524621 -1.561060 -1.597458 -1.633813 -1.670123 -1.706388 -1.742606 -1.778776 -1.814896 -1.850965 -1.886981 -1.922944 -1.958851 -1.994701 -2.030494 -2.066226 -2.101887 -2.137465 -2.172946 -2.208315 -2.243559 -2.278665 -2.313618 -2.348405 -2.383012 -2.417426 -2.451633 -2.485619 -2.519370 -2.552873 -2.586114 -2.619079 -2.651755 -2.684127 -2.716183 -2.747908 -2.779289 -2.810312 -2.840964 -2.871230 -2.901097 -2.930551 -2.959579 -2.988166 -3.016300 -3.043966 -3.071151 -3.097841 -3.124022 -3.149681 -3.174803 -3.199376 -3.223386 -3.246818 -3.269659 -3.291896 -3.313514 -3.334500 -3.354840 -3.374521 -3.393537 -3.411912 -3.429675 -3.446857 -3.463489 -3.479601 -3.495222 -3.510384 -3.525116 -3.539449 -3.553413 -3.567039 -3.580356 -3.593396 -3.606187 -3.618761 -3.631149 -3.643379 -3.655483 -3.667490 -3.679432 -3.691335 -3.703210 -3.715059 -3.726884 -3.738686 -3.750467 -3.762228 -3.773973 -3.785702 -3.797417 -3.809120 -3.820812 -3.832497 -3.844174 -3.855847 -3.867517 -3.879185 -3.890854 -3.902525 -3.914200 -3.925881 -3.937569 -3.949267 -3.960976 -3.972698 -3.984435 -3.996188 -4.007959 -4.019751 -4.031564 -4.043401 -4.055264 -4.067154 -4.079072 -4.091022 -4.103004 -4.115020 -4.127073 -4.139163 -4.151293 -4.163465 -4.175680 -4.187940 -4.200246 -4.212602 -4.225007 -4.237465 -4.249977 -4.262545 -4.275170 -4.287854 -4.300600 -4.313408 -4.326281 -4.339221 -4.352228 -4.365306 -4.378455 -4.391678 -4.404977 -4.418352 -4.431807 -4.445342 -4.458960 -4.472662 -4.486450 -4.500325 -4.514291 -4.528348 -4.542498 -4.556743 -4.571084 -4.585525 -4.600065 -4.614708 -4.629454 -4.644305 -4.659261 -4.674323 -4.689491 -4.704766 -4.720149 -4.735641 -4.751242 -4.766953 -4.782774 -4.798707 -4.814751 -4.830909 -4.847179 -4.863563 -4.880063 -4.896677 -4.913408 -4.930255 -4.947219 -4.964302 -4.981503 -4.998824 -5.016265 -5.033827 -5.051510 -5.069316 -5.087244 -5.105295 -5.123471 -5.141772 -5.160199 -5.178751 -5.197431 -5.216238 -5.235173 -5.254238 -5.273432 -5.292756 -5.312212 -5.331799 -5.351519 -5.371371 -5.391358 -5.411478 -5.431734 -5.452126 -5.472654 -5.493319 -5.514122 -5.535064 -5.556145 -5.577365 -5.598727 -5.620229 -5.641874 -5.663661 -5.685591 -5.707665 -5.729884 -5.752248 -5.774759 -5.797416 -5.820220 -5.843172 -5.866273 -5.889524 -5.912925 -5.936476 -5.960179 -5.984034 -6.008042 -6.032203 -6.056519 -6.080989 -6.105615 -6.130397 -6.155336 -6.180433 -6.205688 -6.231102 -6.256676 -6.282409 -6.308304 -6.334361 -6.360580 -6.386962 -6.413508 -6.440218 -6.467093 -6.494134 -6.521342 -6.548716 -6.576259 -6.603970 -6.631850 -6.659900 -6.688120 -6.716512 -6.745076 -6.773812 -6.802722 -6.831804 -6.861058 -6.890484 -6.920079 -6.949844 -6.979776 -7.009876 -7.040141 -7.070571 -7.101166 -7.131923 -7.162842 -7.193922 -7.225162 -7.256561 -7.288118 -7.319832 -7.351702 -7.383726 -7.415905 -7.448236 -7.480719 -7.513353 -7.546137 -7.579070 -7.612151 -7.645378 -7.678752 -7.712270 -7.745932 -7.779737 -7.813684 -7.847771 -7.881998 -7.916364 -7.950868 -7.985509 -8.020285 -8.055197 -8.090242 -8.125419 -8.160729 -8.196169 -8.231739 -8.267438 -8.303264 -8.339210 -8.375266 -8.411419 -8.447657 -8.483970 -8.520346 -8.556772 -8.593238 -8.629732 -8.666242 -8.702756 -8.739264 -8.775752 -8.812211 -8.848628 -8.884991 -8.921289 -8.957510 -8.993644 -9.029677 -9.065599 -9.101398 -9.137062 -9.172580 -9.207940 -9.243131 -9.278141 -9.312957 -9.347570 -9.381967 -9.416136 -9.450066 -9.483746 -9.517163 -9.550306 -9.583164 -9.615724 -9.647976 -9.679908 -9.711507 -9.742764 -9.773665 -9.804199 -9.834355 -9.864121 -9.893485 -9.922437 -9.950963 -9.979054 -10.006696 -10.033879 -10.060590 -10.086819 -10.112554 -10.137782 -10.162493 -10.186675 -10.210316 -10.233405 -10.255929 -10.277879 -10.299240 -10.320004 -10.340156 -10.359687 -10.378584 -10.396836 -10.414431 -10.431358 -10.447605 -10.463160 -10.477972 -10.491513 -10.502932 -10.511374 -10.515985 -10.515908 -10.510289 -10.498273 -10.479004 -10.451627 -10.415286 -10.369128 -10.312296 -10.243935 -10.163190 -10.069205 -9.961127 -9.838099 -9.699266 -9.543773 -9.370764 -9.179385 -8.968781 -8.738096 -8.486474 -8.213061 -7.917002 -7.597441 -7.253523 -6.884393 -6.489195 -6.067075 -5.617177 -5.138646 -4.630627 -4.092265 -3.522703 -2.921088 -2.286564 -1.618276 -0.915368 -0.176986 0.597727 1.409616 2.257611 3.136356 4.039915 4.962349 5.897722 6.840094 7.783530 8.722090 9.649839 10.560837 11.449148 12.308834 13.133958 13.918581 14.656766 15.342576 15.970074 16.533321 17.026380 17.443313 17.778183 18.025053 18.177984 18.231040 18.178282 18.013773 17.731232 17.265498 16.503026 15.464582 14.187987 12.711059 11.071617 9.307479 7.456465 5.556392 3.645080 1.760347 -0.059987 -1.778105 -3.356187 -4.756414 -5.943152 -6.913032 -7.687324 -8.287917 -8.736703 -9.055571 -9.266413 -9.391120 -9.451581 -9.469687 -9.467329 -9.462043 -9.456851 -9.451751 -9.446745 -9.441831 -9.437008 -9.432277 -9.427635 -9.423084 -9.418623 -9.414250 -9.409966 -9.405770 -9.401661 -9.397639 -9.393703 -9.389853 -9.386088 -9.382408 -9.378812 -9.375300 -9.371870 -9.368524 -9.365259 -9.362076 -9.358973 -9.355951 -9.353009 -9.350147 -9.347363 -9.344657 -9.342029 -9.339479 -9.337005 -9.334607 -9.332285 -9.330038 -9.327865 -9.325767 -9.323742 -9.321789 -9.319910 -9.318102 -9.316365 -9.314700 -9.313104 -9.311579 -9.310122 -9.308734 -9.307415 -9.306163 -9.304978 -9.303859 -9.302807 -9.301820 -9.300898 -9.300040 -9.299247 -9.298516 -9.297849 -9.297244 -9.296700 -9.296218 -9.295796 -9.295434 -9.295132 -9.294890 -9.294705 -9.294579 -9.294510 -9.294498 -9.294543 -9.294643 -9.294799 -9.295009 -9.295274 -9.295593 -9.295964 -9.296389 -9.296865 -9.297393 -9.297973 -9.298602 -9.299282 -9.300011 -9.300789 -9.301616 -9.302490 -9.303412 -9.304380 -9.305395 -9.306456 -9.307561 -9.308712 -9.309906 -9.311144 -9.312426 -9.313749 -9.315115 -9.316522 -9.317970 -9.319459 -9.320987 -9.322555 -9.324161 -9.325806 -9.327489 -9.329208 -9.330965 -9.332757 -9.334585 -9.336448 -9.338346 -9.340278 -9.342243 -9.344241 -9.346271 -9.348333 -9.350427 -9.352551 -9.354706 -9.356890 -9.359104 -9.361346 -9.363617 -9.365915 -9.368240 -9.370591 -9.372969 -9.375372 -9.377799 -9.380252 -9.382728 -9.385227 -9.387750 -9.390294 -9.392860 -9.395448 -9.398056 -9.400684 -9.403332 -9.405999 -9.408684 -9.411387 -9.414108 -9.416846 -9.419600 -9.422370 -9.425155 -9.427955 -9.430770 -9.433598 -9.436439 -9.439293 -9.442159 -9.445036 -9.447925 -9.450824 -9.453733 -9.456652 -9.459579 -9.462515 -9.465459 -9.468410 -9.471368 -9.474332 -9.477301 -9.480276 -9.483256 -9.486240 -9.489227 -9.492217 -9.495210 -9.498205 -9.501201 -9.504199 -9.507196 -9.510194 -9.513190 -9.516186 -9.519179 -9.522171 -9.525160 -9.528145 -9.531126 -9.534103 -9.537075 -9.540042 -9.543002 -9.545956 -9.548903 -9.551842 -9.554773 -9.557696 -9.560609 -9.563512 -9.566405 -9.569288 -9.572159 -9.575018 -9.577864 -9.580698 -9.583518 -9.586324 -9.589117 -9.591898 -9.594667 -9.597425 -9.600174 -9.602914 -9.605647 -9.608372 -9.611092 -9.613806 -9.616517 -9.619224 -9.621930 -9.624634 -9.627337 -9.630041 -9.632747 -9.635455 -9.638167 -9.640883 -9.643604 -9.646331 -9.649066 -9.651808 -9.654560 -9.657321 -9.660093 -9.662877 -9.665674 -9.668484 -9.671308 -9.674148 -9.677005 -9.679879 -9.682771 -9.685682 -9.688613 -9.691566 -9.694540 -9.697537 -9.700558 -9.703604 -9.706676 -9.709774 -9.712899 -9.716054 -9.719237 -9.722451 -9.725696 -9.728973 -9.732284 -9.735628 -9.739008 -9.742423 -9.745875 -9.749365 -9.752894 -9.756462 -9.760070 -9.763721 -9.767413 -9.771149 -9.774930 -9.778755 -9.782627 -9.786545 -9.790512 -9.794527 -9.798593 -9.802709 -9.806876 -9.811097 -9.815371 -9.819699 -9.824082 -9.828522 -9.833019 -9.837573 -9.842187 -9.846860 -9.851594 -9.856389 -9.861247 -9.866168 -9.871153 -9.876203 -9.881319 -9.886503 -9.891753 -9.897073 -9.902462 -9.907921 -9.913452 -9.919055 -9.924731 -9.930481 -9.936307 -9.942207 -9.948185 -9.954240 -9.960373 -9.966586 -9.972879 -9.979254 -9.985710 -9.992249 -9.998872 -10.005580 -10.012373 -10.019253 -10.026221 -10.033276 -10.040421 -10.047656 -10.054981 -10.062399 -10.069909 -10.077513 -10.085212 -10.093006 -10.100896 -10.108883 -10.116969 -10.125153 -10.133438 -10.141823 -10.150310 -10.158899 -10.167592 -10.176389 -10.185292 -10.194300 -10.203416 -10.212639 -10.221972 -10.231414 -10.240966 -10.250630 -10.260407 -10.270297 -10.280301 -10.290419 -10.300654 -10.311006 -10.321476 -10.332064 -10.342771 -10.353599 -10.364549 -10.375620 -10.386815 -10.398133 -10.409577 -10.421146 -10.432842 -10.444665 -10.456617 -10.468698 -10.480909 -10.493252 -10.505681 -10.518080 -10.530441 -10.542763 -10.555047 -10.567292 -10.579499 -10.591668 -10.603799 -10.615892 -10.627946 -10.639963 -10.651941 -10.663882 -10.675785 -10.687650 -10.699478 -10.711267 -10.723020 -10.734734 -10.746412 -10.758051 -10.769654 -10.781219 -10.792747 -10.804238 -10.815691 -10.827108 -10.838487 -10.849830 -10.861135 -10.872404 -10.883636 -10.894832 -10.905990 -10.917112 -10.928198 -10.939247 -10.950260 -10.961236 -10.972176 -10.983080 -10.993947 -11.004779 -11.015574 -11.026333 -11.037056 -11.047744 -11.058395 -11.069011 -11.079591 -11.090136 -11.100645 -11.111118 -11.121556 -11.131958 -11.142325 -11.152657 -11.162953 -11.173214 -11.183440 -11.193631 -11.203787 -11.213908 -11.223994 -11.234045 -11.244062 -11.254043 -11.263990 -11.273903 -11.283781 -11.293624 -11.303433 -11.313207 -11.322947 -11.332653 -11.342325 -11.351963 -11.361566 -11.371135 -11.380671 -11.390172 -11.399640 -11.409074 -11.418474 -11.427840 -11.437173 -11.446472 -11.455738 -11.464970 -11.474169 -11.483335 -11.492467 -11.501566 -11.510632 -11.519665 -11.528664 -11.537631 -11.546565 -11.555466 -11.564334 -11.573169 -11.581972 -11.590742 -11.599480 -11.608185 -11.616857 -11.625497 -11.634105 -11.642680 -11.651224 -11.659735 -11.668214 -11.676660 -11.685075 -11.693458 -11.701809 -11.710129 -11.718416 -11.726672 -11.734896 -11.743089 -11.751250 -11.759379 -11.767477 -11.775544 -11.783580 -11.791584 -11.799557 -11.807499 -11.815410 -11.823290 -11.831139 -11.838957 -11.846744 -11.854501 -11.862226 -11.869921 -11.877586 -11.885220 -11.892823 -11.900396 -11.907939 -11.915451 -11.922934 -11.930386 -11.937807 -11.945199 -11.952561 -11.959893 -11.967195 -11.974467 -11.981709 -11.988921 -11.996104 -12.003258 -12.010381 -12.017476 -12.024540 -12.031576 -12.038582 -12.045559 -12.052507 -12.059425 -12.066315 -12.073175 -12.080007 -12.086809 -12.093583 -12.100328 -12.107044 -12.113731 -12.120390 -12.127021 -12.133623 -12.140196 -12.146741 -12.153258 -12.159746 -12.166206 -12.172639 -12.179043 -12.185419 -12.191767 -12.198087 -12.204379 -12.210643 -12.216880 -12.223089 -12.229270 -12.235424 -12.241551 -12.247649 -12.253721 -12.259765 -12.265782 -12.271772 -12.277734 -12.283669 -12.289578 -12.295459 -12.301314 -12.307141 -12.312942 -12.318716 -12.324463 -12.330184 -12.335878 -12.341546 -12.347187 -12.352802 -12.358390 -12.363952 -12.369488 -12.374998 -12.380482 -12.385939 -12.391371 -12.396776 -12.402156 -12.407510 -12.412838 -12.418141 -12.423418 -12.428669 -12.433895 -12.439095 -12.444270 -12.449419 -12.454544 -12.459643 -12.464717 -12.469765 -12.474789 -12.479788 -12.484761 -12.489710 -12.494634 -12.499533 -12.504408 -12.509258 -12.514083 -12.518884 -12.523660 -12.528412 -12.533139 -12.537843 -12.542522 -12.547176 -12.551807 -12.556414 -12.560996 -12.565555 -12.570089 -12.574600 -12.579087 -12.583551 -12.587991 -12.592407 -12.596799 -12.601168 -12.605514 -12.609836 -12.614135 -12.618411 -12.622664 -12.626893 -12.631099 -12.635283 -12.639443 -12.643580 -12.647695 -12.651787 -12.655856 -12.659902 -12.663926 -12.667928 -12.671906 -12.675863 -12.679797 -12.683708 -12.687598 -12.691465 -12.695310 -12.699133 -12.702934 -12.706713 -12.710470 -12.714205 -12.717918 -12.721610 -12.725280 -12.728928 -12.732555 -12.736160 -12.739744 -12.743307 -12.746848 -12.750368 -12.753866 -12.757344 -12.760800 -12.764235 -12.767650 -12.771043 -12.774416 -12.777768 -12.781099 -12.784409 -12.787699 -12.790968 -12.794217 -12.797445 -12.800653 -12.803840 -12.807007 -12.810154 -12.813281 -12.816388 -12.819474 -12.822541 -12.825588 -12.828615 -12.831622 -12.834609 -12.837576 -12.840524 -12.843453 -12.846362 -12.849251 -12.852121 -12.854972 -12.857803 -12.860615 -12.863408 -12.866182 -12.868937 -12.871672 -12.874389 -12.877087 -12.879766 -12.882427 -12.885068 -12.887691 -12.890296 -12.892882 -12.895449 -12.897998 -12.900529 -12.903041 -12.905535 -12.908011 -12.910469 -12.912909 -12.915331 -12.917734 -12.920120 -12.922488 -12.924839 -12.927171 -12.929486 -12.931784 -12.934063 -12.936326 -12.938571 -12.940798 -12.943008 -12.945201 -12.947377 -12.949536 -12.951677 -12.953802 -12.955910 -12.958000 -12.960074 -12.962131 -12.964172 -12.966195 -12.968202 -12.970193 -12.972167 -12.974125 -12.976066 -12.977991 -12.979899 -12.981792 -12.983668 -12.985528 -12.987373 -12.989201 -12.991013 -12.992810 -12.994590 -12.996355 -12.998105 -12.999838 -13.001557 -13.003259 -13.004946 -13.006618 -13.008275 -13.009916 -13.011542 -13.013153 -13.014748 -13.016329 -13.017895 -13.019446 -13.020982 -13.022503 -13.024009 -13.025501 -13.026978 -13.028441 -13.029889 -13.031322 -13.032742 -13.034147 -13.035537 -13.036914 -13.038276 -13.039624 -13.040958 -13.042278 -13.043584 -13.044876 -13.046155 -13.047420 -13.048671 -13.049908 -13.051132 -13.052342 -13.053539 -13.054723 -13.055893 -13.057050 -13.058193 -13.059324 -13.060441 -13.061545 -13.062636 -13.063715 -13.064780 -13.065833 -13.066873 -13.067900 -13.068914 -13.069916 -13.070906 -13.071882 -13.072845 -13.073796 -13.074733 -13.075657 -13.076568 -13.077465 -13.078349 -13.079219 -13.080076 -13.080919 -13.081748 -13.082563 -13.083363 -13.084150 -13.084922 -13.085680 -13.086424 -13.087153 -13.087867 -13.088566 -13.089251 -13.089921 -13.090575 -13.091215 -13.091839 -13.092448 -13.093041 -13.093619 -13.094182 -13.094728 -13.095259 -13.095774 -13.096272 -13.096755 -13.097221 -13.097672 -13.098105 -13.098522 -13.098923 -13.099307 -13.099674 -13.100024 -13.100357 -13.100673 -13.100972 -13.101254 -13.101518 -13.101765 -13.101994 -13.102206 -13.102399 -13.102575 -13.102733 -13.102873 -13.102995 -13.103098 -13.103183 -13.103250 -13.103298 -13.103327 -13.103338 -13.103330 -13.103303 -13.103257 -13.103191 -13.103107 -13.103003 -13.102880 -13.102737 -13.102575 -13.102393 -13.102191 -13.101969 -13.101728 -13.101466 -13.101184 -13.100882 -13.100559 -13.100216 -13.099852 -13.099467 -13.099062 -13.098636 -13.098189 -13.097721 -13.097232 -13.096721 -13.096189 -13.095636 -13.095061 -13.094464 -13.093846 -13.093206 -13.092544 -13.091860 -13.091153 -13.090425 -13.089674 -13.088901 -13.088105 -13.087287 -13.086445 -13.085581 -13.084695 -13.083785 -13.082852 -13.081896 -13.080916 -13.079913 -13.078887 -13.077837 -13.076764 -13.075666 -13.074545 -13.073400 -13.072230 -13.071037 -13.069819 -13.068577 -13.067311 -13.066019 -13.064704 -13.063363 -13.061998 -13.060607 -13.059192 -13.057751 -13.056286 -13.054795 -13.053278 -13.051736 -13.050168 -13.048575 -13.046956 -13.045311 -13.043640 -13.041942 -13.040219 -13.038469 -13.036693 -13.034890 -13.033061 -13.031205 -13.029322 -13.027413 -13.025476 -13.023512 -13.021522 -13.019503 -13.017458 -13.015385 -13.013284 -13.011156 -13.009000 -13.006817 -13.004605 -13.002365 -13.000097 -12.997801 -12.995476 -12.993123 -12.990742 -12.988332 -12.985893 -12.983425 -12.980929 -12.978403 -12.975848 -12.973264 -12.970651 -12.968008 -12.965336 -12.962634 -12.959903 -12.957142 -12.954350 -12.951529 -12.948678 -12.945797 -12.942885 -12.939943 -12.936970 -12.933967 -12.930933 -12.927869 -12.924773 -12.921647 -12.918490 -12.915301 -12.912081 -12.908830 -12.905547 -12.902232 -12.898884 -12.895503 -12.892088 -12.888640 -12.885158 -12.881641 -12.878089 -12.874501 -12.870878 -12.867218 -12.863522 -12.859789 -12.856018 -12.852209 -12.848362 -12.844477 -12.840552 -12.836588 -12.832583 -12.828539 -12.824454 -12.820327 -12.816160 -12.811950 -12.807698 -12.803403 -12.799065 -12.794683 -12.790258 -12.785788 -12.781274 -12.776714 -12.772109 -12.767457 -12.762760 -12.758015 -12.753224 -12.748384 -12.743497 -12.738561 -12.733577 -12.728543 -12.723460 -12.718327 -12.713143 -12.707908 -12.702623 -12.697285 -12.691896 -12.686454 -12.680959 -12.675411 -12.669809 -12.664153 -12.658443 -12.652678 -12.646857 -12.640981 -12.635049 -12.629060 -12.623014 -12.616911 -12.610751 -12.604532 -12.598254 -12.591918 -12.585522 -12.579067 -12.572551 -12.565975 -12.559338 -12.552640 -12.545880 -12.539057 -12.532173 -12.525225 -12.518213 -12.511138 -12.503999 -12.496795 -12.489526 -12.482192 -12.474792 -12.467325 -12.459792 -12.452192 -12.444525 -12.436790 -12.428986 -12.421114 -12.413173 -12.405162 -12.397082 -12.388931 -12.380709 -12.372417 -12.364053 -12.355617 -12.347109 -12.338528 -12.329874 -12.321146 -12.312344 -12.303469 -12.294518 -12.285492 -12.276391 -12.267214 -12.257961 -12.248630 -12.239223 -12.229738 -12.220175 -12.210534 -12.200814 -12.191015 -12.181136 -12.171177 -12.161138 -12.151018 -12.140817 -12.130534 -12.120169 -12.109722 -12.099192 -12.088579 -12.077882 -12.067101 -12.056235 -12.045285 -12.034250 -12.023129 -12.011921 -12.000628 -11.989247 -11.977779 -11.966224 -11.954580 -11.942848 -11.931027 -11.919117 -11.907117 -11.895027 -11.882846 -11.870575 -11.858212 -11.845757 -11.833210 -11.820571 -11.807839 -11.795013 -11.782094 -11.769081 -11.755972 -11.742769 -11.729471 -11.716077 -11.702587 -11.689000 -11.675316 -11.661534 -11.647655 -11.633678 -11.619602 -11.605427 -11.591152 -11.576778 -11.562304 -11.547728 -11.533052 -11.518275 -11.503395 -11.488413 -11.473329 -11.458142 -11.442851 -11.427454 -11.411948 -11.396329 -11.380593 -11.364735 -11.348753 -11.332641 -11.316396 -11.300013 -11.283490 -11.266822 -11.250004 -11.233034 -11.215906 -11.198618 -11.181164 -11.163542 -11.145747 -11.127781 -11.109642 -11.091334 -11.072857 -11.054213 -11.035401 -11.016425 -10.997283 -10.977979 -10.958513 -10.938885 -10.919098 -10.899153 -10.879049 -10.858790 -10.838375 -10.817806 -10.797084 -10.776210 -10.755186 -10.734012 -10.712690 -10.691220 -10.669604 -10.647843 -10.625939 -10.603891 -10.581702 -10.559373 -10.536904 -10.514298 -10.491554 -10.468674 -10.445659 -10.422511 -10.399231 -10.375819 -10.352277 -10.328605 -10.304806 -10.280880 -10.256829 -10.232653 -10.208353 -10.183931 -10.159389 -10.134726 -10.109944 -10.085045 -10.060029 -10.034898 -10.009652 -9.984294 -9.958823 -9.933242 -9.907550 -9.881750 -9.855843 -9.829830 -9.803711 -9.777488 -9.751162 -9.724735 -9.698207 -9.671579 -9.644853 -9.618030 -9.591111 -9.564097 -9.536989 -9.509788 -9.482496 -9.455114 -9.427642 -9.400082 -9.372436 -9.344703 -9.316886 -9.288985 -9.261002 -9.232937 -9.204792 -9.176569 -9.148267 -9.119889 -9.091435 -9.062907 -9.034305 -9.005631 -8.976886 -8.948071 -8.919188 -8.890237 -8.861219 -8.832136 -8.802989 -8.773779 -8.744506 -8.715173 -8.685781 -8.656329 -8.626821 -8.597256 -8.567636 -8.537962 -8.508235 -8.478457 -8.448628 -8.418749 -8.388823 -8.358849 -8.328829 -8.298764 -8.268656 -8.238505 -8.208312 -8.178079 -8.147807 -8.117497 -8.087150 -8.056767 -8.026350 -7.995899 -7.965416 -7.934901 -7.904355 -7.873780 -7.843175 -7.812543 -7.781885 -7.751200 -7.720489 -7.689755 -7.658998 -7.628218 -7.597417 -7.566595 -7.535754 -7.504895 -7.474017 -7.443123 -7.412213 -7.381288 -7.350349 -7.319397 -7.288433 -7.257458 -7.226473 -7.195478 -7.164475 -7.133464 -7.102447 -7.071424 -7.040397 -7.009365 -6.978331 -6.947295 -6.916258 -6.885221 -6.854185 -6.823150 -6.792118 -6.761090 -6.730067 -6.699049 -6.668037 -6.637033 -6.606036 -6.575050 -6.544073 -6.513107 -6.482154 -6.451213 -6.420286 -6.389374 -6.358477 -6.327597 -6.296735 -6.265891 -6.235066 -6.204262 -6.173479 -6.142718 -6.111981 -6.081267 -6.050578 -6.019916 -5.989280 -5.958671 -5.928096 -5.897570 -5.867111 -5.836737 -5.806467 -5.776318 -5.746309 -5.716457 -5.686781 -5.657299 -5.628028 -5.598988 -5.570195 -5.541668 -5.513426 -5.485485 -5.457865 -5.430583 -5.403658 -5.377106 -5.350948 -5.325200 -5.299880 -5.275008 -5.250600 -5.226675 -5.203251 -5.180346 -5.157978 -5.136165 -5.114925 -5.094277 -5.074238 -5.054826 -5.036060 -5.017957 -5.000536 -4.983815 -4.967812 -4.952544 -4.938030 -4.924288 -4.911337 -4.899193 -4.887876 -4.877403 -4.867792 -4.859061 -4.851228 -4.844310 -4.838324 -4.833288 -4.829220 -4.826135 -4.824053 -4.822990 -4.822965 -4.823993 -4.826093 -4.829282 -4.833577 -4.838997 -4.845558 -4.853277 -4.862172 -4.872262 -4.883562 -4.896090 -4.909864 -4.924901 -4.941177 -4.958406 -4.976205 -4.994191 -5.012098 -5.029898 -5.047590 -5.065173 -5.082647 -5.100011 -5.117264 -5.134407 -5.151437 -5.168354 -5.185159 -5.201849 -5.218425 -5.234886 -5.251232 -5.267461 -5.283573 -5.299567 -5.315443 -5.331200 -5.346838 -5.362355 -5.377752 -5.393027 -5.408180 -5.423210 -5.438117 -5.452900 -5.467558 -5.482091 -5.496498 -5.510779 -5.524932 -5.538957 -5.552854 -5.566622 -5.580260 -5.593767 -5.607140 -5.620374 -5.633468 -5.646416 -5.659217 -5.671866 -5.684360 -5.696697 -5.708871 -5.720881 -5.732722 -5.744391 -5.755886 -5.767202 -5.778336 -5.789284 -5.800045 -5.810613 -5.820986 -5.831160 -5.841132 -5.850899 -5.860457 -5.869802 -5.878932 -5.887843 -5.896531 -5.904994 -5.913228 -5.921229 -5.928994 -5.936520 -5.943804 -5.950841 -5.957629 -5.964164 -5.970443 -5.976463 -5.982220 -5.987710 -5.992931 -5.997879 -6.002550 -6.006942 -6.011050 -6.014872 -6.018404 -6.021643 -6.024585 -6.027227 -6.029566 -6.031598 -6.033319 -6.034727 -6.035818 -6.036589 -6.037037 -6.037157 -6.036947 -6.036402 -6.035521 -6.034299 -6.032734 -6.030821 -6.028557 -6.025939 -6.022964 -6.019628 -6.015927 -6.011860 -6.007421 -6.002608 -5.997417 -5.991845 -5.985889 -5.979544 -5.972809 -5.965679 -5.958151 -5.950222 -5.941888 -5.933145 -5.923991 -5.914419 -5.904422 -5.893995 -5.883130 -5.871822 -5.860064 -5.847849 -5.835171 -5.822024 -5.808402 -5.794297 -5.779703 -5.764615 -5.749026 -5.732944 -5.716386 -5.699372 -5.681921 -5.664052 -5.645784 -5.627136 -5.608126 -5.588775 -5.569101 -5.549122 -5.528858 -5.508329 -5.487552 -5.466547 -5.445334 -5.423930 -5.402355 -5.380628 -5.358768 -5.336794 -5.314725 -5.292580 -5.270378 -5.248138 -5.225879 -5.203620 -5.181381 -5.159179 -5.137034 -5.114965 -5.092991 -5.071131 -5.049404 -5.027830 -5.006426 -4.985212 -4.964208 -4.943431 -4.922902 -4.902638 -4.882660 -4.862986 -4.843634 -4.824609 -4.805895 -4.787474 -4.769330 -4.751445 -4.733801 -4.716382 -4.699170 -4.682148 -4.665299 -4.648605 -4.632050 -4.615615 -4.599285 -4.583040 -4.566865 -4.550742 -4.534654 -4.518583 -4.502512 -4.486427 -4.470323 -4.454202 -4.438065 -4.421914 -4.405751 -4.389576 -4.373391 -4.357197 -4.340996 -4.324789 -4.308578 -4.292364 -4.276148 -4.259932 -4.243716 -4.227504 -4.211295 -4.195091 -4.178894 -4.162705 -4.146526 -4.130357 -4.114201 -4.098058 -4.081930 -4.065818 -4.049724 -4.033649 -4.017595 -4.001563 -3.985554 -3.969570 -3.953611 -3.937681 -3.921779 -3.905907 -3.890067 -3.874260 -3.858487 -3.842750 -3.827050 -3.811389 -3.795768 -3.780188 -3.764651 -3.749158 -3.733711 -3.718310 -3.702958 -3.687655 -3.672404 -3.657205 -3.642059 -3.626969 -3.611936 -3.596960 -3.582044 -3.567189 -3.552396 -3.537666 -3.523002 -3.508403 -3.493873 -3.479411 -3.465020 -3.450701 -3.436455 -3.422284 -3.408189 -3.394171 -3.380232 -3.366374 -3.352597 -3.338903 -3.325293 -3.311769 -3.298332 -3.284984 -3.271726 -3.258559 -3.245484 -3.232504 -3.219619 -3.206833 -3.194160 -3.181628 -3.169264 -3.157093 -3.145144 -3.133442 -3.122014 -3.110887 -3.100087 -3.089642 -3.079578 -3.069922 -3.060700 -3.051939 -3.043666 -3.035907 -3.028690 -3.022040 -3.015985 -3.010551 -3.005766 -3.001655 -2.998245 -2.995563 -2.993636 -2.992491 -2.992153 -2.992650 -2.993989 -2.996156 -2.999133 -3.002904 -3.007454 -3.012766 -3.018824 -3.025611 -3.033111 -3.041308 -3.050186 -3.059728 -3.069918 -3.080739 -3.092176 -3.104213 -3.116832 -3.130018 -3.143754 -3.158024 -3.172812 -3.188101 -3.203876 -3.220119 -3.236815 -3.253947 -3.271500 -3.289456 -3.307799 -3.326514 -3.345584 -3.364992 -3.384722 -3.404759 -3.425085 -3.445685 -3.466542 -3.487640 -3.508963 -3.530493 -3.552216 -3.574115 -3.596173 -3.618375 -3.640705 -3.663160 -3.685739 -3.708441 -3.731264 -3.754209 -3.777274 -3.800458 -3.823759 -3.847179 -3.870714 -3.894365 -3.918130 -3.942008 -3.965999 -3.990101 -4.014311 -4.038625 -4.063038 -4.087547 -4.112148 -4.136836 -4.161608 -4.186460 -4.211387 -4.236386 -4.261453 -4.286583 -4.311772 -4.337017 -4.362313 -4.387657 -4.413045 -4.438471 -4.463933 -4.489427 -4.514947 -4.540491 -4.566055 -4.591633 -4.617223 -4.642820 -4.668420 -4.694019 -4.719614 -4.745199 -4.770772 -4.796328 -4.821862 -4.847372 -4.872853 -4.898301 -4.923712 -4.949085 -4.974420 -4.999715 -5.024971 -5.050185 -5.075357 -5.100486 -5.125572 -5.150614 -5.175610 -5.200561 -5.225465 -5.250321 -5.275129 -5.299887 -5.324596 -5.349254 -5.373860 -5.398414 -5.422914 -5.447360 -5.471752 -5.496087 -5.520366 -5.544588 -5.568751 -5.592856 -5.616901 -5.640885 -5.664808 -5.688668 -5.712466 -5.736200 -5.759869 -5.783474 -5.807013 -5.830485 -5.853890 -5.877228 -5.900497 -5.923696 -5.946825 -5.969884 -5.992872 -6.015787 -6.038629 -6.061398 -6.084093 -6.106712 -6.129256 -6.151724 -6.174114 -6.196427 -6.218661 -6.240816 -6.262891 -6.284886 -6.306799 -6.328630 -6.350378 -6.372043 -6.393623 -6.415119 -6.436529 -6.457853 -6.479090 -6.500239 -6.521300 -6.542271 -6.563153 -6.583944 -6.604644 -6.625252 -6.645767 -6.666189 -6.686516 -6.706749 -6.726886 -6.746928 -6.766872 -6.786718 -6.806466 -6.826116 -6.845665 -6.865114 -6.884461 -6.903707 -6.922850 -6.941890 -6.960826 -6.979657 -6.998383 -7.017002 -7.035515 -7.053920 -7.072216 -7.090404 -7.108482 -7.126450 -7.144306 -7.162051 -7.179685 -7.197208 -7.214620 -7.231922 -7.249113 -7.266194 -7.283166 -7.300027 -7.316779 -7.333422 -7.349956 -7.366382 -7.382698 -7.398907 -7.415007 -7.431000 -7.446884 -7.462662 -7.478332 -7.493895 -7.509352 -7.524702 -7.539946 -7.555084 -7.570116 -7.585042 -7.599863 -7.614579 -7.629189 -7.643696 -7.658097 -7.672395 -7.686588 -7.700678 -7.714664 -7.728546 -7.742326 -7.756002 -7.769576 -7.783048 -7.796417 -7.809684 -7.822850 -7.835914 -7.848876 -7.861738 -7.874498 -7.887158 -7.899717 -7.912177 -7.924536 -7.936795 -7.948955 -7.961016 -7.972978 -7.984840 -7.996604 -8.008270 -8.019838 -8.031307 -8.042679 -8.053953 -8.065130 -8.076210 -8.087193 -8.098080 -8.108870 -8.119564 -8.130162 -8.140664 -8.151071 -8.161382 -8.171599 -8.181721 -8.191748 -8.201680 -8.211519 -8.221264 -8.230915 -8.240472 -8.249936 -8.259308 -8.268586 -8.277772 -8.286866 -8.295867 -8.304777 -8.313595 -8.322321 -8.330956 -8.339501 -8.347954 -8.356317 -8.364590 -8.372772 -8.380865 -8.388868 -8.396782 -8.404606 -8.412341 -8.419988 -8.427546 -8.435016 -8.442398 -8.449692 -8.456898 -8.464017 -8.471049 -8.477994 -8.484852 -8.491624 -8.498309 -8.504909 -8.511422 -8.517850 -8.524193 -8.530450 -8.536622 -8.542710 -8.548714 -8.554633 -8.560468 -8.566219 -8.571887 -8.577471 -8.582972 -8.588390 -8.593726 -8.598979 -8.604150 -8.609239 -8.614246 -8.619172 -8.624016 -8.628780 -8.633462 -8.638064 -8.642585 -8.647026 -8.651387 -8.655668 -8.659870 -8.663993 -8.668036 -8.672001 -8.675887 -8.679694 -8.683424 -8.687075 -8.690649 -8.694145 -8.697564 -8.700906 -8.704171 -8.707360 -8.710472 -8.713508 -8.716468 -8.719352 -8.722161 -8.724894 -8.727553 -8.730136 -8.732646 -8.735080 -8.737441 -8.739728 -8.741941 -8.744081 -8.746147 -8.748140 -8.750061 -8.751909 -8.753685 -8.755388 -8.757020 -8.758580 -8.760069 -8.761486 -8.762833 -8.764109 -8.765314 -8.766449 -8.767513 -8.768508 -8.769434 -8.770290 -8.771076 -8.771794 -8.772443 -8.773024 -8.773536 -8.773980 -8.774356 -8.774665 -8.774906 -8.775081 -8.775188 -8.775228 -8.775202 -8.775110 -8.774952 -8.774728 -8.774438 -8.774083 -8.773663 -8.773178 -8.772628 -8.772014 -8.771336 -8.770593 -8.769787 -8.768917 -8.767984 -8.766988 -8.765929 -8.764807 -8.763623 -8.762376 -8.761068 -8.759697 -8.758266 -8.756773 -8.755219 -8.753604 -8.751928 -8.750192 -8.748396 -8.746539 -8.744623 -8.742648 -8.740613 -8.738519 -8.736367 -8.734155 -8.731886 -8.729558 -8.727172 -8.724729 -8.722228 -8.719669 -8.717054 -8.714382 -8.711653 -8.708868 -8.706027 -8.703130 -8.700177 -8.697168 -8.694105 -8.690986 -8.687813 -8.684585 -8.681303 -8.677966 -8.674576 -8.671132 -8.667635 -8.664084 -8.660480 -8.656824 -8.653115 -8.649354 -8.645540 -8.641675 -8.637758 -8.633790 -8.629770 -8.625700 -8.621579 -8.617407 -8.613185 -8.608913 -8.604591 -8.600219 -8.595798 -8.591328 -8.586809 -8.582241 -8.577625 -8.572960 -8.568248 -8.563487 -8.558679 -8.553824 -8.548921 -8.543972 -8.538975 -8.533933 -8.528844 -8.523709 -8.518528 -8.513302 -8.508030 -8.502713 -8.497351 -8.491945 -8.486494 -8.480999 -8.475460 -8.469877 -8.464251 -8.458581 -8.452868 -8.447112 -8.441314 -8.435473 -8.429590 -8.423665 -8.417698 -8.411690 -8.405640 -8.399550 -8.393418 -8.387246 -8.381033 -8.374781 -8.368488 -8.362155 -8.355784 -8.349372 -8.342922 -8.336433 -8.329905 -8.323339 -8.316735 -8.310093 -8.303413 -8.296695 -8.289941 -8.283149 -8.276321 -8.269456 -8.262554 -8.255617 -8.248643 -8.241635 -8.234591 -8.227514 -8.220403 -8.213260 -8.206084 -8.198876 -8.191638 -8.184369 -8.177071 -8.169744 -8.162388 -8.155004 -8.147593 -8.140155 -8.132692 -8.125203 -8.117689 -8.110151 -8.102590 -8.095006 -8.087399 -8.079771 -8.072122 -8.064452 -8.056762 -8.049054 -8.041327 -8.033581 -8.025819 -8.018040 -8.010244 -8.002434 -7.994608 -7.986768 -7.978915 -7.971048 -7.963169 -7.955279 -7.947377 -7.939465 -7.931543 -7.923611 -7.915671 -7.907723 -7.899768 -7.891805 -7.883837 -7.875863 -7.867884 -7.859900 -7.851913 -7.843923 -7.835930 -7.827936 -7.819940 -7.811944 -7.803948 -7.795952 -7.787958 -7.779965 -7.771975 -7.763988 -7.756005 -7.748026 -7.740052 -7.732083 -7.724121 -7.716166 -7.708218 -7.700277 -7.692345 -7.684422 -7.676508 -7.668604 -7.660711 -7.652828 -7.644956 -7.637097 -7.629249 -7.621415 -7.613594 -7.605787 -7.597995 -7.590217 -7.582455 -7.574709 -7.566979 -7.559266 -7.551571 -7.543894 -7.536235 -7.528596 -7.520975 -7.513376 -7.505799 -7.498245 -7.490716 -7.483213 -7.475738 -7.468293 -7.460878 -7.453496 -7.446147 -7.438833 -7.431555 -7.424316 -7.417116 -7.409956 -7.402839 -7.395766 -7.388738 -7.381757 -7.374823 -7.367939 -7.361106 -7.354324 -7.347594 -7.340917 -7.334295 -7.327727 -7.321215 -7.314760 -7.308362 -7.302023 -7.295743 -7.289523 -7.283364 -7.277267 -7.271234 -7.265263 -7.259358 -7.253518 -7.247744 -7.242037 -7.236399 -7.230829 -7.225330 -7.219901 -7.214543 -7.209259 -7.204047 -7.198910 -7.193848 -7.188862 -7.183953 -7.179122 -7.174369 -7.169695 -7.165099 -7.160580 -7.156138 -7.151772 -7.147481 -7.143266 -7.139124 -7.135057 -7.131062 -7.127140 -7.123290 -7.119512 -7.115804 -7.112166 -7.108598 -7.105099 -7.101668 -7.098305 -7.095009 -7.091779 -7.088616 -7.085518 -7.082485 -7.079516 -7.076611 -7.073768 -7.070988 -7.068270 -7.065613 -7.063017 -7.060481 -7.058004 -7.055586 -7.053226 -7.050924 -7.048679 -7.046490 -7.044357 -7.042280 -7.040257 -7.038288 -7.036373 -7.034510 -7.032700 -7.030941 -7.029234 -7.027577 -7.025970 -7.024412 -7.022903 -7.021442 -7.020028 -7.018662 -7.017341 -7.016067 -7.014837 -7.013652 -7.012511 -7.011413 -7.010358 -7.009346 -7.008374 -7.007444 -7.006554 -7.005704 -7.004893 -7.004120 -7.003386 -7.002688 -7.002028 -7.001404 -7.000815 -7.000259 -6.999736 -6.999245 -6.998783 -6.998349 -6.997943 -6.997562 -6.997206 -6.996874 -6.996563 -6.996272 -6.996001 -6.995747 -6.995511 -6.995289 -6.995081 -6.994886 -6.994702 -6.994528 -6.994362 -6.994203 -6.994051 -6.993903 -6.993758 -6.993615 -6.993473 -6.993330 -6.993185 -6.993037 -6.992884 -6.992724 -6.992558 -6.992382 -6.992197 -6.992000 -6.991791 -6.991567 -6.991329 -6.991073 -6.990799 -6.990507 -6.990193 -6.989857 -6.989498 -6.989115 -6.988705 -6.988268 -6.987803 -6.987307 -6.986780 -6.986221 -6.985628 -6.984999 -6.984334 -6.983630 -6.982888 -6.982105 -6.981280 -6.980411 -6.979498 -6.978539 -6.977533 -6.976479 -6.975374 -6.974218 -6.973010 -6.971748 -6.970430 -6.969056 -6.967624 -6.966133 -6.964581 -6.962968 -6.961291 -6.959550 -6.957743 -6.955869 -6.953926 -6.951913 -6.949830 -6.947673 -6.945443 -6.943138 -6.940756 -6.938297 -6.935758 -6.933139 -6.930438 -6.927654 -6.924786 -6.921832 -6.918790 -6.915661 -6.912441 -6.909130 -6.905727 -6.902231 -6.898639 -6.894950 -6.891164 -6.887279 -6.883294 -6.879207 -6.875017 -6.870722 -6.866322 -6.861814 -6.857199 -6.852473 -6.847637 -6.842688 -6.837625 -6.832448 -6.827154 -6.821743 -6.816212 -6.810562 -6.804789 -6.798894 -6.792874 -6.786729 -6.780456 -6.774056 -6.767526 -6.760864 -6.754071 -6.747144 -6.740082 -6.732884 -6.725548 -6.718073 -6.710458 -6.702701 -6.694802 -6.686758 -6.678569 -6.670233 -6.661748 -6.653114 -6.644329 -6.635392 -6.626302 -6.617056 -6.607655 -6.598095 -6.588377 -6.578499 -6.568459 -6.558257 -6.547890 -6.537358 -6.526659 -6.515792 -6.504755 -6.493548 -6.482168 -6.470615 -6.458887 -6.446983 -6.434902 -6.422641 -6.410201 -6.397579 -6.384775 -6.371786 -6.358612 -6.345251 -6.331702 -6.317964 -6.304035 -6.289914 -6.275599 -6.261090 -6.246385 -6.231482 -6.216381 -6.201080 -6.185577 -6.169871 -6.153962 -6.137847 -6.121526 -6.104996 -6.088257 -6.071308 -6.054146 -6.036771 -6.019182 -6.001376 -5.983354 -5.965112 -5.946651 -5.927968 -5.909059 -5.889904 -5.870479 -5.850759 -5.830719 -5.810335 -5.789584 -5.768439 -5.746878 -5.724876 -5.702407 -5.679449 -5.655976 -5.631963 -5.607388 -5.582225 -5.556449 -5.530037 -5.502964 -5.475206 -5.446737 -5.417535 -5.387574 -5.356830 -5.325278 -5.292895 -5.259656 -5.225535 -5.190510 -5.154556 -5.117647 -5.079761 -5.040872 -5.000955 -4.959988 -4.917944 -4.874800 -4.830532 -4.785114 -4.738523 -4.690735 -4.641724 -4.591466 -4.539937 -4.487113 -4.432969 -4.377480 -4.320623 -4.262373 -4.202706 -4.141596 -4.079021 -4.014954 