0.289073 7.986126 0.423444 0.488628 3.095553 13.330359 -5.306531 -0.553522 10.764481 -3.010003 3.196916 5.108894 -0.829952 -5.396630 2.118002 -3.064911 8.118870 -2.186562 4.406286 -4.189259 -2.244238 3.971301 -0.046145 -17.496208 -13.427898 -8.361464 -11.480928 -18.951387 -5.247275 6.060761 -2.891694 4.547203 2.527198 1.130188 -0.433631 3.947170 4.529498 9.722001 -4.174136 -0.048018 -5.094070 1.393010 2.774385 6.437028 1.786607 -6.300352 6.503307 -3.638894 4.964624 -9.650638 9.467623 -4.084335 -0.350873 7.607564 10.042221 1.612131 -11.462764 -3.698690 5.222399 -12.649944 -21.106949 -13.146715 -3.770028 -1.799860 -15.374563 -7.509846 7.232826 7.973035 3.412462 11.881727 -4.911126 14.153834 5.785142 5.953475 8.971298 3.638082 5.596288 3.668307 -7.041926 -1.451042 4.534181 3.112552 -5.481181 -0.142731 0.745742 5.523730 -6.682158 -3.713638 10.933694 6.921369 -5.729138 4.700693 6.652611 -10.964856 -9.622326 9.738375 -1.382631 3.578600 -7.342228 -3.590048 -2.432617 5.383374 0.740454 2.932271 -0.043423 7.854752 -0.052297 2.522200 -3.015867 3.487736 7.457759 -5.424641 2.212153 -0.629809 -5.120941 6.722215 -0.683206 -7.630528 5.425569 1.279965 0.732308 -2.264442 -3.286849 -1.896149 5.965219 -9.008528 -5.711826 -0.982812 4.181590 -3.209846 7.820965 2.880357 -3.298832 5.451349 -9.214532 -0.880975 -6.203200 3.504497 4.260503 7.393740 2.514370 1.772924 11.702757 -5.349496 4.349239 -4.557081 -2.526317 0.759005 7.948419 -2.280356 -1.398594 -2.727674 5.989846 -1.657961 3.872266 0.426010 0.562610 3.027723 -5.707785 -0.861512 1.896933 3.730305 2.207609 -8.531735 0.168541 -7.669022 -2.856080 0.133624 7.436968 -3.048583 -2.078179 4.067756 2.261754 -6.754101 -1.957040 -8.683494 6.597712 -4.266539 -5.634071 -3.648662 2.396237 3.348923 3.701585 -7.720184 0.191433 -7.846365 -0.762268 11.365162 -11.094141 3.059096 -5.776841 6.255017 -7.266061 -10.219872 11.416366 1.287489 2.760947 -6.100815 -5.766138 0.985621 7.093742 4.050556 -5.147188 -2.656730 -4.128951 -3.329960 -0.389381 -3.111259 2.972328 -3.470804 -2.407458 -4.404658 4.381532 -0.320568 11.982372 -10.112689 1.360560 -4.184715 6.985881 -3.840977 -2.702131 1.336388 3.063743 6.683399 3.960884 -2.027437 1.593055 8.799356 2.941786 -3.140992 -6.341033 -5.971339 8.587232 2.366583 -8.562507 2.857231 -2.708922 10.572184 -1.445570 4.736352 -1.440857 -0.648945 -0.297513 -5.415990 1.832700 1.077265 3.343011 7.265198 -5.131425 -0.250937 -10.133466 11.317394 1.625587 -6.647941 -1.043736 -2.692385 3.084018 3.667988 5.219757 -1.352943 -8.112456 2.767732 -6.172012 3.205638 12.047991 -2.128127 -3.520468 5.928431 -8.566977 1.551767 -1.591413 -3.158387 -4.757740 4.636247 -2.054041 -4.277132 5.083974 -1.728803 6.247247 -3.750489 -7.034625 3.160921 11.915390 -5.420752 -0.832201 5.563806 -6.436482 0.387100 2.896888 9.892807 -1.520368 -2.949796 1.570321 -1.489982 3.850076 -12.764561 10.228671 -11.166361 7.960521 -5.130997 -3.075365 5.771819 5.950891 -3.679549 5.236840 6.689104 1.688193 -1.474068 -7.851528 -1.992559 3.427268 1.868421 3.797268 -2.073154 4.388949 -2.216008 1.106883 -4.247525 -2.537598 -1.526157 1.377512 5.907031 3.743964 -2.301214 4.053324 5.416181 -1.718138 -11.135936 3.654416 -5.231566 1.083121 -4.492112 5.160153 -1.789339 3.647223 -5.067178 -3.241071 5.532636 -1.968179 1.116755 -4.266936 2.707100 1.417955 -7.055306 0.697361 8.075558 -2.698721 0.573452 -1.626756 4.311530 7.377370 17.403850 6.710582 -2.371153 -5.180374 -5.100179 1.640150 8.328902 0.781926 9.165016 2.044056 -5.438723 -2.930253 -1.349192 9.506912 -1.532499 -0.059780 1.141302 3.903073 -2.463519 -1.276502 0.050892 2.924050 2.061329 1.725859 -0.715479 -2.461705 6.427732 -8.430372 7.567468 -2.325108 -8.783621 2.250199 -0.922683 1.831070 8.483154 3.577025 -2.362730 1.455314 -3.619313 -7.572441 0.087461 5.254682 0.622352 0.448495 0.993992 -1.598942 -6.351376 6.027387 3.817095 -5.396609 7.035622 -0.034905 7.539066 -5.487611 -2.907402 1.078757 -4.661426 -3.150345 5.563843 -6.379946 -4.284391 2.467563 1.505045 2.893552 6.880106 -2.687931 6.039700 -6.144588 -6.370068 -4.173182 4.762669 7.725682 7.238644 5.442731 1.765228 -3.388495 -7.056886 -6.979079 5.579578 -1.752669 4.028630 -1.880515 4.488690 0.415369 5.326898 3.797377 -4.820387 -4.981424 -2.814971 0.734126 5.178154 6.059425 -0.527877 -2.139088 -5.856153 -3.678331 7.518415 -0.433884 -5.055505 2.594726 4.697173 2.670517 4.236554 11.218602 -2.368229 -6.081448 4.581647 0.726139 -4.836574 -0.083857 3.502967 -0.154015 -0.028858 -6.914702 3.700921 -0.204545 9.992364 -5.991142 1.998405 -0.567603 2.207738 -1.165619 2.059018 4.544515 -7.082602 -1.542175 -3.177431 3.040815 -3.440854 3.103521 -0.072288 -2.515498 -4.031984 2.548008 1.539116 -4.395845 5.080230 0.974606 -2.005965 -8.943975 2.205419 6.235545 -4.318732 -5.162200 7.435622 2.124917 -1.909698 4.079065 3.199943 -0.655645 -0.528446 -12.609799 2.120965 5.986702 3.314171 -3.004549 -1.162114 -7.927699 -5.764769 0.798502 7.605371 -3.181063 5.697735 -0.981564 -0.809850 -6.050503 1.024881 8.003769 -3.104895 -1.866478 -0.821652 4.506181 -0.413737 -0.491540 7.676295 -7.805350 -5.100297 -0.723239 -0.738250 3.807540 2.205048 11.975845 -2.491651 1.189133 -3.960566 -5.112626 3.964331 -5.448456 -8.506277 -0.348081 -5.396856 3.365421 6.632262 -5.905100 1.275003 -4.252423 -0.537611 -1.237967 1.416638 0.756659 2.715379 -5.922297 -1.437295 1.371886 0.317608 2.265837 -3.661573 2.905512 -11.139199 5.270991 -4.683757 4.153983 -2.687170 -9.328844 -3.454438 4.742553 -0.259613 -3.450325 3.193901 2.087263 -6.974066 2.790121 -0.770265 1.558345 -2.005946 -6.245871 6.087718 0.787351 -7.517741 -2.331527 -1.340730 3.553528 3.947071 -10.127352 3.922955 2.321150 -6.811680 -7.444234 3.020350 6.590992 -7.076563 0.615632 -1.747463 3.435401 -3.799666 2.486371 1.636879 0.663261 0.219131 5.140050 5.789826 0.954896 -1.650419 -5.740255 -1.118296 3.930207 -0.393405 2.346308 -8.230802 0.099037 -2.807310 -2.317325 5.805000 8.743294 -1.927711 6.586094 -5.355926 -8.509014 -3.214603 0.261439 2.160008 0.994473 -6.484429 3.675049 4.608308 -0.115577 2.319381 -5.678530 -3.446646 -5.185019 9.027125 -4.862066 6.952471 7.454423 -10.291401 1.051871 5.879230 3.582740 -5.913199 -2.962881 -8.825038 -6.273809 0.415896 7.469786 1.966168 3.990178 -6.956588 -6.855363 0.259530 4.541181 4.859427 -6.998509 -1.156052 -5.701831 0.766574 7.339076 -3.140495 0.801777 5.889746 -3.813114 2.179621 -3.622041 8.060568 -0.274460 -0.090226 -4.682920 -0.262214 2.199289 3.475020 2.356358 9.499492 1.474817 -1.290472 -0.350043 0.116635 -0.014042 -5.105632 2.308963 -3.394605 -2.188228 1.177374 3.398232 4.666535 -2.036259 -0.755460 7.396675 -5.537105 6.569472 -10.692499 1.176768 -4.503414 -3.112610 -7.255554 7.869229 7.522541 4.311912 -4.411979 0.464605 2.934136 6.244602 -1.243503 -2.780767 9.088454 0.750784 -7.250610 5.983026 -0.657877 -0.639594 12.306016 1.019010 1.079973 3.829430 -1.724366 -3.578176 -7.150612 3.654985 -0.308027 2.361841 2.057123 7.068460 -0.189572 0.195365 0.782277 5.941391 -3.660370 8.272185 0.997065 1.179615 -8.871032 0.120313 5.425845 -1.896029 -0.789550 0.360076 -1.698124 1.275137 -6.677413 8.794267 0.605395 8.189441 -4.488809 5.522555 -8.765107 1.987938 -1.158224 -0.757138 -2.829486 6.072258 -3.436282 0.192310 -7.179667 8.264651 -2.660302 -6.994939 -9.185484 -0.707620 3.901678 -3.629873 -4.767018 -0.240097 -3.011794 7.282299 6.641083 -3.380920 -1.996539 -6.153287 -1.837690 -2.206056 -6.966617 -4.669155 -0.814337 -3.696030 -8.340693 1.787957 0.532807 9.489718 -7.295402 2.995690 4.284028 -3.100778 -0.142974 -2.790644 5.791608 -4.720081 -10.854421 3.203603 1.510547 10.176249 -9.188252 2.425228 1.674812 -2.172779 -7.108477 -2.027870 8.914928 -2.789802 0.585006 -4.279842 -0.065357 -3.263076 2.494514 -1.034219 6.806495 -5.760999 3.987191 7.683812 -0.352560 4.884333 -9.083434 -7.801503 2.302908 1.078987 10.410839 1.764683 -0.380505 -7.337967 -1.988547 0.926234 2.572967 -0.768347 12.743205 -1.491708 -8.323027 5.338540 -3.973382 -5.527975 -1.099158 7.597736 -0.448942 -0.379622 -7.063644 -1.688531 13.744404 -1.837092 -0.901334 -2.235281 -0.793530 1.437148 0.562185 3.336267 2.396072 1.924293 -3.570337 0.532775 5.573488 0.978669 0.847648 1.193849 -1.217859 4.360666 -9.777984 4.293996 5.477263 -1.528483 -8.405317 0.413484 -2.007374 0.475526 0.195599 3.096381 -8.006730 -5.127608 -0.752671 6.581770 -1.511499 -5.975476 -0.725693 6.933561 6.146121 -6.611542 1.491890 -3.791550 2.102710 3.197373 2.034249 -1.021091 2.019575 -1.119326 1.505693 -4.261539 4.944909 -9.629848 -1.209158 1.629004 -1.906196 8.505051 7.921066 -2.227099 -1.325269 -2.977309 -2.138424 -2.114852 6.130303 -1.125466 -3.244663 3.265674 4.587546 -5.139854 -3.372080 -1.765927 1.091687 -0.000661 -7.756933 5.393412 0.634651 -0.079793 7.353074 -2.697415 -6.797950 -7.069599 8.074831 4.240278 -2.921087 3.844525 -2.098210 -4.217628 -0.734110 -0.529466 -0.661528 -8.335890 -5.198931 1.428144 5.201177 -2.400888 3.598472 -5.002061 -8.545643 -6.061694 5.672637 7.858850 -0.645137 7.744481 -4.697681 4.488204 -2.694309 -1.806896 -3.751146 -2.437299 6.032201 3.432832 -7.855768 0.412491 -2.041338 0.709022 -5.225818 -5.698991 6.589161 -3.958479 -0.336609 2.306547 -0.944932 -3.576517 2.538527 -0.904880 6.577608 -6.110610 -3.686675 0.166091 4.759990 -5.174248 1.657100 14.194493 1.208302 -6.956776 1.330930 1.273147 2.494812 -1.301631 -5.169487 4.674166 2.766973 1.563346 3.686387 0.433190 8.189619 0.177076 -7.094043 3.558967 -0.011327 4.894378 -4.469810 3.084439 2.402138 -3.579047 8.076185 0.424987 -1.846962 4.198239 0.743830 -7.027368 8.350669 -4.285176 -2.699024 6.118112 1.920179 -1.307866 -0.565909 3.035998 -3.197093 0.482507 0.761590 0.748937 0.574711 -1.836892 4.305505 -2.221154 -1.201413 2.074639 -0.942768 2.009651 9.113718 1.226011 -6.429257 -0.841606 -0.093491 9.729137 -4.044628 0.866461 3.992902 2.854185 -3.284579 0.890691 6.453250 4.213155 -4.608017 0.502117 -6.571277 8.491132 7.839400 -4.705138 5.557779 -3.095138 0.918337 -7.279616 6.053662 4.147499 5.260489 -1.003995 -9.908875 1.892543 -1.628348 6.276727 -1.021168 2.766021 -5.228932 6.967230 1.913514 -6.432018 6.566153 7.208446 -8.009570 0.099991 6.026706 -3.752055 2.298826 2.159507 -8.179895 -2.814406 -1.621428 3.940567 -3.070952 3.463034 2.682210 -0.844432 -0.542203 4.898318 3.232740 -0.559868 -4.985426 2.384239 -8.736279 1.749144 1.069406 5.819580 8.813546 0.977849 -3.688277 -1.970486 -3.630207 4.888690 -2.105396 -0.883902 -2.596537 6.262279 6.414830 9.173430 -1.007411 0.340125 -6.690417 -4.170502 -2.796060 8.323262 8.063217 -4.500743 -4.297465 0.571821 2.733669 -3.930000 0.439148 -4.003249 5.239856 -4.425834 4.946628 3.466293 5.006304 0.972846 -6.510746 4.054969 -0.039737 2.446670 6.849433 7.671151 2.968031 -5.126797 -4.903278 -0.331721 2.085768 1.251978 6.449461 -5.211655 -0.218147 0.145839 2.669147 1.600335 3.957566 -1.819232 -5.884491 -3.444641 7.940065 2.235957 1.516090 -0.700827 0.293767 0.148918 -0.079223 0.194406 8.015485 -2.186042 -3.562178 0.777719 0.714716 5.265377 0.895023 -1.214620 -2.809826 0.998742 3.105604 -0.649239 -0.005252 5.621539 -3.744948 2.806927 -2.954030 11.168565 -5.550073 4.543956 8.702168 5.959504 -3.438860 3.775410 -11.737881 -2.383983 13.752534 19.150552 -5.055631 3.622191 -3.185119 -6.897764 0.206794 -9.564350 -10.466138 -1.413427 -0.620596 -13.496266 -1.043414 -5.434346 -1.526851 -1.799544 1.330297 0.679715 -2.565133 -4.262593 4.551622 -0.148170 -3.129238 8.127991 -4.907690 1.700308 5.977978 -1.139132 -0.939166 -8.060601 -4.815667 -3.716738 7.225011 1.719181 -3.930272 0.553796 -4.617845 -3.500727 -2.888649 3.104325 -3.433649 0.139882 -2.392419 -1.758349 3.475027 -3.240915 5.429510 3.325244 -5.462261 -3.554575 0.287467 2.348044 0.785636 3.178638 4.964176 -6.939611 3.247794 -0.448318 -3.029369 5.457269 -8.965566 -5.553648 1.279551 -4.478312 -3.544900 5.165753 -1.626475 3.559261 -5.467802 -3.342666 5.032311 2.646440 1.354495 -9.241479 -5.462902 -9.066145 5.884315 -7.360159 -0.009881 12.689864 0.169584 -2.911560 5.796862 11.556130 -1.117410 -3.285727 11.543367 2.314155 -6.613185 -11.397871 6.158006 3.231754 1.218935 -8.849404 0.370941 7.747507 -1.035213 -5.869349 -3.144579 3.333161 -1.279412 -8.918438 9.846836 1.158370 -2.295902 -11.669061 5.720411 -2.085682 0.099435 12.781709 18.682230 1.927830 9.446888 -15.446295 -1.864084 -4.272580 -13.290171 -8.701034 -2.940490 -4.498086 1.138246 3.086706 1.892773 31.358250 14.905213 -2.576939 -12.914624 -11.919140 -5.901070 -3.086760 0.346083 3.252639 -7.477823 0.537224 2.659214 11.319458 -5.898038 -3.255130 1.158702 8.037060 1.885762 -1.205323 0.266065 -9.685068 -11.519647 4.932990 2.690955 1.168834 -6.577056 -11.000231 -2.252032 4.983646 -7.936741 -2.828664 -1.496773 -3.896881 -3.650917 -2.966576 -4.824392 -11.590530 -0.512499 19.042076 10.971259 6.672812 12.886452 1.500772 -1.903444 8.749284 5.941033 -1.230787 7.515265 -1.599275 1.960193 1.500487 -0.855282 7.554684 -4.869163 -2.263838 9.259352 -11.449610 8.155284 8.238775 -4.195118 -15.102995 -8.704579 -10.409528 -8.181569 -5.957409 -1.343102 -1.200078 -1.338694 3.848540 4.449695 2.303592 -3.921709 -15.271907 7.630404 13.945677 -2.314743 3.729609 -4.069560 -2.444793 4.835124 -4.970283 -0.614080 -5.476842 -5.878873 -4.368745 -0.878295 9.158846 2.798218 1.945369 -3.461795 -9.677452 0.927009 -0.250423 -3.256585 2.807094 -0.463450 -2.967626 10.357606 -3.648356 0.083261 10.273010 -3.361351 -4.883240 -0.427415 5.191324 0.070904 -2.600711 11.838212 -2.396703 -4.097696 7.910402 -9.785902 -6.501506 -1.691965 -8.482978 -8.721823 -3.451272 2.797589 -9.337642 -6.439841 -1.706819 13.287502 9.756248 0.845559 14.042585 6.861596 -5.974373 -3.902581 3.117661 -8.487550 -13.688493 4.308219 2.642200 -1.740324 3.898560 -1.834630 -1.290059 -1.423540 -3.557417 -5.181674 1.384656 -1.907291 -6.782600 5.584155 5.870114 8.311769 10.239747 7.239144 5.191218 -9.061962 -2.741211 -4.318003 9.590323 3.362154 2.761181 0.359493 8.581481 -4.486333 -7.876086 5.810514 -6.215467 8.588968 0.637978 1.366159 1.315275 -8.858664 -2.722321 -7.063900 -1.964638 0.962854 10.827857 -5.559446 -5.725956 2.004505 3.569837 1.509899 -1.573451 -7.716005 2.846814 9.017643 -2.264926 1.326257 4.241858 -2.015281 -4.196916 -5.043866 4.662561 0.009640 -10.246328 11.684122 -5.097566 -8.651737 -8.194639 -4.993221 -9.207070 -4.584372 -5.676670 0.772640 -18.166805 0.384040 6.892372 -7.250487 -3.150552 -2.240356 13.252316 19.326686 1.624573 11.962453 3.308540 9.857035 5.763688 9.207597 -5.879922 -5.533519 -7.808652 2.562222 16.541100 3.064629 0.716731 2.027834 -0.247353 -15.666548 10.355762 4.541004 2.946721 2.532570 -22.281599 6.785361 3.522479 4.351915 2.785070 0.711006 -18.800368 2.842230 16.810525 -5.266617 4.502478 -3.113212 1.489130 0.016148 -0.011875 0.554769 0.526495 5.942228 -11.290548 -11.905784 7.854770 -3.073682 -7.730110 0.431662 3.570227 -0.899701 -6.214553 6.747417 -3.410371 -5.201854 1.718580 3.744991 -0.572176 -0.582182 -2.353965 11.202070 -5.943386 14.122821 1.845434 4.291195 5.696461 1.746947 -0.754677 -7.859419 -6.698798 5.952060 -3.976074 5.270254 4.042729 0.873621 3.426265 -7.561919 -6.793032 -1.849735 -1.247424 6.543535 -3.331537 1.149092 3.646079 4.940551 3.075730 2.302444 7.366816 -0.002393 5.533007 -3.492758 3.530770 -4.959857 -2.746892 -3.880839 5.361838 3.609496 -0.013301 -6.791660 -3.677815 2.793971 3.817790 -7.765672 -1.798293 7.034012 -8.523255 -5.793129 -11.034177 -4.482952 -1.458788 0.779531 7.915241 7.417373 4.903155 10.853324 -5.540842 4.246528 -4.914063 7.061684 -0.821570 -0.293141 2.958519 -5.534931 14.438976 1.432426 6.507153 -10.485748 -0.692027 2.169979 -19.603718 -7.396446 0.334868 -7.878097 -8.802527 -0.612282 1.975248 -7.780002 -0.613902 -3.248532 -0.521977 -9.222429 -1.566948 5.737538 -5.304663 0.769864 2.464085 0.898355 9.475296 -4.820482 9.400779 -2.242416 3.192768 -6.237849 -17.139231 1.209359 -5.765960 2.590697 -12.275183 -2.980093 -0.376685 0.436881 11.460563 8.759228 5.199371 12.927958 5.410850 15.574986 6.885096 9.714298 11.526039 10.200558 1.843617 4.174281 5.966384 3.965228 0.183798 -1.762708 7.147456 -0.459482 -2.710846 -8.915464 -0.225151 -0.559765 -6.100664 -1.403989 -0.837548 4.257346 4.611409 -4.711537 -2.791332 3.263780 -8.487326 6.749907 6.843517 -2.982380 -4.214024 3.151796 -0.203644 4.549520 8.651007 4.285636 1.593736 -4.795660 6.557754 3.144560 6.369326 9.145476 -1.282606 -10.556263 -14.318498 -4.404714 0.801000 -3.474456 -2.813702 5.424183 -5.387491 7.274247 5.290602 9.230710 3.895412 -4.150301 -1.693363 1.536737 -1.675737 1.320227 -1.216358 -0.274677 4.986848 -4.350981 5.055914 0.883918 5.947066 3.902557 -4.643093 -4.871410 4.687380 0.394673 2.529124 -2.962663 -1.087165 1.975676 3.638365 -5.218772 -5.560768 1.986473 1.067732 -7.378618 0.506070 -1.839445 -1.481130 1.142487 -6.822867 0.728350 7.732921 -5.462998 -3.665373 3.000660 -0.653947 1.336809 3.300848 0.006437 2.466245 -8.568809 -5.328585 -1.158676 3.856271 1.958407 1.291507 6.477245 4.244913 7.757728 0.062553 5.711477 -3.533585 0.610582 -1.886930 1.555932 1.232523 -6.568335 -1.094012 2.003371 -6.394030 -11.862806 -14.977033 -7.253104 4.238803 -1.053712 6.574984 4.377073 2.885150 -1.156916 -6.155290 3.410496 -1.110430 1.350208 -1.864945 -8.683476 -0.696004 1.376410 2.736564 -1.338671 1.861027 1.230255 5.383928 5.622293 1.026767 -6.701334 3.554269 2.101400 3.367873 -8.049817 -7.079711 0.688188 -7.944561 4.428025 -5.062628 7.082892 -3.439970 -7.394342 -4.849356 1.411815 7.761525 -0.968631 -7.915742 5.450278 5.639081 -2.404921 -4.324222 -4.702851 -0.625364 -6.482479 5.569010 -11.892510 2.405688 3.707531 -5.768081 0.909684 0.426882 2.765666 -11.813360 7.680877 2.154465 0.671752 0.210033 -2.010253 -3.804927 -5.713029 3.754510 -5.745544 8.695912 5.461730 1.026529 0.738905 -6.878579 0.741779 -2.785643 3.055027 4.333590 2.941639 -5.436765 -5.846422 -3.703317 -8.102103 -5.870120 -11.791683 -5.365979 -6.878786 2.206240 -2.125970 5.527967 -2.061264 0.650134 -2.752190 2.528621 -1.731711 21.015567 10.556007 -5.910627 2.075114 6.984302 16.572004 2.126590 5.216779 2.378988 7.266369 -5.380366 4.709652 -6.169443 -10.994306 1.003555 5.908387 -6.411555 3.733029 -4.142524 -9.968025 -4.231074 12.439812 2.492090 -3.710782 3.800049 -4.532086 -8.510293 -5.969876 -1.208532 -1.349242 -3.941291 -2.375526 -1.626381 8.602807 2.371216 1.404865 3.729431 5.147085 3.099250 -5.735323 1.931310 -1.157220 6.706767 -0.856021 10.167222 7.121613 -0.047745 0.708896 -1.345357 -0.366413 -2.793419 1.294533 -8.801197 -15.399365 3.125615 -5.963902 -14.617811 -6.948770 -1.685908 0.434746 -11.181659 3.040490 1.615587 -7.623610 4.493523 7.632113 -3.292028 -2.812016 8.582907 5.149127 -2.695086 3.544717 -7.362711 -10.114714 8.180487 -0.261217 9.493810 1.074388 9.261950 -9.170736 9.401737 -14.164632 3.488597 -7.995635 -5.153671 -0.896398 4.153692 0.104180 7.308145 2.637460 -0.736198 2.125928 -11.228955 -4.697511 -3.419108 -2.544071 -9.854386 -3.913531 -12.798399 -1.515509 -9.684371 5.571388 -10.068686 0.440992 -2.950156 -0.416461 -3.926485 6.633120 -1.448749 -4.459517 -3.348112 2.270541 2.847422 -6.918337 10.586139 8.922024 2.507557 1.321919 3.851955 4.935715 -7.751550 -12.486123 -2.773968 -7.521315 -3.433913 -10.466371 -4.284673 -8.620998 -4.176520 -1.268239 -7.060973 -0.399001 -11.493485 6.822136 -14.955074 9.510717 4.889933 22.381284 18.637508 -10.837527 -3.370291 -9.893548 -4.844294 2.544850 -3.856514 -12.400978 9.683676 13.424776 2.340124 3.872378 -1.489283 -0.763934 -3.981889 -5.391165 -8.688190 -5.905853 8.518502 9.806038 0.855389 11.197641 2.812627 -15.981358 14.990118 22.318232 -1.331436 2.302358 3.906240 11.066691 6.221436 -7.841808 -3.176215 -8.682097 9.897708 11.179722 10.412661 10.790285 8.798348 9.719704 -3.046516 12.174567 6.600856 -7.162849 4.672862 7.368470 5.855338 -8.112237 14.793405 3.537698 5.620760 5.094503 0.329446 1.740043 4.659588 1.958851 -5.214929 3.278794 0.921110 1.392794 -0.714022 -9.247135 -17.583631 -5.757945 -3.767355 -0.479947 -5.444367 -2.786020 -1.547771 3.555006 4.311217 -5.062545 -0.456069 2.285672 8.668348 17.722645 -3.597363 -1.271414 -10.151641 -14.067988 2.709286 3.530809 2.110424 -6.088363 25.030499 5.824981 13.562554 4.580667 4.545694 -6.678281 -9.118129 2.525249 -3.586416 2.983863 -5.115009 -2.283563 11.515288 -7.925685 2.824299 2.343637 7.161255 1.834098 -5.922799 9.988782 1.450654 3.627293 2.832766 0.412185 3.400796 7.576813 8.152248 -1.697718 -2.399255 2.154307 6.902954 -0.457121 13.345907 2.331515 -2.425667 9.680165 2.205850 4.646053 -1.216668 3.513296 -6.963588 3.877967 -6.797119 -3.687256 3.386842 -2.320860 -6.112456 4.210674 0.869920 3.055301 -12.998464 -10.001903 -8.869433 1.175444 -2.709844 -4.582349 -2.573174 -1.803107 -12.055073 9.201382 2.729715 -4.032111 2.219239 -0.882043 6.474748 -2.002883 1.337247 -1.717634 -1.342309 -6.335904 -4.502422 -0.676102 -6.187925 3.116123 -3.504386 -2.589179 5.421435 5.577024 -4.569347 -0.614371 -5.290045 -6.541091 -7.704622 -0.423883 -8.605883 -6.358998 -19.883941 6.739245 0.171902 -4.013735 -3.271294 2.835532 5.876892 -0.518751 -0.757905 1.789937 -17.293649 3.217335 1.070977 2.153205 -2.084759 -6.249109 -4.155987 -9.031235 3.355732 -6.594160 0.152807 2.085673 3.316981 -3.763017 -0.426355 -3.065652 4.796516 2.245869 -11.684199 0.051192 4.735789 -3.001299 -2.833209 -4.151233 -2.776011 -2.893086 5.033056 -4.885402 -8.619959 -3.216579 -2.726169 -8.120100 -3.672904 -0.234284 -8.709177 -6.678002 5.102848 7.259396 5.866290 -6.770306 -1.546679 -6.685303 -3.079148 -0.706609 3.905349 -0.540190 -5.887568 -1.458662 3.407240 8.714058 -5.373749 -3.337658 -4.586846 -8.731311 -4.315258 1.424718 2.839942 1.064528 0.511957 0.178814 -3.031640 10.068876 -6.834069 2.950705 -3.297585 2.827579 6.189735 3.616247 7.638577 2.495413 -3.017338 -4.396120 9.959142 -1.504034 -1.064182 0.016570 -4.410433 -5.612068 3.759705 5.054458 0.495786 0.704058 -1.349326 -3.276803 10.315997 -1.050691 -13.135540 -2.770643 1.084820 -5.265541 -4.083698 5.621696 8.775212 2.570737 -3.095787 8.966377 -6.887855 -4.725709 -5.457222 -0.721432 -3.529853 7.607628 2.666268 6.903086 -7.930096 -2.051427 3.794098 1.957571 3.567171 2.759489 2.645764 -3.204576 -1.806181 11.777923 -12.785924 2.263460 -3.009515 5.967267 3.298975 2.514863 5.110021 -1.459027 7.209151 4.832483 1.080799 -1.209974 -2.416219 1.534419 8.647093 5.949401 -0.460791 -4.168508 -1.668256 1.640278 0.938319 -9.135471 7.701577 8.019003 0.142980 -4.518518 8.519646 -4.212439 7.175441 -2.458586 -3.169608 0.909102 3.455998 -10.263278 3.738412 -7.106547 0.521379 -5.022682 2.128678 -6.273025 8.488790 0.438819 -4.915821 -2.963376 0.788768 7.675180 4.221939 5.666919 -0.821897 -5.166799 4.314582 -5.147353 -6.078889 -1.325572 4.433603 4.908683 2.916690 5.024300 3.605567 -0.153208 2.517591 1.835695 -6.308875 -14.071287 8.981433 2.817930 3.673124 2.687288 -4.760526 -0.372935 4.301380 7.686920 7.289612 2.793030 5.304898 3.892296 0.207882 -9.719959 -0.582764 -7.756590 -2.687357 5.761198 -8.784755 4.686815 5.668198 3.769665 -2.976464 -6.436155 1.402562 -7.388734 -5.206779 1.589930 -1.580643 -1.467584 -1.143158 1.892475 -6.930845 -4.862489 4.262401 4.674532 -7.831599 -4.987252 2.116291 -4.552939 3.613459 2.119505 -6.173820 3.317685 4.461044 2.433369 -6.551094 6.381033 -3.504561 -2.851483 0.516686 3.012106 -6.001637 8.633318 5.829734 -4.009207 -10.096577 -0.849297 1.646585 -5.161918 -0.859638 2.451340 -3.616667 2.229691 6.440614 -1.020276 -3.396376 -6.991773 3.132154 -3.891698 -3.006665 -4.459909 -2.877453 10.309925 -11.881888 -0.098800 2.414971 3.701848 3.910585 10.114079 9.610045 -1.524579 -0.508624 -10.052931 6.094813 5.851442 3.687890 -4.696760 -7.078587 3.459944 -6.157174 5.786390 -13.945216 1.697399 0.869723 5.144021 2.875964 -2.964843 3.799546 -5.470155 3.886276 12.345305 -4.686569 -5.236305 -10.343829 6.203965 5.303371 -12.320036 -2.147989 -3.391164 -0.215493 3.690110 2.406453 -8.344697 2.206483 -3.751305 -0.588368 -8.634136 7.204937 6.858841 -8.859555 4.629908 -4.348916 -3.166766 -5.502800 1.579020 5.748904 -7.076793 -6.895871 -4.384263 -0.840247 -1.771184 5.932283 11.474211 -7.998752 2.608209 -10.884763 5.251210 2.237441 3.700961 -10.128296 -13.819047 3.801409 6.155844 2.802566 -0.770008 -2.032608 6.282718 -4.521862 -3.360309 0.358339 5.246112 5.360235 0.737972 -4.061535 -2.397630 3.279165 -8.659214 -0.746371 4.706922 0.324002 2.311794 1.702861 3.970872 4.761471 0.543664 3.193050 -10.418452 -1.428554 -1.110297 -6.178338 3.320431 14.964464 4.662650 5.606535 7.192610 0.295653 0.092930 0.372458 3.382362 2.342823 2.051110 7.228661 5.306373 -8.651643 7.958014 -9.431265 -5.862201 3.998294 3.093025 4.584439 -1.715101 -2.327274 1.351798 -1.699227 4.040944 10.516911 -2.751968 1.469238 -3.300076 0.894623 2.900106 -2.941856 3.890754 -4.594979 -4.985154 4.532010 -4.567779 7.255494 -2.714507 -1.053433 2.049175 6.588949 -0.786523 -7.934397 5.902496 -1.189534 -6.196297 3.773678 3.032989 9.473562 6.050839 -5.317304 -7.766382 -7.248064 -2.435464 -4.928228 6.866997 -2.933343 3.397326 -2.783736 10.954903 6.728486 -5.880733 -0.580988 2.641494 4.005960 -3.094365 -6.462831 6.647978 -13.738567 13.697108 3.674832 2.652378 -0.612657 3.002572 -0.358434 -10.979456 -6.653122 -1.716543 0.919387 -0.020577 2.714524 2.102512 6.348190 -1.140126 -5.744410 -1.018014 -0.805938 -3.580918 7.561072 5.075664 0.799904 0.733431 -9.170356 -3.412040 -2.748964 -2.144887 0.792934 -4.507762 -0.224260 4.626409 5.203520 -9.645409 -0.890150 -5.485249 -6.767772 2.420984 -1.224774 4.083523 -2.764776 -4.119122 2.158414 -6.780174 -4.869829 1.540323 5.824364 -7.066726 -2.118378 3.969787 -0.582790 1.356823 -4.190468 2.646016 1.236481 -4.647586 -3.088372 8.157228 -0.134029 -5.573932 -3.230094 -1.842036 3.162937 -3.727312 -2.232182 3.775338 -7.954816 2.093007 3.642889 2.203883 1.064767 -1.569302 -0.717924 -0.862583 -3.322474 5.335357 3.356411 -2.894181 -4.201314 -2.391243 5.800394 -2.005357 3.836057 -2.180985 -1.131651 -8.537275 9.585007 0.807464 -2.289932 4.023093 5.658548 -1.613261 1.298189 6.587132 -0.710127 -0.470899 -4.855443 -0.148738 2.205514 -3.772674 0.365525 3.094032 7.219151 -0.565466 -5.013763 -0.085600 -0.080017 -3.024902 -4.611490 5.026022 -9.538241 -1.342809 11.775941 -2.804064 2.936234 2.309794 -0.537013 -3.512206 -4.902060 7.150804 -13.741536 -3.911198 0.003428 4.634432 7.075846 4.472672 -1.534370 -3.506947 0.175675 4.603531 -5.239649 -0.782592 2.340849 -1.223754 -1.309407 6.744047 1.869400 -4.147083 -2.498480 6.202214 0.918113 5.265032 -3.808581 -7.043342 3.003357 1.505850 3.036394 -0.620624 2.815328 -5.711880 1.185929 -1.924775 6.168551 -1.273278 9.560136 -8.772480 -10.538751 -1.647845 6.061953 -2.099387 -4.096763 0.817782 0.482254 -0.486303 -0.684118 -0.277508 -10.481052 -4.478852 -0.741485 -1.223781 1.035324 0.586739 -7.226056 2.534908 6.219671 -1.724274 11.251979 -5.135810 -5.642897 1.165558 -7.073742 4.909205 -12.542149 -2.662812 -9.774445 8.358765 -5.739351 3.381044 4.822844 -9.843783 -1.719085 0.892747 2.575320 -1.959962 1.326724 -1.548940 6.055779 -4.236529 -2.950837 5.620163 10.926325 1.465987 -1.432594 -5.142725 -5.840986 3.116793 1.422020 -4.267714 5.127142 6.174757 -8.995028 1.664666 3.932164 -0.324918 -5.842693 1.816203 -1.172809 3.661462 -13.084143 7.087994 1.840008 10.807880 4.224746 -4.188147 -7.102529 -7.255649 10.123322 -2.035474 -3.808399 3.340011 -7.589745 -5.487898 3.521621 -10.526341 10.430046 -1.113362 -5.709201 1.106876 5.851777 -6.952167 -0.056612 0.425088 -7.622628 4.544890 7.852259 2.356631 -6.309619 6.781558 1.908121 5.586035 11.248988 -4.679725 -10.017580 4.135587 0.146420 -3.229644 3.227190 5.670500 -3.868302 -2.464991 1.558257 -9.167938 3.919319 -7.555350 5.420360 8.332047 5.530828 1.317797 -11.261866 3.561427 1.765794 5.698453 -6.436740 1.892908 4.270311 -5.263608 1.595774 -1.177242 -13.226380 8.965254 0.609294 5.167616 5.782629 7.165828 -5.252647 -11.002659 -1.540030 3.591287 1.520377 -1.572620 -10.313962 -1.248633 3.634747 -3.601240 -0.115009 -4.813294 9.651425 -9.793284 -6.598375 11.001802 -3.559118 -3.071075 0.548854 5.915704 -2.223843 0.655368 3.404636 2.003353 -9.253275 -3.382083 0.360753 4.578569 -0.227361 -5.018947 4.812436 -2.290001 5.593118 -1.732342 -0.825251 -8.128334 9.871257 8.541590 -10.153986 -5.962809 9.579239 5.642300 0.023256 -1.734868 2.633806 4.059426 -0.357305 -2.427846 1.564286 -1.269150 -8.520921 9.900825 -6.185094 -1.492384 6.862595 -0.255034 -7.985663 -2.480682 3.997958 6.924485 1.547838 -0.808382 5.299326 -4.173901 4.739050 -7.049193 -4.204194 -0.145450 -0.225483 2.143597 -6.331898 1.459006 -9.386136 6.291452 -1.535746 -3.793197 5.182314 0.779498 -4.861961 -0.992085 2.081830 5.874092 -1.841989 -3.432269 3.142328 -11.000561 -2.556305 8.142926 -5.268685 1.211270 -14.260298 -6.494255 -0.282758 8.828675 -0.209437 4.858193 -1.372090 -1.185231 3.601354 -10.958530 -2.253772 3.249640 -3.461311 2.100461 -6.316769 -4.019629 -3.398217 -2.874503 7.571940 1.687787 -4.102520 2.401084 -3.669727 -5.665542 -6.928751 8.005741 12.045307 -5.568181 -3.119854 1.146548 2.778273 -2.002827 6.294964 -3.036605 -1.961825 3.776765 -0.173162 -2.925377 -4.378914 0.096690 -5.398859 1.205476 -4.376591 -0.351504 2.090513 1.143257 5.657074 -1.492161 1.840955 -3.902294 0.006153 12.488280 -4.834856 2.292702 -2.999080 1.018660 5.228330 -1.772979 7.047837 -5.279751 -5.410931 -0.879569 -3.149063 5.290006 0.756551 -11.656330 5.495381 -1.560522 6.097752 -1.511366 -2.778731 3.632103 -0.493970 -0.442245 4.733392 5.997399 -3.697959 8.077117 -9.516404 1.616763 -9.216818 6.888032 6.703737 1.746749 -0.725185 -9.968268 9.203320 -2.417606 0.754889 8.487606 -3.969633 0.185847 0.189955 5.605267 -4.367590 -5.071480 -0.074693 4.915192 7.829669 0.022422 3.417084 -2.266671 -6.415245 3.327492 7.141046 -0.539585 7.593661 -1.807879 -0.728266 -0.528277 -0.139150 -0.099291 15.234076 2.631916 -2.914140 14.319778 2.286249 -1.102420 -12.901523 -1.917881 -6.510705 -2.363980 -6.545531 11.339267 2.260762 6.393409 -5.587065 -3.042450 5.567299 -2.147645 -11.727765 0.313276 -2.106562 2.836567 1.204687 3.673116 -7.714711 7.553216 -0.437636 1.748017 -1.559315 1.861017 1.120621 -9.893006 -3.742302 -5.186107 6.228607 -6.987177 5.591759 6.251131 6.280159 3.756708 -10.033668 1.627067 0.571781 -5.303128 -8.866452 -7.906304 4.894939 -0.537450 9.298130 6.125661 1.796066 8.908194 -4.342126 2.402736 16.740411 5.972732 -0.875180 5.785185 5.071352 5.757259 4.060795 -3.589561 1.374531 -0.923911 7.584863 5.354422 7.043072 0.768404 6.844037 7.972585 -1.740816 2.561896 3.012410 -2.092387 -3.240280 9.202789 -0.769102 2.678105 0.389932 1.525097 1.528429 -0.951725 -4.740999 -12.548942 -10.042182 -1.386903 -6.420677 -4.430389 -10.249908 -6.470598 -2.367713 2.571467 3.438823 4.385998 -4.766892 -10.867014 -7.486775 9.394789 -8.078853 4.231411 -2.163459 -1.495875 -1.993034 5.659500 -9.529565 0.794039 0.326476 -8.060528 9.183447 5.494529 0.713518 0.086407 5.614584 -1.748120 3.242316 -2.863910 -6.791298 -2.019644 -11.735702 -2.940136 -5.122333 -3.733497 -3.085145 -2.440438 0.478949 7.095140 1.495820 -7.013155 0.520567 0.000852 -3.519435 -3.009515 8.234950 2.420563 -6.588608 -1.520127 -0.894787 1.157460 -10.242721 6.218220 -6.307597 -7.191386 2.544730 6.441719 -4.211624 -8.223926 5.373449 -7.323161 1.752463 0.706175 5.576458 0.520973 2.727502 1.937583 0.932988 -7.211681 0.341221 -5.024241 -6.281848 -7.007940 -2.217811 0.482567 -8.166996 4.585588 -5.079599 3.701137 1.608491 5.787986 -1.771897 -3.955856 -0.039839 1.865201 -12.225517 -3.204290 5.405466 2.643732 8.433557 -2.005751 1.746038 0.797822 0.136048 2.186540 1.268717 -4.061174 2.432186 1.552519 8.391600 2.735533 -0.312254 2.890857 -0.465959 -2.881504 -4.405577 5.124609 -1.841345 1.317352 -6.384417 -1.171693 -0.933996 -6.049902 -6.544545 -1.727432 8.823312 -5.178183 1.717312 1.501645 -6.725689 2.671416 -1.084845 1.752414 -1.832815 -0.958446 4.443154 -12.780073 4.397849 10.236995 -9.018322 -6.034505 1.805715 -1.503044 0.174348 5.117725 -3.861430 2.374917 1.439999 -4.262186 4.489178 -4.762725 2.008256 -6.653408 -1.706473 3.646408 4.425015 -2.425803 -6.547305 3.757720 -0.663995 -3.723523 -0.004028 2.759751 1.395290 -2.093855 -1.188633 4.259786 -0.231750 -5.526918 1.609916 -4.080507 1.929231 3.334987 -5.466104 4.029316 -2.594683 0.678968 -5.149932 1.755618 0.875673 -5.015501 -0.786100 -0.648149 1.752620 3.050081 1.894243 1.259763 -4.340288 -2.851266 0.372119 2.302399 1.093703 -11.987582 -4.949971 1.543926 0.004691 1.665454 3.720702 -4.938234 -3.534644 -0.078620 7.036058 1.246290 -1.757339 4.457684 -2.198390 -1.840401 3.672567 -2.606246 0.702583 0.478023 -7.093412 10.492434 -1.003302 1.942659 -1.117119 -7.730290 -2.524726 -4.642659 4.480001 4.995954 0.876597 0.990732 -6.619787 3.429526 4.277906 5.091803 -6.681087 -0.994135 -2.773053 -4.796249 -6.040954 3.780145 10.033646 3.602874 5.279334 -5.921067 4.278076 -2.607697 0.700048 3.123889 -5.168095 2.166881 1.509074 6.263464 -6.188104 -5.950979 -0.769544 4.316747 -7.895509 -2.434256 1.585429 -1.717329 0.870379 0.620295 -6.954872 0.366422 -2.487560 0.572624 7.537673 -5.264044 4.387296 -7.332069 2.894028 6.364563 -6.294392 -6.454039 -6.501885 0.763118 4.359011 -0.233116 -4.970605 4.654484 -4.869485 -3.888867 -0.382455 4.700003 -10.288710 10.836394 1.944503 -4.284092 2.024970 4.122425 2.270813 3.289924 -12.632209 -0.315344 1.876020 0.488764 2.267417 4.333871 -4.480783 -5.778695 6.330689 1.051623 -7.585759 0.323043 -4.564610 1.431632 5.152555 -4.366702 4.754729 5.515169 -6.759310 5.406435 -4.071829 -0.228747 1.798051 6.303242 1.374626 -1.732392 -0.613332 2.079679 -4.141914 -2.892364 -4.280710 2.202343 0.928749 -4.756511 -5.533348 1.458813 2.933382 -1.440370 9.146263 -1.517893 -11.193691 -4.807712 -0.811362 0.931588 9.836609 4.089792 0.468115 -7.123744 -4.472706 -6.054250 5.376906 0.451418 7.887100 -2.236108 6.521452 4.189931 -2.549948 -1.504943 -5.764996 -3.588662 7.385085 7.185730 -2.866996 3.903450 -1.762587 -6.285053 0.703355 -4.469944 -0.372083 -0.381154 0.059722 -2.544126 5.955642 1.359780 -1.768577 4.175260 -7.190206 -4.700290 1.837449 -4.001641 9.700794 1.145521 -3.855742 -2.323456 1.224161 -7.284785 9.966470 -11.206991 3.061917 -5.774595 1.293737 2.764439 4.000225 7.882825 -5.136379 2.267094 -1.098092 1.637746 -1.860201 -3.557623 5.629282 -6.746870 -4.392934 9.860262 -1.349383 -1.226315 2.025976 -8.276085 -8.375766 4.331561 2.532378 -4.157835 2.546740 -0.365507 -3.212792 15.127111 -5.533309 1.597481 -1.252092 4.650360 -7.803809 -0.090158 -2.118589 13.575544 -1.726560 -0.764809 0.313831 5.529415 0.629422 -4.765412 -2.235246 3.913985 4.852050 -7.144163 -1.397703 4.755349 2.866416 -3.535713 3.426396 -2.180842 11.226311 4.676505 -1.467057 -0.115947 -6.956639 5.857901 -1.643231 6.969711 -2.573855 6.809794 -2.724364 3.618043 0.220464 8.176127 0.679120 1.038238 -6.035932 -0.785937 -5.413089 -6.064341 1.397467 -6.581050 3.455580 -0.352372 5.052400 -6.994277 8.448448 5.552947 0.809772 0.775509 6.275089 1.806136 -4.111831 -4.597728 -2.496340 5.829871 -14.352445 -1.300435 12.168064 4.975521 -7.394018 3.765313 -1.756083 5.683378 0.622006 1.027135 -3.959158 0.190064 -2.374318 -1.818965 1.397980 8.632476 3.093953 -5.393715 -7.898326 -7.377834 2.254623 3.128931 4.415736 -6.882357 -3.839193 2.562619 -6.732443 5.211983 5.881174 -6.157112 -9.118702 1.999876 0.854863 -5.702816 3.911480 2.960264 -3.480990 -7.690809 0.320375 4.852864 4.771129 -2.084055 -5.839504 6.667592 -6.423792 5.455447 8.570302 -1.751818 1.524685 -1.110232 -5.486933 3.548168 -2.804901 -1.699604 1.461360 3.783898 -5.311108 -3.443473 -1.900920 1.026521 10.275018 6.571525 -0.355209 -2.136368 -3.387289 0.088912 -0.483392 -10.443346 3.734771 2.449580 -1.298893 1.504902 -6.173976 6.259730 -1.638540 1.394043 3.447035 4.998635 0.710351 3.035296 -5.204151 9.451700 -1.607240 -8.527942 7.602428 7.751503 -2.870701 -1.715524 2.663343 -5.797406 3.354054 -0.134419 7.886904 -5.026010 7.509412 2.751870 1.864631 4.025276 -1.874127 4.460931 3.027701 -2.589584 -1.211037 2.391856 6.970383 7.100773 -4.842331 8.177017 3.469786 -2.532903 3.910523 1.033611 3.876817 -4.788268 -7.107831 1.180081 -4.187049 4.989386 -9.164832 5.087393 -6.597337 3.465550 -0.296360 2.584594 -3.084262 3.353387 -5.081356 -3.327231 0.537556 0.359285 -10.043907 -1.279175 -3.146639 -2.542236 -2.161363 8.829111 -4.571436 7.022252 2.217855 -8.653955 4.415746 10.464530 1.486745 5.922680 -5.188094 -2.635891 5.630096 3.543854 10.006234 -3.079093 -13.435265 -8.105189 -2.843014 -0.174477 6.924211 0.018939 -6.902789 -6.686813 -4.446818 3.879088 -0.876139 -3.044195 6.004596 -3.753550 -0.310942 -0.501047 -0.306629 -0.625857 -0.617297 2.212158 -1.389417 -3.546397 12.909387 -12.215024 4.748302 5.714110 6.266031 8.655500 -9.105328 2.837588 -3.410399 0.161431 2.271521 -3.258581 -1.623142 -1.021986 4.518210 2.567312 -10.971098 3.554290 7.389111 -0.853296 -0.784136 -2.231417 1.428640 -2.329343 0.877764 -4.411373 4.791015 2.944757 -0.803092 -5.514304 1.765609 -1.611286 -6.769588 8.210071 -4.896573 -5.965387 6.121362 -3.709728 7.071113 -5.985626 1.679876 -1.826441 -9.192536 -3.767210 4.659837 -2.625763 -7.502947 -2.181422 5.970872 2.654653 -4.098208 -2.398326 -1.591632 -4.446891 -8.901382 6.522325 1.046633 -7.722979 4.937706 3.098966 -9.035130 6.095615 3.957860 1.956775 -1.932013 -3.351521 -2.281091 2.750109 -11.425892 2.531018 -3.658725 2.240421 -9.439485 1.444799 3.146615 1.143966 -4.760808 -8.129084 -10.426327 2.384713 5.448207 7.751906 -2.681584 1.343088 -4.234523 1.572254 -4.871436 -8.560274 1.974900 8.415910 -7.939531 2.260275 -3.244113 0.086383 -0.967381 6.769165 -0.810339 -3.309852 3.150781 -0.721901 -0.994203 -3.455971 0.506209 -2.543039 -4.602989 -3.142430 -2.316913 -9.643844 8.464975 -0.126536 4.497455 0.138773 0.356881 -7.696152 -5.571543 -9.068837 0.922492 4.838128 2.523858 4.043660 0.175222 -2.494867 -2.192472 -9.518962 -1.586134 0.850973 2.499161 -1.428505 -3.465232 5.321267 0.178835 -3.037814 -4.708667 9.664947 -2.048017 -4.420861 4.979002 -6.911857 -0.021233 1.994679 -3.772378 -0.372772 -5.482049 6.577052 -1.595336 -1.282733 4.279459 7.801709 4.736060 5.537054 9.361596 -1.202120 -8.096510 -4.722118 2.205433 -1.638914 -1.143990 -2.540491 -6.222218 3.466802 19.723099 4.982443 -1.280527 3.221125 -2.101273 -6.945233 0.454099 8.553627 -4.533391 10.244161 -5.111394 -0.137303 -0.056446 5.401140 -4.031267 -4.836105 5.394339 -1.582728 3.932394 2.850994 12.779175 0.869891 -1.362578 -15.170019 -9.333611 -6.451791 2.617452 -6.355838 -1.318452 4.681006 -4.934642 3.877776 2.244688 1.428589 -7.114320 3.136325 1.858152 -2.038756 3.594330 2.542380 1.616787 0.777424 3.276345 2.129023 3.821991 0.136270 -7.232793 -6.988704 3.038372 -1.093204 -1.135213 2.096106 4.295658 10.182524 -1.195948 -2.771713 1.216280 -4.273140 -3.166286 -2.137991 -8.737872 -0.747301 1.782049 8.492865 2.619014 7.196269 -10.057496 3.863716 -5.358618 1.240746 3.081951 -5.371224 -5.649407 6.479625 -1.020058 -3.754701 0.368023 -1.867686 0.906069 0.170706 -7.327973 2.868087 6.729788 6.581191 -11.111006 3.749564 -2.408601 7.890142 2.027470 -8.285108 0.412280 -2.349624 -1.913172 8.327432 -4.505673 -7.692550 7.842300 2.440779 5.967377 -1.190591 -7.369519 -7.190282 2.500159 -4.091282 9.514070 -6.345238 -3.640708 2.670021 3.880561 1.851987 -9.135819 -2.652927 -4.549229 8.940028 -5.159518 -0.708091 7.491340 -0.446979 -3.342609 2.834883 4.650981 2.414434 -3.639510 -4.331678 2.332158 6.066374 -1.563320 -0.758607 -2.448042 0.987526 0.109744 -12.826260 4.593099 2.755437 8.921645 -2.155732 1.945815 4.268831 -5.236084 1.553934 1.072910 -1.628436 -3.743309 -2.114851 1.280031 -2.126637 3.668346 2.529786 -5.839923 1.414832 -6.636425 3.139296 4.114974 -4.886056 2.141097 4.151250 0.171770 4.859627 -6.602997 8.906602 0.547535 -2.027317 1.538794 -1.005643 4.607787 2.819192 2.444818 2.081095 -3.177631 -6.676561 -6.687626 10.993910 -3.335861 -1.971359 7.184907 0.187756 2.427442 4.240932 3.613998 2.515037 7.176321 -4.764807 -0.009669 0.550209 0.748805 5.678914 -3.385686 1.280673 -1.224635 7.267999 -2.814731 3.809226 -9.436627 9.681038 1.249378 0.987804 3.838157 -1.703082 7.076573 -8.111659 0.598381 0.731795 5.839551 6.432085 -0.321851 3.457357 0.264600 -7.022930 0.753534 8.490253 0.617789 -1.773365 -5.107868 -0.034041 -7.980169 -0.234208 5.120302 8.507559 0.582919 -6.568614 6.721086 -3.442976 2.462475 -3.405772 -1.503183 -5.989513 3.592666 4.784262 -2.243146 6.499093 -8.084408 5.093716 -4.718138 -3.066987 5.475184 3.483543 -7.887087 0.003719 -7.229058 -0.159740 -6.006980 -1.472988 6.414034 6.216752 6.377899 1.641757 11.724974 7.522843 -7.855990 -2.018563 6.854955 -6.004934 5.874800 -8.215037 5.575615 -1.761908 1.492966 -1.419588 -3.262857 5.798451 -4.166980 7.613017 -5.169399 -2.939833 8.275303 -4.927192 4.376785 -4.694532 -12.594630 4.230598 4.835340 0.144161 -7.728384 3.585725 -2.847266 2.281358 3.736429 5.225492 -4.154074 2.553462 1.904650 -4.147030 2.261946 4.249022 0.348535 -2.370060 -1.010818 4.659781 -2.387612 3.619290 -7.410047 0.648696 -2.240168 -1.593994 -1.140984 9.504527 -11.510576 -4.871434 2.181656 6.132757 -2.001966 9.074281 -3.404950 -7.286176 0.248192 7.655245 -0.697214 12.150723 6.262131 -3.008534 0.893620 1.102702 -1.802117 6.210576 2.120365 -3.100932 1.001784 -1.325576 -10.967024 -7.159394 -6.958798 0.200682 -8.224565 -2.847876 -1.894761 -1.753850 0.663956 -5.183210 1.469533 -7.324682 4.852093 -5.257227 8.773064 7.716455 -5.452536 4.130747 -17.719456 3.501215 -4.096304 -3.268003 7.518368 4.774112 3.066272 -3.556260 -1.891093 -6.726060 -7.663393 -5.499799 3.509007 4.148093 2.202596 -3.575425 -2.181952 3.244604 -6.398397 -2.123428 -6.620307 3.104878 6.256361 -1.557227 1.584345 1.155102 -1.910123 -4.434895 -8.140425 -7.983961 1.776755 5.474002 -2.131318 3.699046 -2.417303 0.713562 -5.353366 -3.763960 -12.959979 3.773768 4.263556 -3.149773 0.290768 -2.124975 8.461027 -0.731642 -0.662186 -2.856967 -4.458207 -3.439343 -2.958236 -4.829141 6.545768 -1.260742 1.394812 8.333926 -2.306022 -6.893511 3.003160 1.831753 5.400115 -4.414537 -14.930580 3.094661 1.171281 2.220954 8.599619 -3.880569 -9.878200 0.874427 5.215356 7.333110 -8.297442 3.221814 9.954848 10.834929 -1.021418 -2.300460 4.660884 -7.404909 -5.174831 4.430568 0.589975 2.687422 -0.484466 -4.640515 7.132120 -10.860502 10.797679 -0.680884 -2.656419 0.928331 3.525773 4.842464 0.196072 -6.701865 -3.858450 5.097590 0.322615 5.124401 -16.432402 5.375891 0.671553 -2.734862 5.591567 -0.855196 -2.654184 -4.638263 -5.257377 3.836053 4.456223 -7.288982 -1.894118 -0.915347 6.604272 0.892790 3.286842 2.673920 -8.283396 -2.858179 0.454497 -0.059111 7.096088 2.294057 1.981219 1.432192 -3.927759 20.272331 -7.423423 3.334913 -7.261567 3.647916 1.778227 -4.193147 0.615204 3.241226 -10.362990 3.263808 7.390162 -0.390850 -0.384814 -4.543037 0.071916 1.912112 -11.703256 2.750661 -3.295797 10.318605 3.572707 0.154343 -4.430503 9.995591 1.139596 2.820857 -2.725473 1.554244 1.022266 -4.672567 -2.760552 8.554190 -7.161646 -4.692653 -2.653744 8.565684 -2.890225 -1.957421 2.028073 1.377138 -4.678459 1.894320 -1.026270 -0.893154 4.303158 -2.178325 11.352265 -5.420592 -0.565140 7.427810 2.343259 1.375064 -6.395097 1.926545 1.056536 -4.656858 -5.358134 7.122326 -0.451430 -5.677945 9.446367 -3.621468 0.010485 7.603613 0.415675 2.775933 -3.026826 -1.138670 -3.396105 2.848679 1.939851 -8.805335 