2.218352 2.218352 2.218352 3.039724 4.466358 4.763369 4.762180 4.760989 4.759799 5.133125 5.131841 5.130558 5.129459 5.128177 5.511212 5.509834 5.526978 5.525596 5.527417 5.526436 5.525054 5.524258 5.522877 5.521637 5.520257 5.518876 5.517753 5.516569 5.516797 5.515418 5.514039 5.512661 5.511283 5.514895 5.513837 5.524193 5.523088 5.521718 5.521167 5.519787 5.518407 5.517027 5.515781 5.514402 5.551423 5.551320 5.551689 5.551839 5.550523 5.549135 5.562131 5.560741 5.559351 5.558939 5.557695 5.566471 5.565081 5.564983 5.563591 5.562200 5.560814 5.572471 5.571192 5.569928 5.568588 5.567218 5.584685 5.583307 5.582103 5.581203 5.579889 5.582682 5.582316 5.580920 5.581390 5.592403 5.591389 5.590001 5.588608 5.612398 5.611398 5.613473 5.614012 5.612609 5.611438 5.612051 5.610689 5.609511 5.612557 5.611222 5.613764 5.612918 5.611592 5.610200 5.613193 5.615039 5.613650 5.612247 5.611048 5.609647 5.608534 5.609166 5.607780 5.609357 5.608096 5.608264 5.606863 5.605466 5.606442 5.606569 5.607599 5.606198 5.604837 5.606535 5.605820 5.604506 5.606291 5.606681 5.605350 5.604340 5.602939 5.601594 5.603626 5.602237 5.600847 5.599447 5.598053 5.598092 5.600347 5.598947 5.597576 5.602205 5.601220 5.599900 5.600360 5.599986 5.603743 5.602453 5.601052 5.601695 5.600397 5.599586 5.598245 5.596845 5.596290 5.603825 5.602966 5.601754 5.600712 5.600492 5.599370 5.597991 5.599339 5.598468 5.600610 5.599658 5.598363 5.598713 5.597385 5.601908 5.600704 5.599504 5.598160 5.598720 5.601078 5.600018 5.598648 5.597390 5.600781 5.600588 5.599201 5.597802 5.596481 5.600667 5.601622 5.600537 5.599560 5.598160 5.597374 5.596044 5.598533 5.597307 5.598137 5.596878 5.610114 5.608910 5.607856 5.607538 5.606163 5.623533 5.623282 5.623813 5.628946 5.631627 5.630248 5.633576 5.632258 5.634587 5.635009 5.633729 5.632519 5.633184 5.634129 5.632779 5.633932 5.632565 5.633013 5.633523 5.632141 5.631060 5.633737 5.632978 5.633916 5.632591 5.635852 5.636380 5.635089 5.634026 5.632620 5.633848 5.633554 5.632264 5.631191 5.630077 5.628927 5.627527 5.629204 5.627894 5.627478 5.628854 5.632490 5.631398 5.630979 5.629753 5.628346 5.627425 5.626899 5.625871 5.624464 5.625551 5.624893 5.625290 5.623929 5.623158 5.622993 5.622705 5.624383 5.624280 5.622963 5.622256 5.624397 5.623844 5.625058 5.623712 5.622613 5.624942 5.627431 5.626552 5.626311 5.625454 5.624456 5.623654 5.622256 5.620893 5.621164 5.621932 5.624964 5.625661 5.629883 5.629658 5.628500 5.627833 5.630097 5.633566 5.639778 5.641024 5.640793 5.641733 5.640899 5.641461 5.645566 5.652022 5.651312 5.657173 5.663141 5.661772 5.660414 5.659334 5.658844 5.660436 5.663145 5.661927 5.661734 5.662885 5.661666 5.660281 5.663509 5.666320 5.665258 5.665199 5.663789 5.663213 5.666716 5.666401 5.666090 5.665775 5.664416 5.663969 5.668284 5.668927 5.670172 5.677236 5.679237 5.677911 5.677062 5.677665 5.676375 5.675980 5.682852 5.683622 5.686074 5.684904 5.684702 5.690460 5.705869 5.710324 5.709472 5.708327 5.708524 5.707165 5.714967 5.722400 5.722775 5.721393 5.720730 5.728674 5.731329 5.729913 5.729802 5.730826 5.731661 5.730890 5.731008 5.730475 5.729614 5.728641 5.728336 5.727487 5.727049 5.730523 5.734018 5.733078 5.733155 5.733991 5.733533 5.733854 5.733640 5.739219 5.737806 5.736724 5.735419 5.734988 5.734293 5.734280 5.732926 5.732671 5.731432 5.736524 5.736635 5.735774 5.738810 5.738925 5.738683 5.737759 5.740713 5.740597 5.740976 5.739895 5.741927 5.740699 5.739837 5.738762 5.739214 5.738990 5.739478 5.739950 5.739691 5.739620 5.740226 5.740166 5.741618 5.740946 5.745813 5.744778 5.743371 5.746844 5.746591 5.750510 5.749735 5.751103 5.756278 5.755973 5.756169 5.757162 5.760917 5.761522 5.761897 5.761059 5.760860 5.759513 5.758648 5.758150 5.757193 5.760227 5.759378 5.760897 5.763257 5.762651 5.763275 5.766574 5.765770 5.769940 5.770610 5.770345 5.769253 5.769177 5.773150 5.772136 5.770898 5.772060 5.770699 5.770475 5.769586 5.770661 5.773507 5.779046 5.780562 5.780854 5.780387 5.781169 5.781422 5.782732 5.781640 5.780567 5.781489 5.780867 5.781136 5.780199 5.781433 5.780382 5.779756 5.780089 5.783537 5.787291 5.785950 5.784518 5.787441 5.789651 5.791180 5.792846 5.794263 5.792963 5.791940 5.790666 5.790071 5.790889 5.789836 5.789633 5.788816 5.789185 5.788641 5.788861 5.789553 5.788890 5.788550 5.787872 5.786542 5.787871 5.788349 5.787653 5.791785 5.793594 5.794997 5.794828 5.795650 5.797335 5.797430 5.799970 5.803021 5.814375 5.815185 5.814315 5.815108 5.817495 5.817817 5.817089 5.818359 5.817042 5.818104 5.817257 5.815805 5.815474 5.814673 5.814203 5.813373 5.813857 5.812458 5.811780 5.810936 5.809949 5.809875 5.809045 5.808568 5.807488 5.807439 5.806056 5.805597 5.805057 5.803678 5.804022 5.802837 5.802133 5.801958 5.802620 5.801295 5.802089 5.804343 5.806610 5.808085 5.811546 5.813135 5.815016 5.820599 5.819398 5.821719 5.821226 5.820564 5.825850 5.825162 5.826704 5.825780 5.825216 5.824826 5.826399 5.825860 5.827736 5.827057 5.825884 5.829189 5.830021 5.829168 5.832107 5.834705 5.835862 5.839428 5.839058 5.838417 5.840340 5.840374 5.840404 5.839131 5.840238 5.840686 5.840078 5.839312 5.838335 5.838099 5.837427 5.847750 5.846495 5.845735 5.848023 5.847564 5.847416 5.846103 5.844853 5.845531 5.845680 5.844942 5.843671 5.853316 5.862586 5.864756 5.867281 5.867326 5.866197 5.865574 5.865703 5.864896 5.866395 5.865063 5.864708 5.863282 5.863741 5.863453 5.862407 5.862854 5.861907 5.864043 5.866429 5.865370 5.865844 5.866511 5.866325 5.865114 5.868746 5.870089 5.869007 5.870098 5.869109 5.867735 5.868865 5.868475 5.867056 5.866851 5.867210 5.867205 5.868405 5.867467 5.867731 5.866911 5.871845 5.872665 5.872297 5.872968 5.873531 5.872941 5.871943 5.872652 5.871753 5.870398 5.870199 5.870821 5.869567 5.869671 5.870008 5.871451 5.870169 5.870510 5.870767 5.870090 5.870066 5.869672 5.871058 5.871823 5.871204 5.873151 5.872476 5.871376 5.871309 5.871384 5.871026 5.869595 5.870323 5.871226 5.873490 5.873066 5.872348 5.872345 5.871430 5.873302 5.874522 5.873835 5.874623 5.875297 5.876087 5.876751 5.875461 5.875103 5.879016 5.878642 5.877527 5.876412 5.875281 5.875170 5.875757 5.875206 5.875257 5.877603 5.876175 5.875894 5.876341 5.875606 5.874474 5.873649 5.872263 5.871431 5.870338 5.870257 5.869992 5.870207 5.871994 5.871818 5.870724 5.872038 5.876038 5.878392 5.878168 5.879941 5.879627 5.881209 5.879818 5.879514 5.878184 5.877613 5.877308 5.875961 5.878208 5.877668 5.878047 5.876870 5.875635 5.881400 5.880983 5.881048 5.881227 5.881095 5.881785 5.880502 5.882909 5.886446 5.886688 5.891610 5.893115 5.893730 5.893403 5.895105 5.896135 5.895638 5.896679 5.897058 5.895983 5.900154 5.899877 5.899358 5.900536 5.899688 5.899824 5.899048 5.903972 5.903189 5.906255 5.905317 5.907314 5.907190 5.906563 5.905336 5.905051 5.904283 5.903678 5.903600 5.902398 5.901599 5.904170 5.903561 5.902348 5.901137 5.900531 5.899867 5.899236 5.900405 5.899606 5.900144 5.902355 5.902734 5.904410 5.903897 5.903565 5.902854 5.902620 5.901596 5.901436 5.901965 5.901046 5.899829 5.899962 5.900984 5.900802 5.901268 5.900210 5.899573 5.900612 5.903665 5.902606 5.901568 5.905583 5.904569 5.906601 5.908270 5.907343 5.906287 5.906235 5.906378 5.907021 5.905987 5.905266 5.904378 5.906186 5.909275 5.908932 5.912441 5.915662 5.915481 5.916144 5.917953 5.920896 5.922495 5.922922 5.923407 5.923995 5.924270 5.923291 5.922839 5.922160 5.921948 5.920970 5.921142 5.920375 5.920141 5.920322 5.921251 5.919866 5.920208 5.919958 5.919131 5.919049 5.920183 5.921120 5.920215 5.919988 5.920775 5.920489 5.921277 5.921894 5.920741 5.923314 5.924456 5.925005 5.924563 5.923930 5.923596 5.922843 5.925516 5.924544 5.925678 5.925606 5.924995 5.923888 5.924581 5.927707 5.926858 5.927032 5.925989 5.925873 5.926258 5.925341 5.925488 5.925130 5.926604 5.929682 5.929445 5.931537 5.931724 5.933017 5.932202 5.932751 5.936358 5.936206 5.936918 5.936151 5.937418 5.938621 5.938586 5.937236 5.938790 5.939320 5.939198 5.941437 5.940521 5.939932 5.943111 5.943783 5.943797 5.943607 5.945188 5.946178 5.945774 5.945247 5.944384 5.946257 5.946103 5.952524 5.953412 5.954902 5.956513 5.959216 5.959681 5.959439 5.958151 5.958227 5.958709 5.959220 5.959215 5.959484 5.958745 5.959009 5.959031 5.957770 5.957641 5.957565 5.956764 5.957621 5.959650 5.959000 5.959097 5.959315 5.962107 5.961632 5.961849 5.960673 5.959790 5.959451 5.959239 5.959994 5.959632 5.962094 5.961960 5.962119 5.961662 5.960521 5.960341 5.961102 5.962453 5.963209 5.963826 5.964427 5.963153 5.964263 5.963334 5.962736 5.963646 5.964614 5.964344 5.965556 5.968295 5.967717 5.966966 5.966605 5.966538 5.965561 5.967541 5.968144 5.967662 5.968890 5.969457 5.969075 5.972223 5.972994 5.974107 5.973330 5.973401 5.973501 5.975635 5.975937 5.975432 5.976325 5.975856 5.977481 5.979793 5.979428 5.979119 5.981258 5.979835 5.979550 5.978849 5.980086 5.980576 5.983146 5.983406 5.982362 5.982733 5.987090 5.987257 5.989330 5.988574 5.989349 5.988506 5.991268 5.991474 5.992971 5.993461 5.992561 5.994974 5.998395 5.997233 5.997055 5.997629 5.998037 5.997784 5.999221 6.000737 6.001333 6.001016 6.000051 6.000275 6.002062 6.001512 6.002553 6.001850 6.004831 6.005960 6.006103 6.006900 6.006481 6.008843 6.008028 6.008954 6.010117 6.011876 6.012253 6.012969 6.014692 6.015268 6.017416 6.016061 6.016859 6.019594 6.020032 6.022677 6.022630 6.025296 6.024386 6.024826 6.026809 6.026799 6.026308 6.025782 6.027414 6.027824 6.027463 6.027116 6.030031 6.030114 6.031034 6.030230 6.029734 6.029395 6.028529 6.032118 6.033288 6.032499 6.034181 6.034537 6.035058 6.034305 6.034522 6.034499 6.035211 6.034852 6.035156 6.035656 6.036587 6.036000 6.035330 6.038810 6.040740 6.039850 6.041104 6.041815 6.042820 6.048114 6.047093 6.046746 6.048983 6.049865 6.049271 6.050519 6.051267 6.051879 6.052946 6.054902 6.057384 6.060129 6.062237 6.066621 6.065500 6.069659 6.072464 6.072091 6.071554 6.074807 6.075481 6.076594 6.078481 6.079225 6.079853 6.080719 6.081570 6.080960 6.082075 6.081148 6.080918 6.080093 6.081933 6.081177 6.082340 6.083014 6.083423 6.082611 6.082754 6.085239 6.084968 6.085059 6.086697 6.089547 6.089525 6.090475 6.090432 6.095754 6.102687 6.103504 6.106469 6.105323 6.105233 6.104283 6.105135 6.105760 6.106980 6.107965 6.107832 6.107736 6.111784 6.112565 6.111902 6.114403 6.113478 6.113011 6.111751 6.112269 6.111994 6.114625 6.117887 6.117424 6.116513 6.118715 6.119664 6.119485 6.122818 6.121944 6.122093 6.123565 6.123644 6.123860 6.122960 6.131767 6.134791 6.135092 6.134232 6.138428 6.139366 6.138863 6.137556 6.136415 6.136756 6.136135 6.136031 6.136164 6.135665 6.139204 6.138175 6.140396 6.140287 6.142277 6.144896 6.144020 6.143072 6.144172 6.145444 6.145537 6.147286 6.147282 6.146930 6.149518 6.149279 6.149195 6.153078 6.152322 6.152012 6.152643 6.151935 6.150970 6.151251 6.152837 6.154568 6.154873 6.155904 6.157515 6.158693 6.157402 6.160241 6.160740 6.162603 6.165556 6.165158 6.164451 6.165125 6.169157 6.169362 6.170018 6.169426 6.172051 6.172139 6.172677 6.171523 6.171494 6.173279 6.173115 6.173895 6.172642 6.172555 6.174273 6.173562 6.172458 6.174086 6.174932 6.176947 6.176529 6.177073 6.177268 6.177589 6.177029 6.176915 6.176028 6.175147 6.179314 6.180230 6.180811 6.183013 6.183626 6.185069 6.186101 6.186604 6.186914 6.188838 6.193379 6.193392 6.193625 6.193403 6.193306 6.196386 6.200591 6.201590 6.201659 6.201057 6.199673 6.201113 6.202691 6.202282 6.201916 6.201815 6.202035 6.206876 6.206992 6.209470 6.209077 6.209064 6.208163 6.208323 6.209027 6.209464 6.208354 6.210069 6.210136 6.209748 6.208542 6.211374 6.211166 6.212244 6.211424 6.210671 6.214655 6.214104 6.213862 6.213437 6.213576 6.213207 6.213631 6.219247 6.218371 6.217060 6.216654 6.217842 6.218959 6.219413 6.218931 6.218986 6.218884 6.218464 6.217151 6.219399 6.221655 6.220848 6.223277 6.223948 6.223601 6.224923 6.225319 6.226060 6.225642 6.228894 6.230173 6.229433 6.228501 6.230492 6.230754 6.232863 6.232167 6.232861 6.232251 6.230999 6.230734 6.230221 6.229556 6.228771 6.230561 6.230664 6.230321 6.231246 6.230735 6.231930 6.231247 6.231687 6.231779 6.231599 6.233808 6.235011 6.234571 6.234656 6.234471 6.235088 6.234566 6.233791 6.234751 6.236706 6.235879 6.235154 6.235912 6.235294 6.235080 6.236904 6.237357 6.238200 6.237960 6.238124 6.238707 6.237597 6.237766 6.238244 6.238660 6.238544 6.239509 6.241916 6.241503 6.242838 6.242286 6.242671 6.242290 6.242579 6.241549 6.242367 6.243027 6.241903 6.243301 6.243960 6.243228 6.244050 6.242983 6.242551 6.244356 6.243133 6.244349 6.243726 6.245007 6.244975 6.246909 6.246819 6.247352 6.247809 6.247282 6.248006 6.248697 6.249872 6.251310 6.250669 6.250444 6.251038 6.252859 6.256380 6.257583 6.259228 6.259544 6.261466 6.260365 6.263172 6.263243 6.263616 6.267760 6.268893 6.268243 6.268101 6.268945 6.268505 6.269098 6.270924 6.270937 6.272587 6.272302 6.271777 6.271401 6.272053 6.270734 6.271401 6.275008 6.275464 6.280702 6.280104 6.281279 6.283609 6.286460 6.287980 6.287613 6.287893 6.287032 6.287141 6.289468 6.290915 6.292777 6.291758 6.291218 6.291883 6.293995 6.293742 6.293664 6.293241 6.294787 6.293926 6.294662 6.295126 6.294668 6.294088 6.293553 6.294171 6.293861 6.293483 6.292928 6.295259 6.294619 6.295264 6.293849 6.293727 6.293915 6.292852 6.293909 6.293438 6.293603 6.292696 6.293932 6.293243 6.295799 6.296405 6.295422 6.295051 6.294935 6.294909 6.297382 6.297249 6.296004 6.294945 6.295461 6.295074 6.295542 6.295335 6.295995 6.296413 6.295251 6.294590 6.294560 6.294308 6.294587 6.295039 6.294931 6.295184 6.295708 6.295246 6.294367 6.294268 6.294730 6.294769 6.297334 6.297190 6.300324 6.299623 6.299032 6.298325 6.297578 6.299266 6.300761 6.299975 6.302292 6.301880 6.302369 6.302409 6.304784 6.304335 6.304379 6.303235 6.305527 6.307703 6.307001 6.310194 6.312932 6.312238 6.313789 6.314798 6.316369 6.317867 6.318177 6.319266 6.319884 6.318602 6.318506 6.318277 6.317634 6.319850 6.318600 6.318543 6.317940 6.317799 6.317716 6.318205 6.317328 6.316869 6.316966 6.315833 6.314960 6.314592 6.314638 6.316425 6.316019 6.316099 6.315232 6.316102 6.317042 6.317451 6.318911 6.318394 6.322691 6.324853 6.324336 6.325874 6.327117 6.327262 6.326662 6.327683 6.327837 6.329120 6.330296 6.330688 6.331928 6.330795 6.332625 6.337578 6.338808 6.338603 6.339805 6.343322 6.342685 6.343203 6.343485 6.343417 6.344635 6.344732 6.345163 6.346370 6.348160 6.348739 6.349431 6.350781 6.350617 6.350342 6.350300 6.349214 6.350217 6.352747 6.353764 6.354484 6.355213 6.355224 6.355219 6.355115 6.355970 6.356096 6.358201 6.357539 6.358666 6.358126 6.357614 6.358853 6.361147 6.359860 6.359799 6.359112 6.358913 6.359476 6.362669 6.362993 6.363887 6.363565 6.364177 6.363980 6.364370 6.364336 6.363910 6.365546 6.364976 6.365613 6.368260 6.369738 6.373765 6.373266 6.374341 6.374444 6.374570 6.375338 6.376728 6.377537 6.378355 6.378866 6.377597 6.378872 6.378037 6.377813 6.378151 6.379529 6.378958 6.379982 6.382861 6.384880 6.383942 6.385233 6.387036 6.388222 6.386933 6.388303 6.387617 6.388037 6.389949 6.391046 6.391090 6.392206 6.394220 6.394540 6.394192 6.395210 6.396128 6.396664 6.396763 6.396583 6.396358 6.396050 6.399302 6.399651 6.400595 6.401577 6.404549 6.407167 6.412291 6.411510 6.411235 6.411661 6.413501 6.412624 6.412485 6.412937 6.413394 6.413965 6.416686 6.415736 6.415726 6.415033 6.418708 6.420460 6.421623 6.423644 6.426078 6.425143 6.425106 6.426888 6.427569 6.426903 6.428214 6.430498 6.436203 6.437122 6.441699 6.441619 6.441104 6.440368 6.439414 6.438584 6.438356 6.440257 6.441187 6.441007 6.441417 6.443872 6.443813 6.442844 6.445589 6.445173 6.444694 6.446143 6.449433 6.449950 6.449184 6.448227 6.448990 6.447736 6.446882 6.446307 6.449314 6.448552 6.450662 6.453271 6.455609 6.459876 6.460205 6.459070 6.461174 6.461347 6.463323 6.463594 6.463461 6.464021 6.464475 6.466747 6.466583 6.467722 6.468081 6.467419 6.467281 6.467015 6.469487 6.469952 6.470032 6.472603 6.472326 6.473117 6.474396 6.473362 6.472791 6.471864 6.473334 6.473409 6.472368 6.474227 6.473444 6.473119 6.474447 6.473916 6.475110 6.476383 6.477257 6.477117 6.477722 6.477635 6.478820 6.480463 6.482903 6.483879 6.484114 6.483490 6.483286 6.486345 6.486041 6.486911 6.488668 6.488194 6.488938 6.488699 6.487926 6.490824 6.489958 6.491059 6.491700 6.492617 6.493107 6.493948 6.495691 6.496681 6.497849 6.498045 6.497396 6.497456 6.497929 6.498479 6.497845 6.499801 6.500703 6.501331 6.504317 6.507231 6.506101 6.508063 6.507249 6.508369 6.508347 6.508783 6.507709 6.510334 6.511113 6.511780 6.512536 6.517230 6.518522 6.518906 6.519594 6.520879 6.520194 6.522400 6.524723 6.524139 6.524550 6.524023 6.524623 6.523424 6.525380 6.524681 6.525217 6.525448 6.526973 6.526693 6.528288 6.530976 6.529892 6.529594 6.530499 6.531561 6.533009 6.532733 6.533317 6.535463 6.534695 6.534896 6.535796 6.537311 6.536253 6.539132 6.537807 6.538914 6.540943 6.543190 6.544079 6.543797 6.545416 6.544703 6.545406 6.545426 6.547286 6.549956 6.551655 6.551969 6.552280 6.551897 6.553728 6.553262 6.554202 6.555095 6.554001 6.555364 6.555685 6.555871 6.554751 6.558183 6.557900 6.558209 6.560146 6.561043 6.560170 6.560820 6.563846 6.564110 6.565483 6.564651 6.565401 6.565254 6.565909 6.565311 6.567478 6.568108 6.568775 6.569602 6.569700 6.569867 6.570430 6.572301 6.573750 6.573614 6.573245 6.573035 6.573888 6.578112 6.579085 6.579106 6.579478 6.580891 6.581181 6.582813 6.585809 6.584717 6.586336 6.586298 6.588046 6.587687 6.587008 6.585962 6.585872 6.586580 6.585809 6.587671 6.587752 6.588742 6.591164 6.592647 6.594412 6.597598 6.600684 6.602739 6.604618 6.609679 6.609992 6.610485 6.610426 6.612263 6.612847 6.614976 6.615699 6.615728 6.617729 6.616470 6.617699 6.618383 6.618974 6.619443 6.619122 6.619645 6.619818 6.621062 6.620854 6.624472 6.624285 6.627045 6.627130 6.627041 6.629779 6.628832 6.628312 6.628601 6.630231 6.630478 6.630311 6.631646 6.631468 6.631737 6.632180 6.632421 6.635177 6.637244 6.639334 6.640250 6.638864 6.640023 6.642205 6.640730 6.640862 6.639865 6.639770 6.641040 6.640574 6.641041 6.640942 6.641818 6.642217 6.642170 6.641928 6.642241 6.645587 6.645580 6.650409 6.650861 6.652837 6.652789 6.652127 6.652431 6.652849 6.651969 6.651170 6.652566 6.652971 6.654928 6.655436 6.656652 6.657111 6.656765 6.655259 6.654436 6.653816 6.653713 6.652749 6.651764 6.651309 6.650928 6.650653 6.652592 6.653669 6.654352 6.655884 6.655014 6.655288 6.656268 6.656529 6.656953 6.658726 6.658488 6.659077 6.659489 6.660073 6.659442 6.660940 6.661740 6.661929 6.661208 6.661751 6.664515 6.663680 6.663448 6.663591 6.663902 6.663507 6.662984 6.662427 6.662475 6.663366 6.663053 6.662398 6.662459 6.661374 6.661096 6.661178 6.664146 6.666138 6.666433 6.667712 6.666706 6.665848 6.666049 6.668485 6.667454 6.666965 6.667158 6.667274 6.667613 6.667398 6.667041 6.666377 6.668848 6.668988 6.671702 6.672950 6.671968 6.670757 6.669530 6.671192 6.670548 6.669766 6.673780 6.673993 6.673390 6.673048 6.672651 6.671495 6.670917 6.671029 6.669897 6.670588 6.670028 6.669238 6.671518 6.670826 6.670549 6.672280 6.671789 6.671217 6.671906 6.672940 6.671441 6.672334 6.671410 6.671806 6.672364 6.671501 6.673072 6.672061 6.671910 6.671746 6.671921 6.672045 6.672064 6.671285 6.672909 6.672367 6.671723 6.671677 6.670508 6.670168 6.669257 6.668182 6.667473 6.666358 6.666096 6.666573 6.666635 6.667654 6.668093 6.667038 6.667906 6.668250 6.669149 6.670279 6.671289 6.670485 6.672198 6.673196 6.674014 6.673491 6.672873 6.671947 6.675806 6.676695 6.676311 6.675626 6.680374 6.682899 6.683652 6.683015 6.684150 6.685967 6.687229 6.689790 6.689269 6.689396 6.689700 6.689296 6.688874 6.688129 6.687650 6.687852 6.686646 6.687128 6.686523 6.686904 6.687470 6.686629 6.686264 6.687491 6.687082 6.687804 6.687990 6.687171 6.688836 6.689350 6.689981 6.690322 6.689406 6.689104 6.687702 6.689662 6.689192 6.688752 6.688750 6.689086 6.689272 6.689838 6.690835 6.690471 6.690520 6.690590 6.691476 6.693207 6.693068 6.692535 6.691458 6.692155 6.692196 6.691680 6.691375 6.694827 6.694630 6.694247 6.693527 6.694293 6.693687 6.693748 6.693214 6.693900 6.694485 6.694600 6.693721 6.692627 6.693820 6.698150 6.698075 6.700071 6.702494 6.702025 6.703975 6.703625 6.702674 6.702953 6.701764 6.703055 6.702253 6.701130 6.700430 6.700213 6.701161 6.700878 6.702436 6.702073 6.701422 6.701899 6.702958 6.703367 6.704733 6.704338 6.704040 6.703338 6.703121 6.702131 6.701064 6.700924 6.699421 6.699385 6.698692 6.698341 6.697976 6.697277 6.698510 6.699788 6.699269 6.700552 6.700991 6.700160 6.700797 6.700757 6.702256 6.701615 6.700777 6.701389 6.703199 6.705742 6.704799 6.705796 6.704606 6.703873 6.702459 6.703363 6.703458 6.702361 6.704147 6.703150 6.703747 6.703359 6.702314 6.701411 6.700988 6.702909 6.702301 6.701633 6.701352 6.702754 6.703925 6.706396 6.706042 6.705366 6.704893 6.704493 6.703530 6.705204 6.704252 6.704346 6.702969 6.702871 6.703859 6.702874 6.702735 6.703325 6.703215 6.702469 6.702313 6.702659 6.703502 6.705251 6.704897 6.704836 6.705142 6.704720 6.704692 6.703585 6.705273 6.706052 6.706464 6.707416 6.706931 6.707001 6.707054 6.707557 6.707204 6.706332 6.706836 6.706837 6.707940 6.708656 6.707739 6.708360 6.709126 6.708488 6.707407 6.707058 6.707348 6.706244 6.705012 6.704581 6.704090 6.704055 6.705013 6.705114 6.704736 6.703773 6.705326 6.704943 6.705172 6.703862 6.702940 6.704547 6.703431 6.703020 6.702158 6.702609 6.703739 6.703363 6.703824 6.702858 6.702300 6.704249 6.703915 6.704763 6.705206 6.705534 6.704832 6.705732 6.704837 6.703852 6.702720 6.702564 6.702246 6.702008 6.702383 6.704448 6.704422 6.703876 6.702933 6.703737 6.703689 6.703850 6.703454 6.702856 6.702451 6.703233 6.702201 6.702157 6.700951 6.700640 6.700182 6.701026 6.701190 6.700727 6.700021 6.701264 6.699950 6.700960 6.701456 6.702774 6.702386 6.701416 6.702002 6.701428 6.701746 6.702750 6.702241 6.701368 6.700838 6.700860 6.701234 6.700603 6.700064 6.701145 6.702306 6.703449 6.702664 6.701143 6.701515 6.702035 6.701649 6.701457 6.700608 6.700699 6.699866 6.699645 6.698642 6.699433 6.700134 6.700805 6.699956 6.699289 6.699657 6.701054 6.700353 6.701488 6.701713 6.702269 6.703267 6.702417 6.702056 6.702158 6.702256 6.701712 6.700968 6.700600 6.700979 6.700832 6.701366 6.701615 6.700324 6.699762 6.699254 6.700535 6.700514 6.700300 6.700754 6.700073 6.698833 6.699858 6.698607 6.699363 6.699435 6.698758 6.698737 6.698263 6.697370 6.696973 6.696754 6.697138 6.697287 6.697641 6.698664 6.698201 6.698702 6.697832 6.696971 6.696891 6.695725 6.696512 6.695225 6.696039 6.697528 6.697952 6.698007 6.698287 6.697353 6.697351 6.698280 6.697745 6.696921 6.698129 6.698753 6.697685 6.699868 6.699635 6.701502 6.701589 6.700675 6.700052 6.700893 6.700301 6.700699 6.701082 6.700413 6.700818 6.700551 6.700094 6.701323 6.703858 6.703843 6.704465 6.704694 6.705897 6.705109 6.704514 6.704048 6.703064 6.702947 6.703208 6.702863 6.701993 6.701231 6.703269 6.701908 6.701128 6.700068 6.700851 6.701500 6.701933 6.701790 6.701629 6.702992 6.702721 6.701648 6.704008 6.703441 6.702794 6.701929 6.702503 6.703784 6.704400 6.705149 6.705209 6.705458 6.705109 6.703828 6.703629 6.702990 6.702071 6.701615 6.701510 6.702655 6.703838 6.705897 6.705666 6.704463 6.704749 6.704778 6.706627 6.706411 6.706567 6.708286 6.708571 6.709189 6.711651 6.712541 6.712733 6.711680 6.712732 6.711581 6.712299 6.714109 6.713721 6.714366 6.716163 6.716173 6.716432 6.716701 6.716089 6.715541 6.715477 6.715394 6.716391 6.716654 6.716581 6.715248 6.716692 6.716179 6.717097 6.718279 6.718682 6.718080 6.718459 6.718390 6.719000 6.720515 6.720921 6.720703 6.720291 6.720510 6.720381 6.719709 6.718464 6.718807 6.720311 6.719612 6.719646 6.721339 6.720255 6.719587 6.719163 6.718820 6.718784 6.721105 6.720946 6.720385 6.720263 6.720048 6.720350 6.721691 6.721829 6.721513 6.720256 6.720774 6.722000 6.720702 6.721128 6.720651 6.722188 6.721865 6.722473 6.723392 6.723622 6.724633 6.726982 6.730557 6.731150 6.731837 6.730548 6.729404 6.729121 6.729058 6.730645 6.731093 6.731057 6.732172 6.731856 6.731300 6.730551 6.731709 6.731305 6.732010 6.731201 6.734683 6.734239 6.733962 6.734352 6.734249 6.735005 6.735799 6.736740 6.739630 6.740947 6.741208 6.740394 6.740737 6.740579 6.740132 6.739411 6.739733 6.740036 6.740260 6.739856 6.738904 6.738651 6.738218 6.738179 6.737682 6.737868 6.736592 6.735144 6.734560 6.734697 6.735215 6.733740 6.733067 6.734647 6.735142 6.735312 6.735178 6.735508 6.734829 6.736110 6.736558 6.736392 6.735066 6.736847 6.736161 6.735252 6.735351 6.737275 6.736117 6.736455 6.735526 6.735069 6.734381 6.733724 6.733367 6.732563 6.732719 6.732846 6.732403 6.731867 6.731570 6.732029 6.731004 6.732086 6.731652 6.733444 6.732328 6.731638 6.730979 6.730698 6.731560 6.730543 6.730494 6.729933 6.728687 6.731070 6.730711 6.732014 6.732259 6.730995 6.730227 6.729642 6.729391 6.728822 6.730170 6.729722 6.729756 6.729002 6.729339 6.730006 6.732164 6.731669 6.732248 6.733733 6.733137 6.734068 6.733720 6.734577 6.735041 6.734292 6.733259 6.732343 6.733377 6.734385 6.733270 6.732616 6.733383 6.732701 6.733158 6.732113 6.734106 6.734472 6.733514 6.732866 6.731460 6.730643 6.730477 6.731066 6.731284 6.730676 6.729505 6.729371 6.729203 6.729100 6.728857 6.729254 6.728651 6.728217 6.729856 6.730924 6.731946 6.731568 6.731179 6.731345 6.731226 6.731564 6.731605 6.731897 6.731952 6.731375 6.731098 6.730451 6.730697 6.732029 6.733196 6.735509 6.734642 6.735751 6.734643 6.735489 6.734473 6.735766 6.735029 6.734392 6.733626 6.734675 6.735134 6.735442 6.735348 6.736456 6.735633 6.736213 6.736933 6.736441 6.737498 6.738230 6.736684 6.736918 6.736387 6.735479 6.735393 6.734630 6.733525 6.734798 6.735529 6.736637 6.737587 6.737323 6.737189 6.736644 6.737708 6.736779 6.736704 6.735780 6.735314 6.734659 6.737984 6.738239 6.737249 6.736782 6.736987 6.736087 6.738158 6.738103 6.737435 6.738995 6.738641 6.737816 6.737348 6.736585 6.737226 6.737825 6.737506 6.736217 6.735021 6.735424 6.734656 6.734303 6.734964 6.734419 6.736245 6.735150 6.734820 6.735207 6.735649 6.736230 6.735920 6.735065 6.735372 6.734604 6.734176 6.734054 6.734918 6.734571 6.733992 6.733145 6.735353 6.736233 6.735269 6.734952 6.734492 6.734002 6.732852 6.732596 6.732064 6.731587 6.730640 6.730818 6.730751 6.731074 6.730807 6.729808 6.730222 6.730575 6.729367 6.727988 6.727554 6.728811 6.730208 6.730938 6.730116 6.729881 6.729526 6.729199 6.728651 6.728422 6.728386 6.728352 6.727216 6.726160 6.725292 6.725625 6.726559 6.727024 6.726520 6.727242 6.726569 6.726086 6.725506 6.725100 6.724015 6.722968 6.722489 6.723569 6.722574 6.723056 6.721938 6.720759 6.720411 6.720471 6.720047 6.720141 6.719033 6.717967 6.717135 6.716997 6.716754 6.716338 6.716276 6.715133 6.715251 6.716807 6.716435 6.716659 6.716230 6.715744 6.715227 6.715128 6.715017 6.714271 6.713302 6.712588 6.711773 6.711227 6.711638 6.711768 6.710628 6.711024 6.711117 6.710169 6.710841 6.711345 6.710304 6.709642 6.710573 6.711279 6.711546 6.710468 6.709730 6.708767 6.708556 6.710455 6.710790 6.713455 6.712625 6.711397 6.711577 6.711970 6.712320 6.712156 6.712186 6.710954 6.710249 6.709481 6.709599 6.709234 6.709150 6.708423 6.707454 6.707330 6.706438 6.707213 6.708597 6.708888 6.708066 6.706609 6.706184 6.705024 6.705268 6.704685 6.704724 6.704023 6.703251 6.702732 6.702723 6.703712 6.702542 6.702725 6.704018 6.704372 6.703921 6.704382 6.704061 6.703454 6.702593 6.702202 6.702155 6.701107 6.700611 6.700511 6.699933 6.699236 6.699036 6.699994 6.699446 6.698740 6.698634 6.697965 6.696783 6.696903 6.697201 6.697393 6.696652 6.695837 6.694899 6.694041 6.694539 6.696902 6.698826 6.701865 6.702002 6.701424 6.703005 6.702400 6.701933 6.701379 6.700833 6.701620 6.703605 6.702869 6.701969 6.702496 6.701619 6.700913 6.701158 6.702707 6.703116 6.701926 6.702436 6.703584 6.702864 6.702613 6.701598 6.701792 6.702008 6.701287 6.701430 6.702566 6.702210 6.702151 6.701023 6.700592 6.699786 6.699805 6.699220 6.699572 6.700407 6.701753 6.701274 6.701926 6.700995 6.700971 6.700675 6.700304 6.700063 6.699659 6.699096 6.697836 6.697072 6.695966 6.694837 6.693784 6.693223 6.694004 6.694379 6.693674 6.695024 6.694887 6.694263 6.694963 6.693548 6.692846 6.692341 6.694172 6.693360 6.692816 6.692062 6.692512 6.691505 6.691034 6.690971 6.691553 6.690654 6.690900 6.690384 6.690411 6.691509 6.691864 6.692205 6.691687 6.690576 6.690295 6.689582 6.689327 6.689688 6.689036 6.690214 6.690133 6.688628 6.688420 6.688802 6.689995 6.689581 6.688914 6.688015 6.687920 6.686953 6.685796 6.684826 6.684618 6.684638 6.683954 6.683876 6.683242 6.683592 6.682842 6.682411 6.681953 6.681892 6.682059 6.681766 6.680570 6.681234 6.680640 6.679315 6.678147 6.677567 6.676894 6.676721 6.677465 6.677053 6.676757 6.675998 6.674997 6.673764 6.672599 6.673376 6.674250 6.674043 6.674638 6.674344 6.674917 6.673827 6.673232 6.672938 6.672238 6.672379 6.673966 6.674044 6.674069 6.673910 6.673936 6.672711 6.671919 6.670743 6.671244 6.670703 6.671694 6.670884 6.670832 6.670836 6.670970 6.670939 6.671719 6.670830 6.669710 6.668781 6.668864 6.668557 6.667487 6.667023 6.667880 6.666671 6.665813 6.665933 6.665442 6.665015 6.664350 6.663698 6.663265 6.663106 6.662190 6.661508 6.661685 6.660864 6.659669 6.660400 6.660137 6.659694 6.658727 6.658033 6.660312 6.659699 6.660816 6.660904 6.659866 6.659997 6.660942 6.660079 6.659739 6.659923 6.660487 6.660061 6.658964 6.658844 6.657756 6.657202 6.657019 6.656751 6.656974 6.655753 6.655255 6.654182 6.654045 6.653615 6.653062 6.652249 6.653132 6.653071 6.652120 6.651603 6.651938 6.652614 6.651765 6.650495 6.650073 6.650363 6.649749 6.650337 6.649915 6.649865 6.651336 6.651421 6.652162 6.651978 6.652450 6.652814 6.654123 6.655024 6.654612 6.654084 6.654996 6.654471 6.654498 6.654695 6.653694 6.653371 6.652781 6.651948 6.651919 6.651275 6.650160 6.650321 6.650570 6.650803 6.650449 6.650272 6.650539 6.651510 6.651272 6.650479 6.649316 6.649422 6.649832 6.649501 6.649691 6.648945 6.648900 6.648663 6.647542 6.646966 6.648340 6.648962 6.649251 6.649651 6.650060 6.650476 6.649770 6.650619 6.651647 6.651663 6.650957 6.650911 6.650878 6.650577 6.649797 6.648961 6.648216 6.647373 6.646224 6.646481 6.645973 6.645396 6.644195 6.644967 6.645526 6.645653 6.645536 6.645417 6.644709 6.644032 6.643015 6.642932 6.642026 6.641486 6.641369 6.641074 6.642606 6.642453 6.641187 6.641383 6.641248 6.641517 6.640915 6.639813 6.639441 6.638524 6.637620 6.637215 6.637420 6.637768 6.636923 6.636126 6.635984 6.635584 6.635299 6.635070 6.635700 6.635240 6.634300 6.634499 6.633951 6.635038 6.635134 6.634793 6.633676 6.633283 6.633559 6.632545 6.633616 6.632667 6.634100 6.634530 6.634141 6.633407 6.632758 6.632201 6.632416 6.632453 6.633155 6.633847 6.633622 6.633839 6.634079 6.633153 6.632282 6.633082 6.633376 6.632853 6.633838 6.632856 6.632593 6.631932 6.632796 6.632897 6.632285 6.631795 6.631868 6.632030 6.633162 6.632244 6.631821 6.631333 6.631082 6.631048 6.629886 6.628852 6.629880 6.629882 6.629501 6.630461 6.629774 6.629108 6.629430 6.629397 6.628491 6.628358 6.628682 6.629861 6.629129 6.629401 6.628452 6.629117 6.628976 6.628260 6.627936 6.627042 6.626923 6.626806 6.627432 6.627002 6.626537 6.626150 6.624876 6.623861 6.623096 6.623090 6.622721 6.622541 6.621297 6.621330 6.620542 6.619931 6.619127 6.619279 6.618608 6.617786 6.617545 6.617246 6.617081 6.617137 6.616310 6.615453 6.614538 6.614811 6.614001 6.613278 6.612485 6.612260 6.611692 6.611684 6.610872 6.610177 6.609432 6.609606 6.609955 6.609643 6.610198 6.609157 6.609011 6.609428 6.608805 6.608972 6.609262 6.609752 6.609326 6.608606 6.608105 6.608095 6.607310 6.606400 6.605976 6.606494 6.605402 6.605788 6.605234 6.605833 6.604571 6.604018 6.604285 6.604624 6.603371 6.602635 6.602786 6.602168 6.601909 6.601064 6.600539 6.600661 6.600288 6.599589 6.598904 6.598518 6.597767 6.597023 6.596236 6.595349 6.595037 6.594006 6.593663 6.593525 6.593957 6.593803 6.593574 6.593130 6.593400 6.594132 6.593955 6.594882 6.594804 6.594815 6.594275 6.593405 6.592700 6.592032 6.591482 6.590836 6.591143 6.593254 6.593492 6.592956 6.592260 6.591522 6.590417 6.589856 6.589926 6.589221 6.590075 6.591578 6.592710 6.592119 6.592301 6.591076 6.591260 6.590903 6.590592 6.591354 6.590708 6.589576 6.588584 6.587927 6.587099 6.585800 6.584990 6.584480 6.584435 6.585267 6.585427 6.586150 6.585611 6.584522 6.585101 6.585163 6.585143 6.584157 6.583378 6.583197 6.582685 6.583377 6.584707 6.583843 6.583083 6.583068 6.583081 6.582970 6.582593 6.583515 6.582569 6.582336 6.581211 6.580725 6.580205 6.579966 6.579799 6.581071 6.580257 6.579654 6.579280 6.579316 6.578961 6.577934 6.577651 6.577077 6.577437 6.578588 6.578441 6.578715 6.577843 6.577999 6.578154 6.577268 6.577107 6.578769 6.580862 6.579809 6.579341 6.580034 6.578905 6.578917 6.578315 6.580159 6.579606 6.578908 6.578786 6.578674 6.578010 6.578602 6.578294 6.578068 6.577045 6.577780 6.577866 6.577736 6.577049 6.576904 6.576930 6.576377 6.575678 6.576874 6.575363 6.576117 6.576330 6.575825 6.576914 6.577307 6.576258 6.576731 6.575833 6.576156 6.576845 6.576528 6.575930 6.576650 6.576076 6.576027 6.576367 6.576413 6.577476 6.576226 6.574851 6.574467 6.575309 6.574624 6.575828 6.575833 6.575326 6.574414 6.574313 6.574532 6.574108 6.573645 6.573182 6.573190 6.572544 6.571824 6.571982 6.571840 6.571854 6.571560 6.570988 6.569944 6.569102 6.568343 6.569131 6.569348 6.569615 6.569907 6.569620 6.568889 6.569261 6.568111 6.568245 6.567798 6.568644 6.569071 6.568707 6.568983 6.569243 6.569167 6.568632 6.568128 6.568330 6.569445 6.568565 6.568015 6.567403 6.567728 6.567134 6.566850 6.566164 6.566458 6.565296 6.564237 6.563262 6.562544 6.562611 6.562387 6.563466 6.562683 6.562548 6.562226 6.561639 6.561120 6.560144 6.559618 6.559591 6.559930 6.559974 6.559976 6.561618 6.561299 6.560001 6.560201 6.558944 6.558835 6.558674 6.558212 6.557773 6.557455 6.558231 6.557518 6.557158 6.556045 6.555505 6.554936 6.554142 6.553882 6.555288 6.554184 6.553905 6.554103 6.553728 6.553664 6.553496 6.552506 6.552532 6.551811 6.551737 6.553261 6.551954 6.551892 6.553689 6.554147 6.554069 6.553914 6.552533 6.551159 6.550553 6.549237 6.548955 6.549293 6.548598 6.548148 6.548048 6.547873 6.547120 6.547011 6.547088 6.547307 6.546657 6.546683 6.545859 6.545040 6.546503 6.546731 6.546557 6.546760 6.546980 6.545834 6.546353 6.547041 6.546442 6.547241 6.547761 6.546475 6.545813 6.545713 6.546137 6.546158 6.545270 6.544686 6.544077 6.543911 6.544750 6.544519 6.543743 6.543386 6.543446 6.543323 6.542038 6.541844 6.541433 6.540544 6.539633 6.540138 6.540973 6.541240 6.540651 6.539745 6.539758 6.539459 6.538470 6.538438 6.538285 6.538234 6.538574 6.539686 6.539033 6.540906 6.540465 6.541141 6.540142 6.540292 6.540115 6.538869 6.538562 6.538244 6.537767 6.537772 6.537206 6.535972 6.535368 6.535170 6.534330 6.533684 6.532764 6.532416 6.531853 6.531318 6.530649 6.530337 6.529887 6.529003 6.529320 6.529069 6.528365 6.527026 6.527223 6.527742 6.528011 6.526813 6.527292 6.526854 6.527331 6.527558 6.528066 6.527589 6.526862 6.526127 6.525904 6.527159 6.528448 6.528277 6.527103 6.528050 6.527230 6.526567 6.525933 6.526005 6.525114 6.525408 6.525147 6.526053 6.526023 6.525623 6.525857 6.525463 6.524866 6.524653 6.523619 6.524205 6.523438 6.522915 6.522675 6.523159 6.524023 6.523846 6.523688 6.523873 6.523033 6.524472 6.523363 6.522968 6.522648 6.523038 6.522646 6.521988 6.522634 6.521631 6.521917 6.521647 6.521685 6.521759 6.522136 6.521448 6.520579 6.520865 6.520820 6.519945 6.519960 6.519596 6.519953 6.519761 6.519203 6.518719 6.518202 6.517270 6.516484 6.516785 6.515537 6.516683 6.517359 6.516532 6.516023 6.515683 6.515553 6.516257 6.516621 6.516506 6.516462 6.515915 6.517528 6.518141 6.518584 6.518363 6.517736 6.517776 6.517804 6.517061 6.516260 6.515924 6.515859 6.515776 6.515561 6.515641 6.514202 6.513378 6.512326 6.511568 6.512018 6.511838 6.512739 6.512102 6.511794 6.511697 6.512313 6.512577 6.512755 6.512525 6.512843 6.512879 6.513062 6.512006 6.511928 6.510583 6.509921 6.510579 6.510832 6.510783 6.510802 6.510542 6.511105 6.510606 6.509525 6.508547 6.507567 6.506880 6.507779 6.506927 6.505833 6.506421 6.506155 6.505703 6.505656 6.505810 6.505230 6.505960 6.505957 6.505498 6.505293 6.504844 6.504998 6.505337 6.504674 6.505047 6.504188 6.505436 6.506141 6.505580 6.506772 6.506415 6.506039 6.505761 6.505687 6.505023 6.504279 6.503454 6.503258 6.502404 6.502656 6.501882 6.500732 6.500515 6.500729 6.500850 6.500396 6.501253 6.500450 6.499886 6.498861 6.497862 6.498184 6.497979 6.499554 6.499129 6.498384 6.498350 6.499750 6.499630 6.499463 6.499286 6.499818 6.499337 6.499294 6.499199 6.498146 6.499153 6.498299 6.497757 6.497764 6.498391 6.498463 6.497310 6.496346 6.495384 6.495361 6.495456 6.496037 6.496064 6.495125 6.496750 6.498226 6.498690 6.498181 6.498901 6.497970 6.497422 6.496956 6.497988 6.499536 6.499228 6.498665 6.497727 6.498220 6.497894 6.497881 6.497335 6.496910 6.496393 6.495859 6.495295 6.496117 6.496119 6.497754 6.499301 6.500809 6.499749 6.498776 6.498126 6.497167 6.497068 6.499224 6.498518 6.498130 6.497145 6.496240 6.496399 6.495274 6.495448 6.495618 6.494566 6.494704 6.494474 6.496582 6.496586 6.495590 6.494481 6.494959 6.494398 6.494032 6.494386 6.493998 6.493048 6.491845 6.494113 6.493904 6.494009 6.494139 6.494790 6.495550 6.495445 6.494333 6.495462 6.495656 6.496220 6.495684 6.494610 6.495244 6.496339 6.496004 6.496102 6.498270 6.497608 6.496981 6.496900 6.498540 6.497924 6.497813 6.497144 6.496735 6.496837 6.497589 6.496747 6.495993 6.495605 6.495179 6.494334 6.493467 6.493357 6.492565 6.492810 6.493023 6.493169 
