7.689173 7.689173 7.689173 7.689173 7.689173 7.689173 5.430688 5.429330 5.429475 5.428117 5.426760 5.427583 5.426226 5.424870 5.423513 5.422157 5.420801 5.540505 5.539120 5.537910 5.536525 5.535141 5.533757 5.532374 5.530990 5.529637 5.528255 5.526873 5.525492 5.524110 5.522729 5.521348 5.519995 5.518615 5.517235 5.515990 5.514611 5.513232 5.515148 5.514204 5.512971 5.511592 5.510214 5.508836 5.507460 5.506335 5.504959 5.503582 5.515452 5.514549 5.514858 5.517280 5.515900 5.515362 5.513983 5.512606 5.512677 5.511298 5.510030 5.508653 5.507366 5.506033 5.504662 5.503285 5.501909 5.500567 5.499192 5.497821 5.497238 5.496064 5.494690 5.493390 5.498736 5.497843 5.496479 5.495105 5.493731 5.493439 5.492065 5.495917 5.494544 5.493173 5.491813 5.495550 5.494177 5.503641 5.502529 5.501171 5.511039 5.509662 5.509908 5.518713 5.517347 5.516409 5.515051 5.513795 5.512766 5.512703 5.511326 5.510009 5.509392 5.508023 5.506704 5.505362 5.508640 5.509274 5.507897 5.506526 5.505321 5.510010 5.508653 5.509605 5.508229 5.506852 5.505509 5.504133 5.502894 5.501519 5.500294 5.498954 5.501630 5.503776 5.505373 5.504024 5.503130 5.501883 5.502245 5.500869 5.499495 5.498533 5.497175 5.496160 5.495963 5.495391 5.494017 5.492643 5.491308 5.491825 5.491819 5.491700 5.490584 5.489295 5.489149 5.494131 5.492760 5.492989 5.495228 5.493854 5.492481 5.491139 5.489776 5.488465 5.489492 5.491099 5.490298 5.489300 5.487929 5.486562 5.487650 5.486382 5.485140 5.485034 5.490421 5.489199 5.487973 5.489234 5.490031 5.488796 5.488310 5.490224 5.490154 5.490557 5.489391 5.489163 5.489770 5.489566 5.488211 5.488414 5.487471 5.486878 5.491192 5.491879 5.490506 5.489138 5.488930 5.488270 5.488303 5.486973 5.488832 5.487529 5.486435 5.485071 5.483713 5.485894 5.484742 5.485041 5.485616 5.484755 5.485610 5.485444 5.484330 5.484292 5.484810 5.486668 5.486068 5.488905 5.487786 5.486549 5.485387 5.484137 5.483282 5.483039 5.481811 5.480544 5.480616 5.481204 5.481115 5.479780 5.478524 5.478361 5.477243 5.475879 5.474512 5.478478 5.478231 5.477104 5.477840 5.480698 5.479329 5.478358 5.477243 5.476830 5.475576 5.475272 5.475801 5.474464 5.473637 5.472755 5.478978 5.477640 5.478394 5.477612 5.476513 5.475562 5.474750 5.475034 5.474791 5.475775 5.474563 5.473593 5.472470 5.471317 5.469950 5.470573 5.470933 5.473595 5.472983 5.475099 5.474450 5.473763 5.473942 5.472658 5.472557 5.471387 5.473779 5.472641 5.471309 5.471850 5.471346 5.470355 5.469870 5.469162 5.468046 5.466807 5.466547 5.465677 5.469563 5.468266 5.469921 5.469484 5.471423 5.470235 5.472750 5.473036 5.472838 5.471483 5.470115 5.469646 5.470436 5.469628 5.468458 5.467369 5.466108 5.464773 5.463840 5.463630 5.464526 5.463242 5.462396 5.461998 5.462478 5.461149 5.459961 5.460137 5.460464 5.459143 5.457804 5.456955 5.456461 5.458856 5.457530 5.456191 5.455039 5.454495 5.453166 5.454390 5.453149 5.452091 5.451016 5.450842 5.455070 5.454436 5.453228 5.452048 5.450810 5.452935 5.451711 5.450477 5.453572 5.453066 5.452654 5.451775 5.452652 5.451954 5.450686 5.450231 5.448994 5.447760 5.447933 5.448621 5.448578 5.448953 5.448316 5.447080 5.446867 5.448211 5.447788 5.447378 5.447890 5.446972 5.446584 5.450832 5.449532 5.449771 5.449646 5.448594 5.451244 5.450149 5.449065 5.448296 5.447140 5.448495 5.447436 5.446624 5.446808 5.445818 5.445028 5.443711 5.443517 5.443109 5.441963 5.441596 5.440239 5.438894 5.438360 5.446664 5.446610 5.447311 5.446082 5.445060 5.443939 5.443003 5.444735 5.443413 5.444522 5.444805 5.443853 5.442741 5.442188 5.440912 5.443396 5.443370 5.445759 5.447009 5.445726 5.445903 5.446843 5.446455 5.445209 5.444818 5.443537 5.443850 5.443551 5.442311 5.443658 5.443471 5.442716 5.441989 5.441487 5.440321 5.439377 5.439055 5.438697 5.438110 5.439179 5.440440 5.439605 5.438719 5.438490 5.438644 5.437447 5.436615 5.437279 5.436343 5.437970 5.437536 5.436937 5.436955 5.436582 5.435461 5.436455 5.435571 5.439502 5.438325 5.439273 5.438009 5.437641 5.437230 5.436947 5.437106 5.435765 5.436401 5.435539 5.434523 5.433951 5.433217 5.432351 5.431465 5.430165 5.429091 5.430925 5.429571 5.429404 5.428565 5.427924 5.430001 5.431099 5.430670 5.430547 5.429336 5.430323 5.429598 5.428469 5.429913 5.431205 5.434143 5.432896 5.431734 5.430717 5.430632 5.429487 5.429626 5.429936 5.429155 5.429778 5.428786 5.429877 5.430777 5.430127 5.430558 5.430045 5.430463 5.431674 5.436078 5.435363 5.436212 5.435813 5.434858 5.433815 5.432670 5.432756 5.432486 5.431353 5.430187 5.430007 5.429282 5.428008 5.428687 5.427334 5.426159 5.425593 5.424608 5.424578 5.426711 5.426378 5.426905 5.425726 5.424766 5.423731 5.422537 5.425066 5.424628 5.425017 5.425070 5.424233 5.423320 5.425991 5.426170 5.425983 5.426193 5.431192 5.430948 5.430264 5.431342 5.436062 5.435060 5.433837 5.435585 5.437746 5.438090 5.438078 5.439469 5.439570 5.438792 5.437866 5.437347 5.436627 5.438617 5.437714 5.436471 5.435848 5.435520 5.435741 5.435698 5.435339 5.434575 5.436828 5.437379 5.436534 5.437066 5.435958 5.436606 5.436568 5.436380 5.435102 5.434580 5.433669 5.433595 5.432985 5.431654 5.430581 5.431940 5.433075 5.432031 5.430983 5.431460 5.433059 5.431966 5.434712 5.435106 5.434820 5.435847 5.434761 5.433664 5.434403 5.433572 5.435020 5.433778 5.435217 5.434600 5.433924 5.432752 5.432372 5.432653 5.432148 5.435896 5.434779 5.434631 5.433907 5.435889 5.438093 5.439214 5.438138 5.438852 5.438641 5.440034 5.440349 5.441370 5.442878 5.446261 5.445856 5.445164 5.444236 5.444548 5.444252 5.444017 5.443917 5.445723 5.445954 5.445268 5.447232 5.446840 5.445850 5.445448 5.445082 5.444085 5.443405 5.442903 5.442507 5.445637 5.445302 5.445092 5.443827 5.442621 5.445070 5.444866 5.444391 5.446605 5.447403 5.446854 5.446184 5.445831 5.444920 5.447365 5.446649 5.450820 5.453733 5.453564 5.453002 5.452565 5.451744 5.450964 5.451186 5.451645 5.453351 5.452137 5.451511 5.451644 5.452759 5.452364 5.451524 5.450380 5.449173 5.449123 5.447773 5.447090 5.448131 5.448088 5.447492 5.446160 5.445072 5.445329 5.446572 5.445496 5.449053 5.449679 5.453189 5.454489 5.453414 5.452815 5.453368 5.453236 5.452661 5.451700 5.451590 5.456005 5.455649 5.454621 5.456398 5.456825 5.456172 5.455870 5.454672 5.454694 5.453829 5.453388 5.452303 5.453300 5.453152 5.455259 5.455340 5.454730 5.454456 5.455717 5.455351 5.454159 5.453836 5.456297 5.457443 5.457233 5.456776 5.456796 5.458110 5.458910 5.460970 5.459781 5.459432 5.458872 5.457995 5.459352 5.459035 5.461190 5.461534 5.463320 5.462208 5.461498 5.461187 5.462939 5.463555 5.464854 5.467162 5.465969 5.465246 5.464699 5.464873 5.467799 5.466724 5.466489 5.466962 5.468105 5.468655 5.468045 5.469411 5.468913 5.470594 5.470826 5.470376 5.470817 5.469930 5.470011 5.469103 5.468182 5.467599 5.468194 5.469402 5.469255 5.468118 5.469588 5.470196 5.469130 5.470168 5.469479 5.468370 5.467090 5.469306 5.468148 5.468671 5.468080 5.468128 5.469472 5.468633 5.468936 5.469271 5.468473 5.467231 5.466363 5.466586 5.466163 5.465711 5.464680 5.465315 5.464988 5.464071 5.463558 5.464436 5.463671 5.462620 5.461457 5.460145 5.458928 5.461018 5.465526 5.465446 5.465012 5.466934 5.465918 5.465767 5.465656 5.465389 5.464749 5.464804 5.465345 5.464619 5.463664 5.463823 5.468504 5.467749 5.466923 5.466090 5.467353 5.467826 5.466510 5.468758 5.469408 5.470218 5.472718 5.474040 5.473961 5.473181 5.473737 5.473847 5.472653 5.473686 5.472571 5.473026 5.472145 5.472866 5.473220 5.472498 5.471678 5.471190 5.470331 5.469822 5.470430 5.469293 5.469720 5.469201 5.469120 5.468494 5.468792 5.472334 5.473870 5.472894 5.472342 5.471794 5.473761 5.472424 5.472700 5.473131 5.473475 5.473717 5.474224 5.477353 5.476756 5.476311 5.477560 5.478653 5.479138 5.478163 5.477015 5.476539 5.477597 5.476638 5.477306 5.478842 5.487129 5.485930 5.485722 5.485462 5.485046 5.485662 5.485504 5.485467 5.484291 5.485223 5.486664 5.486238 5.486645 5.487455 5.491359 5.490589 5.491464 5.490547 5.492461 5.493091 5.494330 5.494194 5.493256 5.494528 5.494817 5.494061 5.494130 5.493610 5.496968 5.497776 5.497133 5.496455 5.496943 5.499152 5.503556 5.502877 5.506842 5.505829 5.506144 5.506129 5.505351 5.504595 5.507808 5.506724 5.505800 5.506891 5.509439 5.508276 5.507382 5.507702 5.506916 5.508814 5.508486 5.507543 5.507996 5.507627 5.507172 5.507541 5.508101 5.507198 5.507245 5.507728 5.506621 5.506645 5.506870 5.508553 5.508443 5.508426 5.511495 5.511665 5.511197 5.510814 5.511046 5.510120 5.509653 5.509849 5.509438 5.508330 5.507760 5.507519 5.506877 5.507955 5.509519 5.511232 5.510724 5.513953 5.514759 5.514662 5.515602 5.519826 5.519216 5.520113 5.519438 5.518820 5.519088 5.519259 5.519284 5.518483 5.518262 5.517973 5.517732 5.517848 5.516549 5.520127 5.521335 5.520123 5.519206 5.518899 5.518058 5.518125 5.519465 5.519632 5.519967 5.519147 5.520358 5.520232 5.520289 5.520593 5.519661 5.519376 5.518254 5.517295 5.518572 5.519266 5.520009 5.521755 5.520700 5.519536 5.519448 5.519650 5.518652 5.518392 5.519249 5.519038 5.518791 5.518288 5.518373 5.517498 5.517744 5.516546 5.517116 5.516697 5.519132 5.519109 5.517862 5.517795 5.518636 5.519488 5.518477 5.519277 5.518628 5.518324 5.520412 5.520198 5.519086 5.520398 5.520355 5.519493 5.523478 5.523735 5.523089 5.522805 5.522083 5.522060 5.524725 5.524164 5.524009 5.522919 5.524468 5.523621 5.524041 5.524070 5.523253 5.525437 5.525094 5.524701 5.525600 5.525735 5.527688 5.527935 5.527837 5.527346 5.527472 5.527329 5.527854 5.528363 5.528023 5.528903 5.528856 5.528607 5.528552 5.530990 5.532032 5.533606 5.533440 5.533792 5.534664 5.534139 5.535558 5.535258 5.536402 5.538117 5.538659 5.541092 5.540715 5.540044 5.539859 5.539648 5.539969 5.539865 5.539636 5.540958 5.545182 5.543907 5.543818 5.542998 5.542523 5.544451 5.545014 5.545125 5.545671 5.545995 5.546922 5.547325 5.546943 5.547049 5.549106 5.548120 5.548300 5.549640 5.549022 5.548066 5.547409 5.547947 5.547017 5.546517 5.546193 5.544942 5.545017 5.544018 5.546522 5.546381 5.546220 5.546533 5.546101 5.546723 5.546220 5.546360 5.546053 5.546616 5.547153 5.546681 5.546656 5.547868 5.553509 5.557370 5.557163 5.556227 5.557045 5.557514 5.557384 5.556498 5.555989 5.558287 5.557687 5.557398 5.557043 5.556774 5.555815 5.557138 5.556913 5.556213 5.557377 5.556709 5.556247 5.556585 5.559059 5.561903 5.562046 5.562639 5.562855 5.563398 5.567987 5.569012 5.569308 5.570423 5.571885 5.574545 5.573529 5.572677 5.573029 5.573057 5.574692 5.574532 5.575671 5.576699 5.576820 5.576129 5.575728 5.579881 5.579688 5.578811 5.579251 5.579133 5.579864 5.580442 5.579418 5.578244 5.577468 5.576395 5.576044 5.576061 5.576232 5.575767 5.576965 5.577098 5.577611 5.579667 5.578972 5.578039 5.579146 5.577994 5.578980 5.580161 5.579300 5.578748 5.579825 5.584560 5.585705 5.585399 5.584439 5.583473 5.584591 5.586075 5.587248 5.589075 5.588821 5.588072 5.588450 5.587441 5.587216 5.588105 5.587932 5.587592 5.591833 5.591339 5.591030 5.590950 5.589707 5.590698 5.592610 5.591899 5.593099 5.594313 5.593725 5.593008 5.591937 5.594922 5.595399 5.595468 5.595757 5.595989 5.597487 5.598782 5.601324 5.600754 5.601423 5.602938 5.602816 5.605104 5.604623 5.604605 5.605235 5.604578 5.605556 5.604847 5.604902 5.606116 5.609425 5.610230 5.609631 5.609892 5.609074 5.608576 5.608676 5.611265 5.611714 5.613389 5.613316 5.612982 5.613342 5.614018 5.613482 5.615265 5.615209 5.616393 5.617681 5.617998 5.618465 5.619403 5.618302 5.617563 5.618302 5.617170 5.615995 5.615648 5.614751 5.614412 5.616915 5.619525 5.619155 5.619201 5.618338 5.618661 5.617361 5.616763 5.617405 5.617537 5.617038 5.618071 5.616843 5.620165 5.620572 5.619538 5.622800 5.622345 5.621985 5.621408 5.621273 5.622203 5.624327 5.623867 5.624742 5.623448 5.624161 5.624695 5.624905 5.624275 5.625437 5.625849 5.624965 5.624352 5.623937 5.622797 5.624485 5.625660 5.624716 5.624110 5.625647 5.624891 5.623867 5.623067 5.624167 5.625465 5.625278 5.625467 5.626261 5.626303 5.630483 5.631767 5.632753 5.632865 5.633320 5.635835 5.634880 5.634472 5.634756 5.635521 5.637028 5.636236 5.636122 5.635435 5.634296 5.635033 5.635131 5.637591 5.637778 5.636765 5.636058 5.636474 5.636346 5.636972 5.636193 5.640362 5.639791 5.639690 5.639279 5.638829 5.638916 5.639074 5.638259 5.637769 5.637329 5.638283 5.642387 5.641759 5.645139 5.645097 5.644387 5.644864 5.644219 5.645765 5.647647 5.647450 5.646300 5.646302 5.646660 5.645989 5.647497 5.646609 5.645708 5.644889 5.645782 5.646126 5.647077 5.646219 5.646432 5.646622 5.645767 5.646728 5.648100 5.648402 5.648535 5.647912 5.648742 5.647902 5.647226 5.646949 5.649275 5.649411 5.649254 5.649202 5.649322 5.649243 5.649261 5.649845 5.648913 5.647814 5.650107 5.649435 5.650089 5.650505 5.650654 5.649466 5.649089 5.649097 5.648121 5.648511 5.648322 5.648858 5.648199 5.647989 5.647407 5.649701 5.651132 5.652646 5.652656 5.653688 5.655508 5.654534 5.656958 5.655994 5.656323 5.655981 5.655656 5.655356 5.655291 5.654926 5.654514 5.654477 5.654886 5.655077 5.657383 5.657388 5.659249 5.659078 5.659466 5.661064 5.661142 5.660328 5.659488 5.658483 5.659295 5.658562 5.659225 5.658593 5.657621 5.657550 5.657072 5.656795 5.656482 5.657505 5.657399 5.657998 5.659539 5.661517 5.661046 5.664040 5.663822 5.664212 5.664282 5.664748 5.665186 5.665277 5.664982 5.664592 5.664249 5.663512 5.662448 5.661872 5.661565 5.662463 5.661665 5.660754 5.660399 5.660130 5.659238 5.658660 5.660182 5.660272 5.659365 5.658316 5.658640 5.659964 5.660386 5.661213 5.662438 5.662116 5.661602 5.662567 5.665336 5.666438 5.665401 5.665837 5.665421 5.664963 5.664895 5.664316 5.665970 5.665294 5.666283 5.666039 5.665481 5.665789 5.665438 5.666051 5.665403 5.664764 5.664722 5.664278 5.664225 5.664163 5.663592 5.663210 5.663744 5.663135 5.662066 5.662818 5.662737 5.663038 5.662136 5.661530 5.660957 5.661551 5.660459 5.659896 5.659703 5.658725 5.658703 5.658629 5.658291 5.658216 5.657729 5.658588 5.658672 5.657765 5.657666 5.658358 5.658031 5.658929 5.659899 5.659514 5.659677 5.660482 5.661157 5.660196 5.659158 5.658867 5.658547 5.658605 5.658852 5.660566 5.660054 5.660835 5.660630 5.661569 5.662419 5.662018 5.662138 5.662428 5.665252 5.665340 5.668457 5.667941 5.668655 5.667739 5.667956 5.668739 5.668346 5.668480 5.667546 5.669338 5.670209 5.671474 5.671317 5.671391 5.670692 5.673302 5.673714 5.673302 5.672742 5.672753 5.672933 5.673804 5.675010 5.675491 5.675223 5.675900 5.674651 5.675151 5.674196 5.674120 5.672913 5.672954 5.672051 5.670846 5.669799 5.668869 5.668207 5.670740 5.670351 5.671740 5.671449 5.671759 5.672787 5.672126 5.671152 5.671050 5.671411 5.671112 5.670627 5.670338 5.669333 5.668287 5.669907 5.668981 5.668260 5.668028 5.668243 5.667958 5.667378 5.666617 5.667355 5.666351 5.665947 5.666229 5.665718 5.665347 5.665358 5.664929 5.665533 5.664783 5.664179 5.663301 5.662993 5.662732 5.662461 5.661715 5.660792 5.661159 5.660819 5.662246 5.661740 5.660881 5.660763 5.661076 5.660553 5.659718 5.660804 5.661449 5.660582 5.659598 5.659541 5.660087 5.658958 5.658452 5.657731 5.657213 5.660756 5.662078 5.662186 5.664123 5.663186 5.661923 5.660904 5.660961 5.661198 5.660621 5.659572 5.659275 5.658194 5.659404 5.659735 5.658565 5.660075 5.660740 5.659650 5.659762 5.659533 5.659290 5.659024 5.657913 5.658095 5.657351 5.657472 5.659155 5.659169 5.658374 5.657536 5.657670 5.658466 5.658660 5.658109 5.658582 5.658818 5.658329 5.657824 5.658934 5.660031 5.659923 5.659253 5.659402 5.659618 5.660322 5.660420 5.659485 5.658995 5.658019 5.657017 5.657361 5.657046 5.656320 5.656764 5.657154 5.658387 5.658509 5.659412 5.658806 5.658607 5.659321 5.659645 5.661314 5.660434 5.661182 5.661461 5.662079 5.660938 5.660370 5.659704 5.659434 5.660772 5.661270 5.660651 5.660187 5.659347 5.660448 5.659692 5.658735 5.658680 5.657849 5.657642 5.656605 5.655612 5.656235 5.656459 5.655530 5.654480 5.654803 5.654903 5.655204 5.654443 5.655443 5.655428 5.655496 5.654674 5.654023 5.654306 5.654107 5.656031 5.655908 5.656072 5.655721 5.654805 5.655105 5.654485 5.653429 5.652884 5.653574 5.653563 5.652864 5.653001 5.652392 5.652417 5.652625 5.652911 5.655107 5.654109 5.656077 5.655345 5.656151 5.657383 5.658368 5.657119 5.656970 5.656152 5.656852 5.656001 5.657219 5.657589 5.657462 5.657981 5.658296 5.658727 5.658466 5.657858 5.658356 5.659236 5.659021 5.659402 5.659132 5.659939 5.658816 5.658360 5.657897 5.657125 5.657138 5.657831 5.657377 5.658095 5.657738 5.657643 5.657712 5.659826 5.658681 5.659069 5.660116 5.661710 5.661719 5.662002 5.661038 5.660718 5.659659 5.659232 5.659635 5.659643 5.659371 5.658743 5.657389 5.657111 5.657017 5.657002 5.658518 5.658355 5.657420 5.657109 5.657540 5.656627 5.655750 5.655838 5.654614 5.653593 5.654600 5.655214 5.654589 5.653707 5.653644 5.653323 5.652735 5.652679 5.652461 5.651697 5.652382 5.651650 5.651037 5.650744 5.651550 5.651318 5.650837 5.649935 5.649514 5.649291 5.650071 5.650463 5.651879 5.651385 5.650420 5.650772 5.651286 5.650728 5.651214 5.650309 5.649390 5.648757 5.648152 5.647926 5.647038 5.647326 5.646710 5.646879 5.646601 5.645619 5.645063 5.643735 5.643528 5.643824 5.642726 5.643067 5.642482 5.643529 5.643906 5.643728 5.644862 5.643821 5.644522 5.646762 5.645740 5.647478 5.647541 5.646648 5.646268 5.646393 5.646152 5.645299 5.644868 5.644812 5.643802 5.643947 5.644311 5.644389 5.643213 5.644433 5.643586 5.643906 5.645575 5.645385 5.645699 5.645105 5.644214 5.644401 5.644232 5.643900 5.643875 5.643056 5.642200 5.641552 5.642002 5.642581 5.642761 5.642099 5.643691 5.643154 5.642393 5.641698 5.641000 5.640307 5.640660 5.640885 5.640437 5.640518 5.640814 5.641729 5.641396 5.640596 5.639628 5.639584 5.639337 5.638453 5.637742 5.637512 5.637330 5.639020 5.638038 5.637346 5.636845 5.636475 5.635539 5.636425 5.635967 5.636066 5.638888 5.640155 5.639662 5.638555 5.638610 5.638276 5.638559 5.637757 5.638184 5.637946 5.638832 5.640661 5.640390 5.641661 5.641274 5.641681 5.643331 5.644237 5.646957 5.646575 5.646082 5.645306 5.644849 5.644421 5.643521 5.642946 5.642397 5.641679 5.642602 5.642311 5.641632 5.640848 5.640952 5.640666 5.640315 5.640105 5.638820 5.638300 5.638091 5.638551 5.638631 5.638233 5.638361 5.638558 5.637883 5.637383 5.637998 5.637348 5.637556 5.637129 5.636773 5.636339 5.637580 5.637432 5.636630 5.637192 5.637264 5.636497 5.636022 5.635411 5.634540 5.633891 5.634177 5.633354 5.633094 5.632527 5.633247 5.633008 5.633183 5.631937 5.631488 5.630652 5.630291 5.630614 5.630544 5.630257 5.629936 5.629463 5.631649 5.632523 5.632139 5.631979 5.632140 5.633411 5.632761 5.631673 5.631134 5.630392 5.631258 5.630995 5.630364 5.629724 5.629440 5.630578 5.629757 5.629746 5.629514 5.630460 5.629245 5.628651 5.628125 5.627591 5.628451 5.628008 5.628599 5.628857 5.628413 5.628743 5.628869 5.627910 5.626863 5.627129 5.626926 5.626353 5.626467 5.626268 5.625515 5.624893 5.625783 5.625171 5.624343 5.623166 5.624050 5.624245 5.624570 5.623523 5.623753 5.624507 5.624991 5.624666 5.624409 5.623967 5.623152 5.623638 5.623538 5.623866 5.623981 5.623647 5.623893 5.623295 5.623298 5.622923 5.623008 5.625149 5.624341 5.624073 5.625228 5.624814 5.624735 5.625049 5.623997 5.622856 5.624298 5.623913 5.623557 5.623852 5.623738 5.624986 5.624219 5.623807 5.623835 5.623816 5.623670 5.623202 5.623402 5.622607 5.622230 5.622292 5.621235 5.621872 5.621329 5.620791 5.620197 5.620004 5.619970 5.619667 5.620593 5.619956 5.619052 5.618318 5.617203 5.617141 5.617232 5.617121 5.616303 5.616396 5.615204 5.614965 5.615154 5.614132 5.614706 5.614090 5.613311 5.614012 5.612937 5.611921 5.612214 5.612987 5.612887 5.613120 5.612874 5.613017 5.612522 5.613116 5.612293 5.612461 5.611683 5.610814 5.611060 5.610258 5.609243 5.610333 5.611836 5.611888 5.610799 5.610203 5.609150 5.608657 5.608345 5.608214 5.608512 5.607692 5.608378 5.608150 5.608911 5.608102 5.607528 5.609471 5.609964 5.610351 5.610845 5.611383 5.611104 5.610511 5.609681 5.610224 5.609546 5.608890 5.608336 5.607640 5.606613 5.605933 5.606784 5.606806 5.608084 5.609026 5.608353 5.607825 5.607358 5.606334 5.608576 5.608139 5.607915 5.607767 5.608165 5.607950 5.607571 5.606921 5.606490 5.606419 5.606022 5.605956 5.605290 5.605213 5.604554 5.604579 5.604559 5.603788 5.603916 5.604276 5.604359 5.603775 5.605097 5.604771 5.604643 5.605196 5.605021 5.604236 5.604137 5.605190 5.605389 5.604621 5.604272 5.603943 5.603181 5.603052 5.604008 5.605003 5.604247 5.603732 5.603218 5.602317 5.601782 5.601702 5.603706 5.603696 5.603188 5.603720 5.603636 5.603649 5.602897 5.602005 5.602314 5.602723 5.602688 5.602296 5.602962 5.604141 5.603184 5.602493 5.602490 5.602514 5.602036 5.601601 5.603287 5.603515 5.604184 5.604035 5.603489 5.602471 5.603165 5.602355 5.603160 5.602297 5.601998 5.601337 5.601654 5.601021 5.600894 5.599856 5.600571 5.599768 5.598821 5.599779 5.600415 5.600168 5.599422 5.598835 5.598006 5.598060 5.597903 5.597857 5.597983 5.597588 5.596605 5.596091 5.596357 5.596778 5.597153 5.597278 5.597232 5.597142 5.596476 5.597966 5.598341 5.597728 5.597540 5.597006 5.596810 5.596759 5.595695 5.595622 5.595738 5.595504 5.595464 5.594930 5.594990 5.594558 5.595742 5.595112 5.594945 5.595107 5.595364 5.594484 5.594418 5.593427 5.592749 5.593268 5.593251 5.594133 5.593430 5.593150 5.593280 5.593186 5.592957 5.592181 5.592637 5.591720 5.590912 5.590375 5.590178 5.589699 5.590010 5.590133 5.589193 5.590661 5.590310 5.590473 5.589730 5.588822 5.589888 5.589826 5.589142 5.588554 5.588952 5.589866 5.590128 5.590485 5.590266 5.589840 5.589951 5.589530 5.589222 5.590081 5.590269 5.590311 5.590090 5.590195 5.589147 5.588880 5.589163 5.588744 5.588844 5.588266 5.587650 5.586863 5.586104 5.585438 5.585549 5.585775 5.587265 5.586663 5.585699 5.586185 5.585306 5.584642 5.585172 5.584889 5.584998 5.584941 5.586939 5.585994 5.586211 5.586411 5.585457 5.585848 5.585627 5.585754 5.585907 5.585465 5.585444 5.585668 5.585049 5.585075 5.584768 5.584122 5.583730 5.583898 5.584690 5.584656 5.585056 5.584462 5.584689 5.584088 5.583214 5.582454 5.582274 5.581477 5.580946 5.580172 5.580271 5.580352 5.580211 5.579656 5.579959 5.579844 5.579179 5.579593 5.578917 5.578985 5.577840 5.577078 5.577018 5.577610 5.577526 5.578323 5.577671 5.578053 5.577696 5.577453 5.577322 5.576375 5.575651 5.574742 5.574097 5.573898 5.573131 5.572733 5.572609 5.571410 5.570979 5.571200 5.570745 5.570785 5.570834 5.570186 5.569538 5.568851 5.569107 5.568230 5.568274 5.567667 5.566818 5.566484 5.565663 5.566659 5.566441 5.567104 5.566433 5.565894 5.567227 5.566625 5.567295 5.568099 5.568650 5.568305 5.567330 5.568038 5.567222 5.566911 5.568016 5.568978 5.569299 5.568735 5.568754 5.568110 5.567821 5.567586 5.566842 5.566268 5.566899 5.566205 5.566081 5.566873 5.566670 5.566675 5.566071 5.566354 5.565813 5.565317 5.566399 5.566786 5.566433 5.565818 5.566290 5.565850 5.565495 5.565129 5.565301 5.565374 5.565204 5.565402 5.565093 5.566008 5.565535 5.564894 5.564900 5.564948 5.565005 5.565144 5.564667 5.563922 5.563508 5.563167 5.563088 5.563075 5.562780 5.562453 5.562199 5.562523 5.561475 5.561346 5.561315 5.560218 5.560250 5.559233 5.560261 5.562109 5.561890 5.560908 5.561025 5.560483 5.560366 5.559512 5.559189 5.560481 5.559662 5.558933 5.557923 5.556964 5.557381 5.556569 5.556411 5.557244 5.559112 5.559123 5.559089 5.559340 5.558673 5.558633 5.557900 5.558643 5.558791 5.557602 5.557216 5.557096 5.556584 5.555557 5.555465 5.554992 5.554643 5.554868 5.555126 5.554734 5.553660 5.553385 5.552372 5.552881 5.552389 5.551291 5.550633 5.550512 5.551629 5.551050 5.552382 5.552004 5.552918 5.552401 5.552602 5.552299 5.551170 5.551473 5.551070 5.550434 5.550315 5.549550 5.549510 5.549325 5.549079 5.548593 5.547728 5.547036 5.546545 5.545653 5.545080 5.544479 5.544318 5.544132 5.543575 5.543021 5.542536 5.541661 5.542000 5.544047 5.543755 5.543995 5.544420 5.544360 5.544043 5.543123 5.542979 5.542035 5.541346 5.541319 5.540363 5.539879 5.539515 5.539516 5.539471 5.538419 5.537631 5.538374 5.538473 5.537752 5.538226 5.537425 5.537656 5.537883 5.537788 5.537608 5.537194 5.536018 5.535256 5.535167 5.535058 5.534697 5.534309 5.533351 5.533073 5.532924 5.532633 5.531616 5.531185 5.530876 5.532117 5.532987 5.532491 5.531894 5.532917 5.533564 5.534218 5.534503 5.533612 5.533212 5.532346 5.532177 5.532110 5.531556 5.531808 5.532628 5.531576 5.531827 5.531505 5.530419 5.529600 5.529367 5.528561 5.528154 5.528451 5.528113 5.527205 5.526459 5.526604 5.526274 5.527144 5.527123 5.527509 5.527738 5.527479 5.526995 5.526170 5.526586 5.528024 5.528422 5.529120 5.528043 5.528177 5.528964 5.528505 5.528081 5.527484 5.526676 5.526582 5.527986 5.528125 5.527818 5.527293 5.526535 5.526760 5.525775 5.526034 5.526494 5.525959 5.525932 5.525506 5.524343 5.523829 5.524644 5.524393 5.523536 5.524519 5.524100 5.523181 5.522315 5.521328 5.521741 5.520976 5.519796 5.519654 5.520279 5.520580 5.520048 5.519816 5.519856 5.520800 5.519974 5.519680 5.521310 5.520296 5.519252 5.519124 5.518113 5.520181 5.519558 5.518549 5.519384 5.521505 5.520398 5.519751 5.519827 5.518974 5.518493 5.519558 5.519357 5.520354 5.519931 5.519973 5.519530 5.520450 5.520201 5.520219 5.520558 5.520323 5.519548 5.519495 5.520279 5.519904 5.519950 5.518924 5.518430 5.518633 5.519079 5.518658 5.519590 5.519405 5.519143 5.518459 5.517331 5.517889 5.517624 5.517064 5.516493 5.515905 5.515431 5.514627 5.515259 5.515254 5.514754 5.514003 5.513315 5.513865 5.514409 5.514695 5.514231 5.513494 5.513234 5.512906 5.512504 5.512389 5.511989 5.512447 5.511748 5.512325 5.512719 5.513496 5.513534 5.513827 5.514880 5.514032 5.514502 5.514625 5.513532 5.513402 5.513740 5.514698 5.515097 5.515384 5.515422 5.514784 5.514339 5.514527 5.514802 5.515146 5.514811 5.515474 5.514533 5.514681 5.513602 5.512868 5.512565 5.512741 5.512631 5.511707 5.510846 5.510929 5.510582 5.509611 5.509674 5.509820 5.509455 5.508887 5.508266 5.507743 5.507182 5.507159 5.508343 5.507929 5.507135 5.507606 5.508406 5.507840 5.507099 5.507057 5.506195 5.505500 5.504594 5.504608 5.504267 5.503961 5.504463 5.504419 5.505487 5.504924 5.504707 5.503723 5.503727 5.503184 5.502959 5.502628 5.501948 5.501436 5.501212 5.501089 5.501270 5.502307 5.501994 5.501898 5.502675 5.502518 5.502846 5.502228 5.501534 5.501781 5.501385 5.500628 5.500661 5.499834 5.499921 5.499537 5.498582 5.499076 5.499538 5.499404 5.499236 5.498409 5.497540 5.497716 5.497078 5.497990 5.497379 5.496863 5.497401 5.496303 5.495977 5.495649 5.496140 5.495678 5.495190 5.494691 5.495644 5.495438 5.495133 5.494563 5.494268 5.494006 5.493924 5.494293 5.493362 5.494050 5.494062 5.494369 5.494068 5.494162 5.493807 5.493809 5.494993 5.495750 5.494922 5.495152 5.496146 5.496948 5.496111 5.495996 5.496389 5.495336 5.494302 5.494276 5.495113 5.495230 5.494314 5.494466 5.494590 5.494523 5.493884 5.492934 5.492552 5.492176 5.492742 5.492757 5.493191 5.493377 5.492551 5.492394 5.492482 5.491952 5.492180 5.493021 5.492895 5.492653 5.492535 5.492126 5.492845 5.493452 5.492706 5.491659 5.493827 5.492914 5.492178 5.492318 5.491944 5.492178 5.491220 5.490886 5.490521 5.489670 5.488721 5.487784 5.487370 5.488617 5.488117 5.489567 5.490520 5.490393 5.489744 5.489303 5.489495 5.489311 5.488231 5.487335 5.486840 5.487105 5.486659 5.487177 5.486490 5.485434 5.485764 5.485046 5.485811 5.485632 5.485414 5.485291 5.485830 5.486506 5.486604 5.485828 5.485514 5.487308 5.487178 5.487372 5.487430 5.488550 5.488839 5.488702 5.489376 5.489102 5.489441 5.488695 5.488454 5.488643 5.487919 5.487035 5.486245 5.485636 5.485320 5.485382 5.484228 5.483866 5.483288 5.482989 5.483776 5.482730 5.482481 5.481836 5.480931 5.480296 5.479870 5.479345 5.478739 5.478481 5.478508 5.477983 5.477487 5.477665 5.477051 5.478486 5.478297 5.477244 5.476675 5.477310 5.476605 5.476322 5.475920 5.475020 5.475278 5.474544 5.473765 5.473353 5.473204 5.472603 5.472487 5.471616 5.471138 5.470830 5.470808 5.470156 5.469247 5.469312 5.469023 5.468816 5.470345 5.470665 5.470642 5.470786 5.469976 5.469970 5.470530 5.469800 5.469971 5.469815 5.470054 5.470054 5.470642 5.469829 5.469195 5.468412 5.468815 5.468311 5.469753 5.470276 5.470448 5.470110 5.469298 5.469392 5.469992 5.470197 5.470290 5.469627 5.468650 5.468170 5.468181 5.467960 5.467604 5.467477 5.466689 5.466882 5.466930 5.466335 5.465645 5.465281 5.466501 5.466605 5.468204 5.468074 5.468581 5.468101 5.467138 5.466087 5.465923 5.466172 5.465932 5.464899 5.464478 5.464089 5.464949 5.464341 5.464092 5.463457 5.463056 5.462100 5.461869 5.462476 5.462805 5.464009 5.463112 5.463989 5.463457 5.462728 5.463143 5.463774 5.463253 5.462478 5.462690 5.462615 5.461741 5.461543 5.460665 5.460744 5.460186 5.460265 5.460253 5.460559 5.459801 5.459314 5.459501 5.460201 5.459814 5.460060 5.459939 5.461309 5.460332 5.459905 5.459012 5.458739 5.458888 5.459272 5.459826 5.459456 5.458629 5.458630 5.458382 5.458251 5.459460 5.459384 5.460066 5.458956 5.459109 5.458629 5.457949 5.457597 5.456926 5.457124 5.457524 5.457868 5.457295 5.457551 5.456891 5.456216 5.456439 5.456573 5.457541 5.457280 5.456955 5.457741 5.456657 5.455927 5.456547 5.457983 5.457844 5.458523 5.458373 5.457784 5.457549 5.456996 5.456483 5.456000 5.455052 5.454147 5.453588 5.452635 5.452429 5.453070 5.452157 5.452022 5.451046 5.450765 5.449932 5.449891 5.451378 5.450951 5.450619 5.450129 5.449575 5.449457 5.448707 5.448494 5.448585 5.448719 5.448455 5.448071 5.447231 5.447062 5.446925 5.446978 5.446236 5.445133 5.444973 5.445261 5.445895 5.446221 5.446534 5.446401 5.446336 5.448036 5.447669 5.447518 5.447564 5.446606 5.446226 5.445116 5.445760 5.445293 5.444766 5.444852 5.445391 5.446105 5.445785 5.445040 5.444036 5.443009 5.443388 5.443255 5.442679 5.441903 5.441038 5.441221 5.440462 5.441500 5.441851 5.442425 5.442381 5.442857 5.442591 5.442225 5.441937 5.441139 5.440492 5.440507 5.439499 5.438854 5.438185 5.437649 5.440309 5.439792 5.440866 5.439979 5.439733 5.440187 5.441078 5.440761 5.440514 5.440153 5.441577 5.440940 5.443277 5.442735 5.442954 5.441964 5.441810 5.441545 5.441724 5.440553 5.440358 5.441521 5.441131 5.441326 5.441421 5.441041 5.440189 5.439655 5.438531 5.438295 5.438654 5.438845 5.440033 5.439310 5.438998 5.439760 5.439796 5.439486 5.439175 5.438601 5.438542 5.438942 5.439103 5.438806 5.438656 5.439405 5.439899 5.438946 5.438966 5.438632 5.437498 5.437237 5.436736 5.435870 5.435215 5.434986 5.434940 5.434208 5.434041 5.434856 5.435105 5.436471 5.436451 5.436177 5.436204 5.435465 5.434680 5.434494 5.434260 5.434442 5.434744 5.434709 5.434729 5.434343 5.434059 5.432933 5.432939 5.432928 5.432511 5.431993 5.432165 5.431751 5.431523 5.431083 5.431253 5.430253 5.430420 5.430131 5.429112 5.429695 5.429892 5.429825 5.429667 5.429117 5.429497 5.428810 5.428668 5.428142 5.429149 5.428235 5.428803 5.429355 5.429674 5.429302 5.428851 5.428039 5.427983 5.427754 5.427555 5.427474 5.427055 5.426655 5.427836 5.427490 5.427126 5.426421 5.425588 5.424807 5.424665 5.424480 5.424351 5.423869 5.423426 5.423976 5.423763 5.424145 5.423904 5.423865 5.422626 5.422543 5.422474 5.423530 5.424175 5.423761 5.423116 5.422574 5.421822 5.422141 5.422000 5.421909 5.421726 5.421715 5.421002 5.422563 5.422014 5.422241 5.421128 5.420714 5.420240 5.420000 5.418959 5.419257 5.419032 5.418318 5.419072 5.418221 5.417703 5.418348 5.420756 5.420455 5.419725 5.419043 5.418491 5.418826 5.421877 5.421251 5.420621 5.423179 5.423454 5.424684 5.424766 5.424871 5.425318 5.425338 5.426618 5.425977 5.426118 5.427372 5.427589 5.427896 5.427701 5.427817 5.426901 5.426036 5.427381 5.427505 5.427193 5.427501 5.427665 5.427223 5.427270 5.427589 5.428029 5.427648 5.428026 5.427541 5.426648 5.428279 5.429377 5.430828 5.430652 5.430779 5.430070 5.430254 5.430416 5.430114 5.429407 5.429786 5.429020 5.428557 5.427714 5.428694 5.428348 5.427973 5.427741 5.426976 5.426788 5.425928 5.425740 5.424876 5.424241 5.424538 5.425420 5.425661 5.425158 5.424307 5.424797 5.425199 5.425279 5.425585 5.426389 5.426318 5.426862 5.427052 5.427051 5.427118 5.426573 5.425489 5.425057 5.424409 5.423772 5.425176 5.424499 5.424344 5.423182 5.423001 5.422265 5.422047 5.421404 5.421339 5.421912 5.421464 5.422288 5.421726 5.422680 5.422468 5.421419 5.421096 5.420735 5.420036 5.420991 5.420342 5.420184 5.420309 5.420651 5.420295 5.419951 5.420444 5.420085 5.419606 5.419165 5.418701 5.419084 5.418107 5.418455 5.418571 5.417803 5.417968 5.418644 5.418596 5.418278 5.418887 5.418426 5.418086 5.417599 5.417568 5.418756 5.418803 5.418072 5.418096 5.417485 5.418258 5.417532 5.417942 5.419068 5.418819 5.418181 5.418606 5.418194 5.417207 5.417288 5.417226 5.416653 5.416198 5.416332 5.415807 5.415941 5.414956 5.414991 5.414953 5.414140 5.413778 5.413336 5.413299 5.413126 5.412143 5.411946 5.411720 5.410638 5.410477 5.410389 5.410866 5.410993 5.412037 5.412062 5.411137 5.411871 5.411952 5.411754 5.411939 5.411394 5.412336 5.412379 5.412336 5.412923 5.414092 5.413413 5.413129 5.412437 5.412751 5.413150 5.412750 5.412030 5.411677 5.411366 5.411118 5.410906 5.410566 5.410448 5.410381 5.411037 5.411035 5.410275 5.409988 5.409563 5.409178 5.408465 5.408236 5.408693 5.408329 5.408608 5.409064 5.408734 5.408101 5.407137 5.406402 5.406111 5.405085 5.405272 5.405137 5.404032 5.407435 5.407616 5.407959 5.407011 5.406361 5.406893 5.406045 5.407161 5.406598 5.406514 5.406178 5.405294 5.406247 5.405467 5.405373 5.406110 5.405569 5.405818 5.405382 5.406936 5.406420 5.406820 5.406738 5.406507 5.405682 5.405337 5.404657 5.405688 5.404968 5.404427 5.404856 5.404951 5.406083 5.405311 5.405645 5.405179 5.405643 5.405986 5.405243 5.406126 5.405042 5.405338 5.405320 5.404973 5.405182 5.405057 5.405018 5.404937 5.405799 5.405270 5.404865 5.405543 5.405456 5.405568 5.406304 5.405417 5.405841 5.405655 5.405761 5.405680 5.405688 5.406828 5.406198 5.406081 5.405618 5.404964 5.404145 5.406519 5.406248 5.406260 5.406973 5.406771 5.406401 5.406163 5.407112 5.406791 5.408772 5.409452 5.408556 5.408606 5.408188 5.408339 5.407852 5.407799 5.406880 5.406236 5.405765 5.405165 5.405005 5.403944 5.404291 5.404447 5.403365 5.403704 5.404972 5.405456 5.405061 5.405825 5.405172 5.405704 5.406259 5.405986 5.406106 5.405866 5.405601 5.406991 5.406094 5.405700 5.405739 5.406308 5.406527 5.405877 5.406145 5.405589 5.406575 5.406519 5.405703 5.406296 5.405989 5.406580 5.407916 5.408755 5.408362 5.408092 5.408596 5.408924 5.409831 5.409732 5.409379 5.411660 5.411080 5.410133 5.409856 5.409565 5.408932 5.411081 5.410255 5.409551 5.410004 5.409559 5.409303 5.409168 5.408636 5.408915 5.409152 5.408765 5.408209 5.408280 5.407225 5.408001 5.408350 5.408260 5.409084 5.409330 5.409186 5.409169 5.408185 5.407294 5.407726 5.408682 5.408766 5.408812 5.410059 5.410012 5.409407 5.408836 5.408340 5.408361 5.408005 5.408081 5.407709 5.407445 5.406802 5.408015 5.408414 5.408737 5.408286 5.408386 5.408269 5.407751 5.407915 5.407753 5.407484 5.406699 5.406450 5.406102 5.405827 5.405638 5.406497 5.406265 5.405172 5.405834 5.406230 5.405746 5.405625 5.405165 5.404865 5.405006 5.404373 5.403598 5.403627 5.402677 5.402874 5.403177 5.403882 5.403248 5.403157 5.403094 5.402122 5.402317 5.401856 5.401527 5.402980 5.402686 5.403052 5.402673 5.402507 5.401941 5.401280 5.401162 5.402223 5.403269 5.402207 5.401323 5.400875 5.401114 5.400626 5.402766 5.402402 5.403577 5.403162 5.404211 5.403403 5.402647 5.406141 5.406208 5.406242 5.405302 5.405836 5.406742 5.406508 5.406606 5.407162 5.407731 5.408931 5.408623 5.407866 5.408217 5.409672 5.408612 5.408424 5.408634 5.407862 5.407387 5.407327 5.406350 5.407333 5.407806 5.406988 5.407047 5.408534 5.408988 5.409087 5.408359 5.408430 5.409442 5.409651 5.409440 5.409325 5.409550 5.408928 5.408758 5.408406 5.408072 5.407630 5.406588 5.406669 5.407058 5.406417 5.408163 5.407868 5.408051 5.407976 5.408528 5.408724 5.410046 5.410608 5.412390 5.413171 5.412851 5.413457 5.413947 5.413851 5.413583 5.413388 5.413426 5.414285 5.413698 5.413413 5.412733 5.412629 5.412165 5.412579 5.413521 5.412513 5.412763 5.413245 5.413760 5.415205 5.414488 5.413492 5.414276 5.414756 5.414271 5.415319 5.415530 5.414883 5.415869 5.415265 5.414749 5.414604 5.416139 5.416787 5.416881 5.416792 5.416555 5.415989 5.415962 5.415633 5.415878 5.416222 5.416178 5.416278 5.416294 5.416055 5.416647 5.416735 5.417896 5.418077 5.417756 5.418036 5.417373 5.417319 5.417939 5.417294 5.417671 5.417624 5.418028 5.418309 5.417384 5.416417 5.416298 5.416146 5.415666 5.416289 5.415534 5.416177 5.416607 5.415943 5.416067 5.415557 5.416198 5.415422 5.414972 5.415156 5.414552 5.414649 5.414210 5.413577 5.413987 5.413545 5.413132 5.413313 5.412434 5.411473 5.411724 5.412705 5.412579 5.412002 5.412301 5.412216 5.412777 5.412768 5.412460 5.411440 5.411321 5.410877 5.411183 5.411240 5.412194 5.412737 5.412651 5.412485 5.412943 5.412802 5.411986 5.414062 5.415361 5.414808 5.414074 5.413478 5.414823 5.414367 5.414023 5.414447 5.416527 5.416836 5.417036 5.417374 5.416580 5.416221 5.415745 5.415045 5.416350 5.418121 5.418496 5.417952 5.417374 5.416710 5.417494 5.417166 5.418104 5.417288 5.417638 5.417370 5.418036 5.418233 5.417567 5.417534 5.417387 5.417069 5.416822 5.417062 5.416612 5.416059 5.416637 5.416053 5.415808 5.415325 5.415992 5.415627 5.416237 5.415895 5.415029 5.415184 5.414767 5.414743 5.414109 5.414102 5.414983 5.414701 5.415558 5.415111 5.414538 5.414925 5.414337 5.413720 5.413899 5.413169 5.413277 5.412774 5.412990 5.414138 5.413779 5.414124 5.414240 5.414137 5.414125 5.414081 5.413830 5.414665 5.414933 5.414212 5.415242 5.415315 5.414455 5.414111 5.413979 5.414278 5.414176 5.413971 5.413498 5.413506 5.413459 5.412337 5.411738 5.412561 5.413729 5.413681 5.414296 5.414841 5.414486 5.413472 5.414251 5.414657 5.414194 5.413829 5.413539 5.413558 5.412625 5.412197 5.411284 5.411540 5.410629 5.410628 5.409513 5.409995 5.409078 5.409684 5.410557 5.410553 5.410609 5.411743 5.411427 5.410777 5.410728 5.412301 5.411334 5.411535 5.411570 5.411291 5.410431 5.410924 5.410970 5.410805 5.411622 5.411195 5.410923 5.412546 5.412131 5.412306 5.411962 5.411025 5.410122 5.410485 5.409845 5.409613 5.408801 5.409258 5.408900 5.409710 5.410022 5.410485 5.410981 5.410477 5.410527 5.410918 5.411317 5.410193 5.409825 5.409716 5.409152 5.409335 5.408557 5.408238 5.407972 5.407697 5.407730 5.407640 5.408479 5.408104 5.408075 5.407515 5.406888 5.406923 5.406898 5.406914 5.407151 5.406794 5.406009 5.405867 5.405454 5.404656 5.406259 5.406271 5.406215 5.407495 5.406697 5.406824 5.407843 5.408220 5.407897 5.407257 5.407696 5.408073 5.408283 5.407618 5.407328 5.406873 5.406606 5.406056 5.406298 5.405914 5.405293 5.404692 5.404616 5.404523 5.403820 5.403250 5.403220 5.403255 5.402401 5.402495 5.402686 5.402276 5.402432 5.403681 5.403957 5.404555 5.404415 5.403855 5.403554 5.403575 5.403598 5.403420 5.404220 5.403234 5.404109 5.403632 5.402831 5.402754 5.402620 5.403801 5.403223 5.403121 5.403140 5.402510 5.402111 5.402002 5.402086 5.402898 5.403364 5.403612 5.404156 5.403331 5.403105 5.402757 5.402506 5.402331 5.402770 5.402178 5.402933 5.403134 5.403606 5.402614 5.402179 5.403015 5.402676 5.401909 5.402248 5.401286 5.400978 5.401443 5.401965 5.402423 5.403470 5.403316 5.403308 5.402951 5.402863 5.402413 5.401783 5.401231 5.400903 5.400196 5.399756 5.399733 5.399358 5.399300 5.399282 5.399126 5.399400 5.398866 5.399147 5.398398 5.397779 5.397835 5.398775 5.398386 5.398913 5.400716 5.401278 5.401334 5.400750 5.399985 5.400770 5.400584 5.400821 5.400996 5.401754 5.401635 5.401235 5.401466 5.401061 5.400905 5.401202 5.401813 5.401323 5.400772 5.400304 5.400966 5.401293 5.401041 5.401003 5.400574 5.402169 5.401580 5.402221 5.401879 5.402944 5.402362 5.401508 5.400768 5.400403 5.401401 5.402468 5.401708 5.400931 5.400710 5.401034 5.400947 5.400581 5.399940 5.400424 5.401313 5.402584 5.401856 5.401021 5.400211 5.401112 5.401968 5.401407 5.402221 5.401493 5.401164 5.402646 5.402765 5.404213 5.404231 5.403905 5.403659 5.403017 5.402400 5.402171 5.403538 5.404020 5.404561 5.404423 5.405161 5.405719 5.404792 5.404811 5.404117 5.403447 5.402611 5.402388 5.402464 5.402279 5.401874 5.401739 5.400883 5.400174 5.400550 5.400121 5.400267 5.400200 5.400147 5.400701 5.400827 5.400162 5.400406 5.400108 5.400844 5.400521 5.400566 5.401391 5.401372 5.404696 5.403579 5.403559 5.403966 5.406260 5.405751 5.404853 5.404522 5.403751 5.402805 5.402565 5.402602 5.402650 5.403538 5.403243 5.403212 5.402947 5.401945 5.401319 5.401349 5.401068 5.400217 5.400471 5.399577 5.398546 5.398928 5.399094 5.398383 5.397619 5.397253 5.397355 5.397947 5.397662 5.397091 5.396982 5.396347 5.397403 5.396874 5.396606 5.396318 5.397139 5.396657 5.396687 5.396231 5.396743 5.396621 5.396482 5.396248 5.397393 5.396537 5.396991 5.397269 5.396547 5.396713 5.396630 5.395701 5.395012 
