0.000000 0.000000 0.000000 -0.582464 -1.297918 -0.628671 -0.337338 -0.384123 1.236179 4.994694 4.191644 7.247179 4.679334 3.795191 3.585004 3.400033 4.941176 5.287588 10.395029 9.988811 4.603944 3.227131 -0.569353 8.477288 2.268132 8.918512 9.208002 3.819574 0.782517 -1.715498 6.000907 6.231045 6.100170 4.486174 5.713519 5.962382 7.633751 8.050352 4.658707 0.315417 0.898555 0.967329 2.534439 1.223191 0.820251 4.151880 3.241192 2.891970 2.861079 -4.053105 0.905210 5.699935 3.267744 7.789002 3.977692 4.501708 -0.386384 3.336238 -0.786921 3.083932 0.792244 6.888046 6.854345 -0.153842 -1.913163 1.134974 0.041253 1.371376 1.809058 1.866998 5.301786 1.062974 1.587504 5.276554 2.690158 0.229686 1.419942 5.125876 2.570570 3.589560 -1.178171 -2.524518 -1.095037 -2.525025 3.899370 -2.908401 -3.144992 -1.219822 0.830421 -3.846126 -5.044053 -5.221592 -0.235567 7.928118 1.425486 -0.316485 1.282939 -0.194785 7.912681 5.014714 0.609114 -3.720581 1.999277 5.167191 7.525356 8.269823 5.063820 7.673705 6.700384 1.128647 -3.702167 0.247174 -2.229960 3.779897 2.102046 6.622015 6.252244 4.286306 5.555639 0.731165 -0.672728 4.200751 7.073563 5.952474 5.713404 0.543740 -0.920599 0.435687 -7.949036 0.030447 2.301835 -2.658149 -0.426229 5.454579 1.601571 2.185667 -0.907795 3.251507 0.911763 -6.788672 -3.585279 0.759559 -5.287936 -0.069961 3.256335 -3.051270 -1.304124 -2.356480 -1.200385 0.845348 4.764562 -1.124906 -2.765633 -8.183380 -9.810468 -8.513708 -8.273717 -8.302858 -8.288710 -11.737366 -10.983579 -14.166352 -11.716253 -12.707256 -9.671080 -13.939846 -10.022559 -8.816901 -6.959842 -9.832648 -10.593797 -10.701050 -10.775999 -9.087509 -6.878186 -6.295666 -0.959899 -6.317367 -14.712240 -8.114840 -6.239701 -4.368965 -5.363905 -8.996232 -9.893735 -3.166673 0.336049 -0.558721 2.790290 2.146069 0.158022 6.628723 5.031712 2.693534 0.613351 1.812524 -1.292174 -5.606971 -3.192311 6.105896 8.486211 3.870182 4.564821 10.085424 4.566717 6.394083 3.788001 6.315236 1.969753 0.691909 2.234019 4.308143 1.360703 0.582089 -1.213368 3.387360 6.373663 8.753981 2.584645 2.655967 8.021241 2.420886 2.485359 4.529305 1.480839 0.590033 0.499822 5.550582 6.898473 5.427508 3.413713 4.649149 3.255503 7.925133 5.847928 3.409849 -0.503617 3.575949 8.136506 5.753789 3.401377 2.966049 6.257259 0.234000 1.955350 2.693111 0.982570 2.273501 1.022236 0.614983 4.033467 -1.883615 5.011505 2.029340 2.641154 -0.339466 -1.173561 0.411563 2.567208 -0.299515 2.401424 1.604394 2.994141 -3.347529 0.061631 4.659095 0.565256 2.884793 8.970214 3.622404 2.087599 7.185325 6.770872 3.065268 3.980305 4.343565 6.036316 4.833678 6.220478 1.551141 1.936217 5.635615 6.525463 3.262644 5.909942 8.452059 7.268767 12.093071 3.259474 4.084455 8.095349 5.496034 6.395347 8.572061 5.625912 4.767900 4.670987 4.567129 4.501442 6.198695 4.942217 6.251685 11.813833 4.700227 9.464458 2.546054 3.727726 7.749794 6.944401 11.748040 6.378997 4.725879 6.231619 6.531125 4.790160 -0.769190 2.881232 0.554001 4.794549 6.136962 6.356232 4.770669 -2.463101 -2.719296 2.499095 3.772227 -2.827537 -1.080373 -7.217585 -12.541397 -10.366677 -2.895119 -7.833821 -5.844093 -1.507869 -0.458961 -1.928354 -2.185815 -0.460390 -5.119469 -9.837135 -4.101327 -4.186574 -7.861061 -5.246995 -6.101304 0.355126 -6.289074 0.290048 -0.972541 0.081855 -4.554725 -4.135148 -3.891970 -2.218862 -3.453496 -0.375782 5.680640 0.412164 -4.531423 -3.897590 1.373775 -2.467136 -0.189949 -1.034453 -1.436372 0.216217 0.666070 2.425793 -0.484922 -4.754700 -2.412844 -3.474889 2.891546 -0.403925 1.923759 -2.354639 -1.982671 -6.896463 -4.949912 -6.026111 -6.496674 -3.148385 -3.953439 -9.436849 -10.854794 -7.730330 -12.147345 -10.059608 -14.425714 -12.390377 -4.839534 -8.068212 -5.680864 -11.589519 -8.254872 -7.157863 -3.662053 -6.075097 -11.908373 -16.801138 -18.067774 -15.024142 -9.111761 -12.689745 -15.415077 -14.185332 -15.584929 -9.205114 -14.185774 -15.705065 -12.375390 -9.801987 -14.330972 -10.341437 -7.311014 -6.654182 -6.396742 -11.329971 -5.790842 -4.091183 -5.543089 -5.776609 -5.679969 -5.650432 -0.448692 -4.085147 -5.149066 -3.433430 -9.819458 -8.173075 -2.289771 2.608509 5.625626 -3.707046 -7.884136 -6.965036 -1.666985 -2.004113 -2.106309 -1.926426 -3.549879 -2.263432 -3.527199 1.232255 0.933824 -2.683132 -1.809464 -3.164567 -0.222538 5.809599 2.251639 1.208143 -0.529615 4.043376 0.173649 -2.752765 3.499355 0.061033 7.393448 1.133547 4.231150 5.397066 3.751074 5.000562 7.124786 4.163057 -0.129645 0.487870 2.352029 0.983214 -2.871245 -5.595399 -6.339930 -3.212571 0.979260 -3.115825 2.517506 0.824243 -6.808804 4.881710 1.396854 1.560455 7.099224 5.085354 -4.258334 -3.272108 -4.576203 -0.155429 2.823682 -8.478406 0.309446 -3.732605 -3.769415 -0.047165 -2.553383 -5.143821 -2.295449 -4.969141 4.348365 0.239709 2.142430 -0.412146 0.384492 2.381245 -2.290070 -3.653424 2.984397 -0.412144 3.544827 1.508128 -0.985166 -1.540797 -1.668737 -5.194384 -2.742649 -0.237062 -1.405454 -0.007861 3.929124 3.242529 1.270121 -5.985023 -4.545893 -9.114504 -3.759583 -0.338039 0.364793 -4.514087 2.780855 4.962719 6.938507 4.217154 -3.390635 -1.980202 -3.154112 -5.447736 -4.268318 -2.175146 -1.697811 -3.301090 -0.283324 0.599530 5.835894 7.345706 5.905977 0.436465 4.099899 3.485160 6.463049 3.987418 3.172647 3.062793 2.956903 4.591547 8.462892 2.609798 2.588911 2.828287 4.398981 6.524911 7.066566 2.020393 0.614895 -4.804482 7.268360 3.886998 -1.010352 -1.958293 1.206597 8.791167 10.794633 -4.238741 -10.051449 -6.098455 -0.132221 -5.579001 -3.711179 -6.311163 -9.013114 2.345113 0.391429 -0.589816 -9.054230 -6.353845 -7.113017 -4.208872 -3.267837 -1.381126 -2.516238 -2.864903 3.974499 -0.976923 -4.289008 -3.144002 -1.153732 4.432218 -4.263656 -1.658162 1.215099 -0.012671 -2.060483 -7.624171 -5.735883 0.074032 -5.337367 -0.094149 1.732658 -4.936763 -3.284865 -2.553477 -2.601134 -4.282193 -3.003462 0.827764 0.102488 -0.186117 1.570178 -1.402152 -4.033139 -1.211407 -0.434927 4.755184 -2.304294 -2.744509 0.894476 -8.587439 -7.976616 -12.549436 -7.303989 -3.951391 -3.304355 -3.105243 -1.296204 -2.548923 2.144355 -5.042970 -5.587126 -3.694094 -3.395975 -6.838847 -7.779453 -9.681273 -6.898106 -6.100899 -4.331787 -7.233335 -9.844492 -10.481122 -5.557053 -4.246998 -7.503242 -8.348476 -10.204345 -3.981224 -3.917540 -5.890782 -9.719186 -5.626701 -11.298850 -11.435565 -2.592393 -5.411523 -3.071957 -5.492090 -6.372217 -6.490285 -8.275807 -5.369827 -6.190576 -9.990094 -7.513783 -4.992549 -13.030543 -5.009279 -2.393982 -5.567328 -8.013402 -6.806131 -6.494377 -8.207200 -3.500054 -3.802408 -0.657296 -6.473598 -8.242847 -8.473653 -5.215612 -4.322750 -4.162760 -4.060317 -5.741571 -6.239641 -1.188487 -1.510170 -0.080143 0.466273 0.530422 3.966952 1.501956 2.373540 -4.090078 -4.345982 0.940736 2.245420 2.418229 2.555123 -2.577492 -0.652748 -1.686876 -3.940654 -6.229683 -5.145853 0.283923 5.130605 -0.539545 -2.203090 -0.697409 -2.153644 -2.696819 -1.062401 4.488461 7.670074 3.242709 1.988605 0.089268 -0.591180 0.932846 -2.122375 -9.959282 -1.749432 -1.004815 0.411590 -7.579971 -3.028622 -1.491815 1.990295 3.041061 -0.178775 -1.072867 -2.931366 1.614554 4.661422 1.892183 4.566418 3.775519 1.648903 2.872973 -3.593711 1.353091 3.028611 1.465200 1.135137 -2.272784 1.883859 -1.954915 -1.526557 -1.121432 0.616670 2.858443 1.773947 -3.681903 -3.387007 0.306665 -2.204445 0.460026 4.889529 -2.579155 -8.165957 -4.190115 0.358135 4.846992 1.007426 -0.074716 -0.119922 1.517261 -10.025462 -6.449825 -1.542450 1.147738 1.910269 -1.225606 -2.082176 -7.357170 -12.345726 -1.569834 -0.188575 1.452593 -1.243426 4.812331 3.185694 4.153313 -3.957921 -2.929589 1.054494 0.192887 6.712475 3.529265 4.049733 4.435138 6.096127 6.519544 8.275487 7.032194 4.855817 9.422099 10.693932 12.506450 9.616586 6.978807 8.014793 8.245972 9.865709 15.454221 15.209270 9.771530 10.032315 6.749703 7.298069 5.808984 6.937084 7.266755 2.060434 7.414029 2.173810 2.004672 -1.198727 2.828391 0.585200 8.264581 7.143405 4.706802 9.365399 5.488588 2.370322 3.423987 3.642804 12.134534 14.533856 11.444914 12.390455 14.455747 16.571823 17.096509 12.032469 15.750408 15.217660 13.042853 14.264675 18.076553 10.415354 -0.456051 -4.910601 -4.334484 -4.315974 -9.565142 -5.840150 -4.616663 -4.554214 -9.619600 -2.431296 -3.688343 -7.880276 -3.640879 -2.367465 -2.283953 -5.612464 -6.543733 -4.996347 -6.353315 -3.371726 -9.329528 -6.009414 -8.246956 -2.297469 1.271090 -1.447523 -0.474630 1.665398 3.827308 0.928384 -1.657933 -2.276672 -0.768094 -3.863183 -3.102706 -7.940366 -9.460555 -9.738994 -9.936305 -3.161739 0.446082 4.638160 -2.772276 -6.699268 -5.800618 -7.408062 -2.857097 -1.508044 -6.536082 0.690411 -0.567188 -1.371402 0.337471 -4.421262 -4.182934 -9.112312 -15.867834 -9.012819 -8.743114 -7.398596 -3.392784 -0.642569 -10.361160 -6.245793 -6.458337 -8.712327 -4.058243 -7.874032 -7.496742 -10.590077 -11.634966 -10.108196 -11.467395 -10.223769 -13.234487 -15.915030 -11.379141 -10.103726 -6.529761 -8.873404 -9.647942 -9.706235 -8.061444 -5.893572 -8.780400 -6.178552 -3.571341 -13.360963 -7.519388 -5.471547 -3.661335 -4.748200 -3.349345 0.550542 -7.061828 -7.592810 -10.832362 -10.253510 -6.527936 -7.311034 -0.753674 -2.232411 -6.392270 -0.459068 2.992702 3.607503 5.547118 6.119753 2.720499 5.202806 5.994097 4.264630 0.347871 -2.446000 3.704061 7.115498 6.033802 5.760545 4.021989 6.887523 5.976865 3.797568 -0.193482 3.849582 6.744832 5.542055 3.460167 2.934031 4.478713 4.826788 6.541454 1.834518 3.846848 8.030905 2.047196 3.679156 4.425553 4.336943 6.029431 4.763667 4.288540 5.930197 2.872420 5.349537 7.898606 8.398975 6.767304 9.773531 3.744701 3.575977 2.088772 3.194512 0.105846 -0.855952 -2.723027 0.134402 2.705738 6.727292 2.669314 1.432172 3.044811 5.126191 2.170889 1.313626 1.225321 1.129040 4.538864 3.774999 1.695290 -0.500331 0.634174 -0.766753 2.184869 4.829824 3.675819 3.325669 5.043754 2.009366 1.057519 2.659773 3.019837 3.016779 -0.427323 2.025678 6.264245 5.499881 5.178754 5.195986 1.666883 -1.110693 1.651895 4.112563 2.867036 -0.975538 3.181605 2.668775 3.933782 4.407569 0.955277 -1.781480 -2.467075 0.734861 -0.178589 2.841901 3.783621 -3.075415 -3.280229 -1.390351 4.060791 2.054020 1.292595 2.987590 3.347449 -0.141614 -2.862112 -0.089241 2.365912 -2.339497 1.480517 -0.700288 -3.393045 -5.698745 -2.913992 -0.423234 -1.636785 -5.461708 0.448302 0.451074 1.822810 9.301100 0.945082 -1.675587 -5.360708 0.305988 -1.461335 -3.990332 -2.721242 4.562778 8.228853 3.864030 2.711732 -2.560306 -9.345684 -5.879557 -4.782733 -9.948693 -6.096498 -1.322951 -2.000950 -10.851645 -11.450359 -13.052035 -15.461455 -16.029627 -14.385140 -10.488283 -4.248488 -2.558159 -3.917378 -11.098241 -9.596247 -10.674642 -11.234452 -11.252395 -7.802730 -6.834102 -3.224330 1.323857 2.478328 -5.915919 -4.762481 -9.317577 -9.199498 -15.843637 -14.423840 -8.577057 -12.398927 -10.184461 -12.732680 -12.001345 -4.737016 -2.851978 0.854195 -1.464745 -0.570115 3.264400 7.611673 3.471453 5.652821 8.190563 15.514612 12.302067 7.650922 3.128967 6.995409 4.579476 7.019613 6.139361 3.886964 5.015558 7.021857 5.658764 10.350542 13.423531 10.507731 13.089619 10.445438 14.590553 7.211291 8.250410 1.950560 3.261243 5.586245 2.451314 3.201616 -1.677404 0.186694 -0.879385 -4.945059 -0.852160 -1.393599 -0.167218 3.734827 -2.249940 -0.656120 -6.866821 -2.022860 -3.875305 -4.832541 -3.178508 -1.079238 -0.628194 2.890578 -1.323337 2.506984 -3.122116 -3.306571 -4.778541 -3.673591 -1.583291 -2.831027 -1.515513 -4.525390 -5.497852 1.291925 1.393106 -0.599499 -11.360709 -10.906289 -3.531231 -6.999734 -8.202599 -6.461181 0.833022 4.506074 10.497378 10.501931 6.851666 11.141547 15.887771 13.445883 -6.365381 -1.383430 -2.809627 1.148858 -2.650511 -5.701304 7.527020 -0.926142 -9.172534 -7.316740 -12.050336 -10.274266 -6.056374 -10.339720 -15.161823 -9.353052 -9.473703 -8.191521 -4.209499 -1.494086 -0.916200 -4.276852 -6.988654 -5.952112 -7.461103 -2.857335 -13.648149 -8.324169 -4.576505 -2.412724 -1.800329 -5.149752 -4.413391 -9.339422 -12.665995 -13.436480 -13.733288 -8.721244 -9.088008 -4.248652 -7.974935 -16.253311 -9.684339 -7.695563 -9.417311 -4.578075 -8.354833 -8.000673 -9.367531 -11.684533 -10.561914 -10.224027 -15.472109 -16.950156 -10.244340 -17.146050 -5.539309 -3.510847 -8.875545 -11.845261 -14.222088 -13.249279 -4.286937 17.216436 24.710531 24.476907 22.949956 24.331207 26.420168 26.875662 21.739399 25.501174 26.748146 25.019463 24.591011 21.054056 23.433599 15.536888 9.583816 8.272145 4.375403 6.604217 10.817705 11.760621 8.426063 7.504702 5.589967 6.640478 3.481473 2.423882 5.700879 6.505861 4.782766 6.035355 6.397914 2.849381 0.069223 1.088613 1.304187 -0.550138 -1.109902 0.467616 -2.662978 -1.972399 -5.130311 2.412715 8.125188 9.257022 9.521417 6.140919 8.544378 7.556117 8.718918 2.181354 7.082673 8.718455 6.960555 6.512726 8.148127 10.226942 8.947025 8.484755 6.666177 4.319790 8.858637 8.407971 6.244377 2.283462 2.891737 6.580307 7.453775 0.617735 3.910124 1.625071 7.518888 7.659940 5.605184 6.902252 3.823319 2.787820 4.370926 2.993131 -0.984774 -2.041368 1.199696 0.276850 1.561197 0.297113 1.522753 7.120136 5.099913 9.480880 7.458210 6.541929 2.977847 7.055703 3.077872 3.338660 -1.546254 2.038465 3.218494 6.648393 7.637752 7.716673 4.241432 6.641265 7.378522 3.822147 1.046328 3.794916 9.689632 4.161178 0.607296 1.634895 1.773945 -0.147165 -0.742463 -2.663055 -6.817717 -13.235515 -16.782404 -21.213788 -27.807933 -29.672307 -28.404499 -23.032842 -23.410902 -25.525550 -26.057627 -22.798216 -25.489649 -24.765713 -31.383893 -24.828060 -26.215366 -23.718792 -24.539916 -26.787231 -29.145944 -28.119393 -26.155410 -30.999392 -29.036116 -28.315784 -31.920961 -27.778451 -33.480432 -25.077361 -32.818414 -33.940415 -35.493820 -31.085640 -26.405069 -23.677668 -21.342195 -19.073971 -13.408128 -13.723470 -12.413620 0.114094 3.408013 17.571871 23.386241 19.073726 3.912200 -2.105820 10.274402 9.899070 12.407607 18.501638 14.554043 11.213173 12.017581 15.365543 19.330814 21.741381 27.195422 23.142423 19.654680 18.547031 14.286392 17.775720 13.246311 11.190338 12.166404 13.593994 13.407896 21.507411 19.871675 20.274524 18.465302 17.336988 18.365346 16.445500 15.383598 16.513068 18.149939 16.434939 12.100342 15.885300 11.592321 6.376774 10.232501 12.972316 16.796104 12.597614 9.473244 12.244849 9.455716 8.389487 8.225674 8.040248 6.152193 7.273856 9.317928 6.234535 6.958733 2.053524 0.425164 3.592339 2.591188 -1.415437 4.454215 6.168293 4.462107 2.281040 -0.068826 2.675896 6.897295 -0.838938 3.730907 3.678282 -0.353826 2.077003 6.330146 2.028373 -2.832706 -3.983618 -2.584054 2.890264 2.595743 0.534484 1.804424 3.905000 6.076364 4.877477 2.724610 3.919665 4.276352 2.504530 0.274640 1.443023 1.807049 7.009803 3.313135 5.514599 6.462310 8.245162 7.064834 4.947872 2.717447 0.407722 10.235249 14.853156 13.970132 13.853624 10.493109 16.454688 16.587135 16.291607 18.162702 15.232699 16.060031 16.506186 18.258075 17.061721 9.719138 11.218763 13.679382 14.115389 14.234014 17.812288 17.100204 13.271826 10.585445 8.212576 9.284248 7.901644 7.412710 10.864591 10.089656 6.233119 12.234006 7.120306 10.493335 11.897083 8.476069 9.310902 6.249839 5.219281 5.110114 5.024926 4.994940 -1.955677 -3.939995 -2.455107 -0.422039 1.819135 0.699661 -1.395445 -5.356206 -4.701358 -4.389807 -7.907036 -5.388941 -7.967436 -5.439278 -1.003819 -3.404475 -9.380635 -9.093517 -8.824625 -10.644368 -9.353485 -5.379197 -11.272865 -9.558544 -5.162336 -5.887970 -6.141008 -0.776791 2.509611 5.005448 5.811161 9.545180 10.700525 9.204797 8.914071 7.246325 8.540753 5.584824 9.926428 6.211624 3.195541 -0.741183 3.415513 3.038241 -0.760557 -1.593216 -3.368654 -2.149599 -1.656184 -5.031750 -4.159186 1.526797 -0.421865 2.361130 3.471214 14.056310 10.215527 13.940791 19.025371 16.681008 12.493972 16.802446 12.925516 15.034068 17.748951 16.576090 16.253071 12.838378 10.116996 13.004040 13.871939 12.220256 17.076513 18.570894 10.052318 9.497124 13.238065 8.850248 5.768678 6.980286 9.067249 11.310817 8.465199 9.388827 2.899906 2.678534 4.725859 10.360211 3.235774 2.811071 1.467091 -0.868752 5.570039 7.503735 7.751161 6.265947 5.899096 7.647452 6.422639 4.312937 3.888639 2.133009 6.886567 3.160516 5.397871 2.954357 0.345724 -0.111078 -1.879070 -0.601133 1.671596 -1.190618 3.263884 -0.419902 1.798361 6.325607 5.705749 7.254148 6.193529 5.853484 5.938643 4.268183 5.606932 2.657044 5.264567 6.262658 9.880549 11.034333 6.049322 6.497786 5.174210 4.662819 2.937039 -2.754391 -5.990828 -3.173721 -11.075723 -11.721085 -9.652462 -9.274817 -7.444730 -3.349338 -7.466999 -3.503534 -2.048917 -3.691051 -4.039953 -5.765734 -6.280290 -4.585182 -9.342565 -10.752595 -9.118522 -10.482695 -12.678944 -18.391166 -16.464577 -15.707685 -13.985418 -13.413413 -15.042263 -17.208217 -19.472949 -18.318010 -17.929358 -16.168133 -15.615055 -17.255796 -17.674750 -15.950685 -20.707197 -18.625756 -19.483276 -16.464482 -20.672797 -18.521974 -15.843488 -15.294441 -20.354420 -18.211819 -13.848253 -14.567144 -18.299013 -17.400033 -16.975850 -13.464178 -19.345825 -19.354446 -17.179979 -14.956879 -14.317020 -12.347399 -9.944710 -4.039923 -12.801716 -11.919921 -9.293849 -7.080741 -9.896416 -10.633585 -8.840887 -10.068297 -5.190883 -0.123824 -5.851939 -7.461195 -5.715860 -3.547106 -4.692884 -6.719169 -5.369723 -3.135129 -4.296591 -1.116681 -3.527347 -0.858537 -5.062051 -2.935582 -1.993252 -3.674689 -0.566488 2.186521 1.054870 4.237240 7.023634 9.377053 15.275065 23.893270 19.153922 14.107952 20.096236 18.305203 17.381803 15.666996 13.357403 16.224793 15.315327 16.575184 18.787755 15.776234 14.822288 12.954674 12.301871 8.644022 5.779658 6.807497 8.794067 9.175033 9.177398 5.656969 6.329196 3.105301 0.225826 3.010431 -1.498825 0.440627 1.213485 -4.139456 -7.427412 -4.704087 -7.545357 -5.138337 -6.057399 -4.878810 -6.247814 -6.828219 -10.474385 -4.642263 -8.173067 -6.151542 -5.302089 -7.150931 -7.719612 -11.373788 -7.304057 -2.596806 -3.403801 -2.033235 0.166833 2.322919 1.042751 2.302225 0.932916 -1.398953 1.459170 -4.751837 -1.541060 -2.078679 -6.163494 -3.735965 -1.237274 -6.086615 -9.286824 -6.493898 -2.319305 -4.907643 -4.044840 -5.398376 -4.264506 -3.924635 -5.760544 -8.083277 -8.742273 -7.229236 -1.685053 -3.784339 -4.668353 -1.264779 1.272239 -1.782659 -2.755087 -4.698094 -8.931043 -6.672411 -4.277166 -7.444195 -10.220052 -9.184800 -3.774592 -4.251098 -2.966407 -4.311606 -6.696760 -3.918474 -4.983664 -5.629299 -2.317805 -5.067340 -7.914721 -1.652107 -7.035242 -3.822360 -6.133369 -10.807870 -12.061949 -10.726420 -10.604493 -10.818047 -7.514976 -13.759203 -12.362080 -10.021032 -11.579305 -10.481117 -11.975542 -14.452045 -15.232489 -17.338233 -16.410717 -19.755048 -17.498116 -18.613382 -15.837007 -13.358774 -13.028142 -14.897310 -19.074943 -20.371320 -5.062878 -9.749718 -3.212613 -6.113247 -0.663548 -9.455530 4.992078 19.943978 -15.473677 -22.289989 -15.457356 -7.633685 -4.161369 0.042995 -2.411495 -1.680634 9.038901 16.968170 18.552617 11.774530 8.016303 7.050094 6.503935 13.103169 18.268063 8.695893 5.755199 5.256327 8.173884 -5.247290 -16.393646 -20.808054 -18.736946 -13.215446 -12.067479 -12.147818 -10.563692 -12.127865 -18.167409 -13.013073 -13.369876 -14.156443 -16.183802 -10.036382 -8.518887 -10.465741 -7.656792 1.697613 0.336400 -4.166893 -1.887234 -52.216147 -35.419557 -18.056348 12.162412 15.188259 25.309024 25.062430 22.361925 25.089500 34.352172 29.436793 27.418389 23.543643 30.777220 30.897489 31.927510 9.393652 16.655489 26.477220 27.872502 22.623777 14.045527 2.792134 1.287749 -0.909185 -5.562057 -7.038373 -7.587214 -2.845417 -3.541570 -2.501886 1.195506 7.105432 11.854017 12.747003 16.166607 13.419432 5.203260 1.091134 6.935698 10.003526 10.244965 11.869838 10.358140 7.818031 17.461068 14.711703 14.887412 13.380236 14.267910 17.843984 11.476295 12.782620 6.284071 9.133273 6.551974 1.686105 3.799076 2.494952 5.107352 9.234074 8.188237 0.508103 -0.024535 1.597287 -0.195212 0.726373 -6.152314 -1.482611 5.181623 1.081546 1.280036 3.194358 -1.981087 -2.024881 -2.002305 -2.445656 -2.806074 -8.404978 -6.745479 4.224129 10.304989 2.581992 -3.291552 -6.464828 -11.132255 -0.434302 2.498617 0.702430 3.705981 4.429672 -4.574018 -5.517784 -3.827057 -7.327951 -8.579015 -10.662358 -4.518161 -4.650993 -1.732657 -7.872829 -20.477561 -16.826298 -13.843101 -8.461510 -7.030062 -12.206243 -20.723355 -16.016160 -7.595789 -7.562006 -4.348967 -5.055880 -10.821389 -7.162057 -5.996128 -4.357031 -3.867121 -3.862265 -5.653831 -4.464544 -4.101242 -5.909801 -4.678232 -7.775717 -8.800457 -10.666582 -7.772777 -8.643101 -5.587785 -9.828061 -5.971417 -6.320940 -3.253340 -0.454169 -6.825660 -5.143364 -0.772290 0.181979 -1.379368 -3.452458 -3.930829 -2.242935 -0.015468 -1.177128 -6.762546 -1.188912 -2.857694 -1.982855 -3.142639 -5.314505 -2.290994 2.164691 -0.244644 -0.984755 2.588455 8.813882 1.679141 -2.226290 2.480704 2.006034 -0.150763 2.981567 9.212482 7.292425 4.853630 4.476538 2.665959 5.640411 3.106903 7.484926 14.246838 10.632880 16.496960 9.806903 7.517072 3.949391 8.088378 11.203015 8.335646 9.346911 11.655427 15.704084 11.600048 12.132668 10.918911 13.957301 23.751582 14.152711 14.659004 15.659958 10.357485 7.234874 13.736880 13.890202 17.159980 16.670195 11.191348 20.393534 21.584196 23.169229 15.281851 18.327800 23.260106 22.617513 20.749792 15.294900 19.195200 22.418526 23.135718 20.024392 19.367637 24.773057 15.906114 16.826524 17.910068 18.033423 14.822040 14.148253 17.834727 22.526952 20.400238 21.680236 22.513101 26.316037 18.891292 22.108699 27.253740 19.756653 19.538585 18.486730 16.400177 19.655596 20.888540 26.517736 23.165240 20.450367 25.524726 23.674540 24.830412 20.421831 22.761042 20.426625 21.482317 23.997101 26.549848 20.431970 17.132615 20.302339 17.867254 20.690617 20.221659 25.337482 16.641487 21.131393 21.486745 21.266534 19.883395 23.216213 22.702470 22.580292 22.926906 9.206651 -17.241991 11.220148 6.352362 3.010309 -5.055009 -12.570929 -3.617835 4.531565 8.200286 9.445275 8.320898 11.757185 4.286674 9.208704 -4.421483 -6.799888 -1.068200 -3.067843 1.623070 1.776709 5.254093 -0.327682 3.412618 13.905118 -0.749695 -13.734633 -24.841640 -27.638475 -19.154833 -32.361042 -46.740853 -35.539073 -45.872071 -52.928384 -44.873562 -42.356465 -38.369464 -36.727744 -29.106916 -42.362458 -44.401478 -43.773151 -41.921633 -44.586313 -39.820445 -15.180638 4.046051 15.805146 26.302569 29.470871 30.411816 20.564612 14.553130 -7.401717 -18.619358 -20.565688 -22.722428 -23.153126 -21.108754 -23.780897 -20.839871 -24.783599 -18.852443 -16.588251 -21.372292 -22.332599 -23.821231 -17.084911 -20.095589 -21.046376 -20.665751 -22.146361 -18.819905 -17.527123 -17.108548 -18.422719 -22.040847 -17.471873 -17.548737 -12.378087 -6.968997 -3.713081 -0.866825 -3.328803 -3.835342 -3.531460 -3.266946 0.560608 -5.111969 -4.878444 -2.400700 -5.173828 -7.518374 -4.196386 -1.235304 -2.101627 -2.094101 -5.213231 -9.379476 -8.371639 -7.714735 -9.166058 -12.768449 -9.907621 -10.444291 -14.062557 -14.644158 -17.886706 -20.348805 -17.076499 -19.345064 -19.903820 -14.264916 -10.686334 -6.142996 -4.539706 -9.190971 -8.409541 -11.154475 -15.349744 -19.557058 -11.585417 -3.690431 0.089842 1.358704 -3.240761 -2.506133 -0.032860 -2.767457 0.171995 3.234251 5.866706 8.594043 6.065483 9.041447 10.329946 10.688420 11.088483 9.690021 14.775813 18.285214 13.947306 14.708076 15.443678 13.911320 13.719950 17.485777 15.215505 12.852179 16.142612 15.542625 18.865667 14.905690 15.535546 21.492503 17.925212 15.118442 16.646031 17.250696 15.721069 17.275807 17.993835 20.013355 20.802614 15.866391 14.682865 14.790517 13.142512 16.363973 17.558074 19.624407 16.952574 9.279999 12.754716 14.204515 16.150168 18.752955 21.367106 22.232456 12.094926 11.199910 2.893829 0.434538 -1.349844 -10.572242 -12.906623 -12.939867 -14.675617 -13.208891 -8.969297 -19.952371 -19.493710 -11.452440 -5.875887 -2.624301 -5.000179 -3.732145 0.542009 -3.461192 -4.531787 -4.282858 -4.111390 3.150577 1.921033 1.428903 -1.701763 -0.697358 -5.322039 -1.315799 -1.448019 -5.155696 -0.564269 2.829846 -3.386291 -3.189287 -2.563420 1.059853 2.282992 2.639354 4.720706 7.223056 0.968194 2.800562 0.333122 -0.542687 4.834976 1.170776 3.491114 4.628644 1.279788 3.992822 6.797552 3.925198 1.420048 1.003864 2.724955 1.484109 4.624110 2.183674 4.848135 5.878804 2.471298 6.862343 8.314566 10.177215 9.066671 6.941064 8.212337 5.125320 5.885940 6.309606 6.280844 9.802021 9.042736 6.884880 8.164184 6.807000 6.273015 4.462777 3.895495 9.049026 10.442275 8.787765 3.120886 10.344503 5.531194 -1.668166 0.271426 2.664686 2.991362 4.780392 7.033221 4.010206 4.796746 5.161784 3.295006 4.484124 6.605225 8.770578 11.017771 6.278100 10.079014 6.105330 1.050156 1.650081 5.348277 -0.861297 5.961296 15.253164 15.498278 8.289907 15.199129 19.123505 16.077746 13.465748 16.390589 13.630814 14.319916 5.901184 1.545703 -8.100465 -2.202663 -0.252234 -2.110679 -7.838053 -11.191995 -6.775861 -5.645979 -3.966568 -5.248675 -2.289606 -3.220666 -3.805152 -3.950011 -0.631902 1.919070 9.360284 4.287581 0.651372 -10.583173 -13.948560 -14.596266 -16.866303 -17.670256 -17.943508 -16.458499 -16.204561 -18.131139 -13.545237 -10.575699 -8.443899 -8.002540 -11.603297 -9.266303 -6.858088 -10.103498 -16.490329 -14.751746 -12.498290 -12.320128 -14.226036 -16.652701 -13.933961 -11.544899 -13.015424 -11.880717 -6.352045 0.167144 -1.915217 0.665416 12.012347 16.552336 8.410732 4.288241 -0.102599 1.882302 2.390143 2.137605 -3.310802 -10.280787 -8.668752 -8.217729 -10.293482 -10.978382 -9.476314 -5.744729 -3.182735 -2.752833 -2.808626 0.562635 -0.397432 2.508119 1.575827 4.469490 7.032299 5.658242 10.345536 4.636511 2.566023 -3.000529 -8.354071 -15.054033 -15.259602 -8.266872 -11.876702 -13.375117 -11.801303 -15.115157 -16.330777 -13.111675 -15.937369 -17.092689 -19.098184 -18.143499 -23.239014 -17.951134 -11.074205 -7.984553 -7.435816 1.342936 15.952949 -13.870313 -19.463619 -21.097985 -15.518549 -8.792079 -17.893710 2.001676 8.090257 4.771786 16.316853 23.143456 24.150279 19.022716 15.712054 6.041545 4.840720 2.950926 5.493916 9.643407 10.446882 3.346483 4.727025 7.028816 7.180242 7.000728 5.064204 6.077777 4.507577 5.515718 2.226706 4.513161 3.427932 7.980243 3.975302 5.901412 6.625769 9.920695 8.980839 6.647392 5.972566 7.444732 5.915440 8.759007 9.546887 7.673738 7.061505 10.357754 9.365893 10.532201 10.889152 10.750746 8.851258 8.195607 9.722608 6.492668 10.628363 10.134703 9.552514 12.947501 13.773242 15.451455 14.119565 4.767176 3.859893 2.127427 1.257503 2.750554 4.797022 5.157973 5.084476 3.218233 6.070060 3.325430 3.967511 0.749499 -3.941072 1.811505 6.947410 9.608207 15.459196 11.729625 6.795277 7.377710 9.258075 13.004449 12.147478 8.147922 8.800747 9.015158 12.308417 4.395413 5.386634 6.057982 7.571953 9.695112 15.404967 9.852421 13.220648 12.776216 15.691217 16.592633 14.840043 19.577874 15.688859 14.217618 15.847410 14.418204 17.362279 18.284667 16.550284 12.570626 15.019249 14.070772 6.527748 9.790701 7.536383 6.500745 9.988170 12.714886 4.544217 2.243747 -4.915185 -8.818969 -20.072116 -19.711594 -33.099019 -31.904696 -32.496784 -26.030465 -20.446731 -20.844453 -24.422733 -18.137348 -3.817805 6.970478 7.927340 8.228498 6.917810 -10.904613 -5.214170 11.434809 17.243994 22.023266 20.259554 18.025468 16.005335 15.629754 17.487529 16.407339 14.430832 17.670050 22.329184 21.853465 25.282646 24.823078 21.137530 18.631845 16.474772 21.293948 21.105715 12.130005 8.144261 7.564777 9.199936 9.740492 9.939976 8.382326 9.800046 8.621541 6.500252 7.847775 4.855837 5.703647 0.939599 -11.035982 -12.346326 -8.721834 -9.701435 -4.834167 -3.254275 -8.348017 -9.702417 -8.049323 16.896966 18.596825 21.411544 26.389136 -4.041546 22.227828 -10.847064 -41.854747 -30.507789 -33.969934 -50.424769 -57.931105 -55.939606 -55.556648 -53.993973 -55.282753 -57.536398 -47.601383 -41.286048 -31.351415 -35.623776 -37.262458 -39.084324 -13.465061 -16.763693 -19.111738 -18.885037 -19.041610 -24.536566 -29.672028 -32.718253 -26.573740 -26.668365 -23.652777 -24.432701 -19.671096 -20.046987 -22.288518 -19.339803 -25.552722 -22.364913 -22.900803 -23.521254 -23.634775 -22.008178 -21.659545 -23.493234 -18.810011 -13.977350 -7.733900 4.388392 5.784148 12.664992 13.029321 16.163392 29.414106 31.115042 34.430229 39.080200 38.332483 22.053657 19.221972 15.525338 17.479885 7.555240 18.443610 16.701307 18.708878 16.099826 18.499416 15.704244 18.045999 17.013725 12.823057 20.370469 11.974018 12.411267 6.013426 0.167475 -4.816538 -11.600735 -24.153328 -32.965269 -35.230600 -37.747472 -40.507764 -39.629424 -23.716112 -10.732198 -9.750143 -18.611527 -17.567466 -17.094719 -19.275186 -14.786244 -15.357595 -17.786907 -15.001921 -9.083139 -6.076262 -3.876162 -6.959594 -1.084022 -6.448228 -1.574668 -10.467847 -8.390378 -17.918825 -21.252356 -23.574515 -17.560459 -15.990532 -21.357946 -22.961751 -19.822099 -22.735924 -20.421669 -24.967475 -23.157733 -22.514919 -24.512867 -19.944480 -22.221741 -19.827877 -20.807140 -16.207282 -18.444937 -19.521899 -19.735111 -16.494715 -13.995645 -10.098795 -2.154634 3.319467 -0.845083 3.025368 2.536530 5.381983 2.679288 3.322072 -1.707895 1.831355 8.220128 13.041745 10.547483 16.637418 7.889919 6.579464 3.152420 8.790183 12.147411 10.794226 15.535004 15.090133 10.972249 13.315763 15.725989 12.474587 9.594718 3.554905 8.719678 11.994421 12.325734 7.008468 3.629247 4.505636 2.826105 5.572191 4.559891 -3.111866 -1.800986 5.765381 7.451675 3.966299 6.476452 3.699948 4.263840 2.744722 5.546963 1.029084 -2.347691 3.892370 -1.489851 1.716837 4.731574 5.095986 5.043742 4.962501 4.810464 4.647876 0.977074 -1.931345 2.585523 -1.469555 -4.775826 -0.176704 -2.455808 -1.747242 2.163444 -0.448230 -1.431034 -1.534349 -1.688833 -1.813212 -0.145814 0.266187 -3.280300 -2.559530 -0.476835 1.665360 -1.362553 -2.325529 1.065423 3.670650 4.168820 -1.038565 -0.779486 -9.293518 -4.915304 -8.542985 -10.111353 -8.497618 -4.632806 -3.709843 -7.155835 -8.131205 -11.805414 -9.459111 -3.409711 -1.978487 -3.602112 -2.259410 -3.606834 -0.664552 1.984009 -4.551598 -6.500096 -4.962167 -4.705658 -3.034823 -4.326140 -6.590150 -10.688433 -10.083948 -13.339344 -16.217071 -15.118134 -13.052435 -3.846591 7.462542 11.984630 11.177616 10.981166 7.483865 8.166019 3.224711 5.163969 2.463947 -0.340437 0.825780 -2.328190 0.145667 8.084756 13.621631 16.643806 20.977239 20.429952 18.366032 14.418248 18.650550 14.737786 18.603829 18.330343 21.468881 22.557751 20.969717 18.851401 13.126729 11.608476 13.233579 15.436271 12.523744 16.998155 16.803657 14.743226 12.651172 13.980335 10.980814 15.377437 18.699133 17.666348 19.220889 16.388652 15.559331 17.393328 16.216126 19.408532 18.799441 16.770852 19.964631 19.298781 18.999270 20.934532 18.058300 17.247851 20.856838 23.695322 17.380088 19.181736 20.188610 20.274244 22.193524 22.857075 17.759796 18.182773 23.935788 23.718166 23.483610 20.161443 19.262538 26.270308 22.998678 23.523419 24.115583 22.417812 21.983686 25.529652 26.551000 26.700095 23.322525 22.401570 18.822747 17.778574 22.957748 12.100003 -5.313570 -13.057087 -14.714011 -17.002187 -21.203648 -18.747217 -16.108458 -20.852208 -20.465735 -18.266728 -16.038900 -13.703496 -14.825300 -15.190032 -18.679639 -17.921274 -17.514598 -13.996209 -18.229947 -14.301243 -12.838115 -10.979976 -3.320970 0.581598 4.899429 9.703708 14.481829 15.740192 21.291322 19.444794 6.369258 6.461438 8.874636 9.221968 11.087329 15.257979 9.371415 5.841783 -3.477121 -21.918038 -24.935936 -32.075721 -37.894476 -33.805504 -32.443540 -30.540266 -26.289316 -26.811284 -23.501627 -24.068445 -27.847051 -28.681463 -26.888451 -26.334003 -24.394848 -28.972562 -37.287703 -37.492504 -35.401953 -40.181149 -43.252207 -47.219408 -42.953809 -41.490469 -43.035388 -41.530455 -39.129869 -38.470483 -36.487824 -34.027223 -33.318782 -27.808795 -24.353381 -28.823744 -30.019807 -28.204455 -27.689682 -32.836916 -28.901362 -27.422612 -25.514782 -19.534521 -1.983699 4.611732 7.598777 12.209967 20.586571 15.835160 7.204058 12.317997 10.600824 13.200336 16.078312 20.283165 14.469886 5.704396 10.715603 7.211000 11.066372 17.914732 9.071473 1.124904 6.606837 -9.218942 -24.697965 -29.772139 -9.739663 -9.296979 -4.904064 -2.938945 -9.645495 -25.519331 -47.173540 -36.841071 -34.847628 -35.263089 -33.175276 -28.916359 -25.954234 -19.865591 -14.519299 -6.077359 -8.924325 -8.159838 -16.239143 -23.869777 -20.180050 -11.798469 -9.635093 -9.151824 -6.992205 -11.520686 -12.790793 -17.993358 -19.429468 -15.920311 -13.091181 -21.137191 -12.785185 0.787760 7.628520 7.547621 7.655752 6.181505 7.588990 9.950296 8.867387 8.600093 3.480358 -3.187194 -2.966322 -7.875936 -2.324753 -3.844083 -1.097687 -1.694798 -1.989171 -1.857654 -1.743973 0.126502 2.513574 4.951478 9.188300 19.220119 29.057158 24.514716 28.336008 22.948381 24.614105 13.274402 22.156629 20.171240 20.644533 19.527719 17.403338 22.234237 22.014784 23.488198 29.437943 32.874692 37.198051 38.508461 33.534439 30.477266 26.438473 21.856747 19.022620 16.681572 14.383048 17.409090 20.202685 22.658861 19.905470 24.451422 19.020263 15.500115 13.279066 18.050543 17.820017 24.639209 37.443937 42.624834 34.984583 25.968060 27.522277 28.321188 21.351382 14.278102 12.776462 16.170740 11.916875 14.189134 11.790266 12.751197 16.899443 18.096377 21.926292 33.774322 33.592332 40.211475 35.529225 35.668019 29.228521 29.088303 31.289327 33.621301 36.085378 29.818305 33.349682 41.892777 37.028290 42.486933 28.798018 6.920352 -8.900232 -23.194121 -28.692701 -29.765780 -24.735532 -17.938060 -17.908636 -23.271817 -26.296709 -26.833437 -18.098113 -15.540403 -11.635368 -19.095114 -24.824723 -20.608761 -24.544416 -29.435995 -28.617466 -28.180797 -26.363184 -25.717510 -23.760813 -23.087484 -22.889845 -26.237583 -27.092881 -25.304715 -22.988627 -24.081218 -22.583282 -20.174044 -19.496632 -17.500378 -11.504215 -20.336008 -21.215088 -18.973829 -13.171503 -11.473294 -11.073321 -14.270596 -11.523946 -12.194582 -7.191572 -7.241251 -9.149442 -11.146151 -7.967777 -5.095577 -6.079763 -2.714624 -3.232075 0.097709 -3.937761 -3.352961 -2.712542 -0.757151 1.741576 -0.972710 0.118579 -0.956124 0.527653 1.226959 5.014487 2.761724 3.879160 1.068649 2.060807 2.699577 2.916887 3.158816 -0.122676 2.618691 5.492684 11.520372 6.305211 -0.542930 -0.169451 3.764671 6.601911 7.402151 4.214245 6.973759 8.055651 6.488618 2.678747 1.798938 3.556032 5.865354 8.291526 7.259018 5.228303 8.362834 5.876528 6.794512 9.114683 6.192228 5.346779 7.136017 4.130098 4.989377 7.252786 7.809956 6.182071 5.793451 7.567459 9.841000 6.914846 7.812803 8.301663 6.569098 6.120399 4.354078 3.844217 5.567339 7.817636 8.390200 12.034035 9.597662 6.982998 4.716084 2.362214 1.757022 1.665808 5.149131 6.157196 6.284353 4.624086 2.403979 0.101415 -0.483320 1.180579 1.642331 -0.058634 -0.502332 1.230808 -1.811180 -2.752314 -1.043458 -4.110030 0.220439 1.679721 0.045132 -2.090242 -0.819245 -2.143372 -0.848906 -2.100461 -2.538968 -2.529421 -0.760585 1.526425 -1.400453 1.252037 0.473633 0.048501 -1.677241 1.358475 -1.198625 -3.865891 -2.625136 -0.452956 0.055171 -1.608386 -2.046246 -2.083118 -0.360881 0.124995 1.934600 2.464889 2.517029 0.774781 0.259811 0.172839 -1.665550 -0.460169 -0.060167 1.665021 2.139098 0.386686 -0.138671 -0.250525 3.156688 2.307540 -1.688382 -0.990544 1.055894 1.422839 3.156046 0.086531 2.568855 1.629952 -4.225919 -4.086186 -5.648649 -6.354208 -3.013269 -2.167478 -3.962842 -4.519262 -6.449058 -5.373761 -1.563375 -2.452327 -6.487385 -7.605165 -2.604144 -4.870604 -5.893689 -9.564291 -10.774348 -11.076344 -7.802016 -5.228689 -4.780765 -11.853386 -10.441170 -11.575732 -8.775175 -4.441411 -14.071055 -17.070500 -15.703792 -17.345715 -14.512224 -11.926155 -2.701074 -0.226669 -3.565393 -2.757676 1.052713 -1.655597 -2.701145 -1.129053 -0.853545 -6.277427 -4.400791 -3.731172 -2.161538 -5.321811 -8.193740 -12.479804 -13.805916 -14.183603 -9.200352 -7.924154 -7.965614 -11.577830 -11.002543 -10.834297 -12.844208 -15.321202 -16.099992 -19.952377 -15.972644 -13.072726 -18.005292 -16.092818 -13.667766 -9.896631 -12.565528 -11.891080 -8.147766 -10.920710 -8.544990 -9.581127 -13.811100 -15.086765 -17.242830 -19.869405 -17.205079 -16.566137 -11.497781 -18.990330 -18.059379 -19.243763 -25.345947 -27.164230 -17.063492 -16.207795 -18.432653 -22.532687 -22.063609 -18.473068 -10.727880 -10.604243 -9.282222 -12.420385 -11.848865 -15.198010 -28.775679 -11.518331 -13.231609 -16.861676 -40.295235 -45.352298 -42.385940 -24.486163 -16.166943 -4.145077 11.537292 34.763999 39.008063 42.833282 37.100273 36.888000 26.493638 19.708102 5.863514 8.874078 6.633948 1.864167 2.420892 9.654252 34.327972 30.376187 28.133996 38.780950 48.589904 47.189029 50.026286 47.478877 46.403276 49.707133 46.975391 45.905239 43.954502 44.997330 47.014943 42.093841 45.793105 39.980329 39.632110 41.588501 47.138341 46.769636 42.812338 36.446513 38.179309 40.516665 42.583116 35.987163 32.181769 31.346357 29.219686 26.708887 27.739665 24.468421 26.831011 27.596494 25.728760 26.892772 21.936020 20.296202 21.769184 27.295491 26.919451 24.728215 22.408801 21.711146 21.467713 21.282655 17.622991 18.252105 18.520689 9.579052 6.965988 4.827960 5.771903 6.050696 4.207868 -1.640042 3.760291 1.956569 -0.797951 2.157060 -0.512767 -1.535630 -1.638305 1.771744 -2.578415 -4.015826 -2.381543 -3.769842 -9.564477 -9.352016 -10.826324 -16.704484 -9.481652 -8.932431 -7.537516 -8.684899 -16.144469 -16.418835 -17.919430 -16.774852 -19.845825 -13.769508 -11.826589 -6.374669 -9.987048 -4.213242 -3.984507 -4.323781 -5.989722 -4.695685 -2.477376 -1.935280 -3.586086 1.269337 -0.762001 0.140779 2.423224 2.956182 1.283131 2.608649 3.079282 3.101205 3.133850 1.387846 2.642676 1.323179 4.344365 3.548314 3.110097 -0.417968 -1.465370 0.139512 2.285201 4.539077 1.577479 0.635977 -1.229895 -0.094989 0.270012 3.745980 2.958115 2.515633 0.717122 0.130743 -0.008319 3.398567 -0.964259 1.086807 -3.350119 -3.159382 -1.096889 -2.475757 -6.517867 -5.839125 -5.555074 -7.434133 -4.475264 -10.634070 -9.121919 -11.868830 -11.213781 -7.343454 -6.414006 -4.594118 -5.824365 -4.547535 -2.364805 -1.898903 -3.635746 -0.617797 -1.478166 -3.722344 -2.500407 -0.359808 1.857836 2.400982 0.712794 -3.289896 -2.606207 -0.528714 -0.091071 -0.037832 0.003047 -1.753834 -4.019945 -1.057199 -1.909901 -0.583389 -1.815136 -0.496826 -0.001452 -1.708644 -0.390766 1.859712 -1.110966 -1.989783 -3.767691 -2.538659 -2.078854 -2.021935 -5.469821 -4.655371 -2.462695 -3.707620 -4.095905 -0.534347 0.479028 -4.666171 -4.290084 -5.656016 -0.914688 0.565271 -2.789420 -1.894824 0.318677 0.812240 0.900458 4.492178 0.240317 2.377867 3.307003 1.564397 -0.650549 2.341690 3.247765 1.541810 1.106578 -0.688397 0.522656 2.707345 -0.307568 -1.236868 0.456004 0.876057 2.651974 4.942321 5.498943 3.820856 1.598322 2.799624 -2.094277 -0.093908 0.754787 2.499099 -0.493989 0.329721 0.745983 0.717822 0.717650 2.478577 -0.553307 -1.511785 0.168408 0.593858 4.138354 1.658715 0.780270 0.751811 -1.057937 1.941326 4.661080 3.487947 1.366396 0.898247 0.839213 -0.949414 3.844888 1.806628 2.725239 3.259706 3.314386 5.127069 5.683399 0.500147 0.835967 1.223867 1.197881 4.757452 2.292394 4.958015 4.205990 2.034725 3.321273 2.020723 -0.215837 2.795316 5.494887 4.309227 2.182417 -0.059337 2.880907 2.014317 3.327336 3.835475 2.107749 1.619431 5.082130 4.264901 0.316711 1.071706 -2.101860 -1.417910 4.230210 3.926704 3.567481 0.082897 0.794296 2.881243 3.309381 -0.193840 0.562267 2.670172 3.090402 -0.419650 -1.430324 0.169549 0.527293 2.252784 -0.791755 -1.791855 1.589054 0.697510 0.212777 -1.593172 -3.938897 -4.581419 -8.269944 -5.875679 -5.067643 -10.385280 -11.906615 -8.593442 -6.013152 -5.501171 -5.425630 -3.656443 -3.197487 -4.956696 8.617918 12.543742 12.904243 11.409889 7.451579 4.589083 2.134276 3.205420 1.786563 3.011731 3.450469 1.683492 4.695886 0.339839 2.389886 3.256717 3.234555 1.472417 0.953530 2.612619 1.264053 -1.010209 0.176904 2.298172 0.977004 0.489160 2.177329 -0.945400 -0.227868 0.119448 -3.504338 -2.827499 1.000323 -3.406942 0.388178 -0.049161 -0.594971 -0.687415 6.232623 11.622678 10.957754 12.357613 11.042338 6.918326 9.262166 4.698307 8.336956 7.817875 5.467460 4.831672 2.854384 2.132412 0.135430 -5.859976 -2.324041 -1.197713 -1.346133 0.319786 -4.599494 0.814084 0.755351 0.178773 -1.700803 -0.611987 1.395127 1.722103 5.138288 2.484600 3.178501 3.462959 -0.247789 -3.187988 -2.210224 -7.317610 -7.259558 -10.602113 -6.555323 -3.578907 -4.922445 -1.925677 -1.067728 -4.681312 -4.025214 -2.009847 0.060054 2.226598 0.913770 2.121851 4.226676 -0.687428 1.255127 0.231856 -0.424048 -2.355503 -1.262853 2.539904 -0.120455 0.619305 -0.808891 -1.466414 -3.426670 -4.113434 -4.341500 -1.019296 -3.717156 -1.252750 -2.205780 -2.822717 -4.758453 -5.448822 -2.170261 0.374561 0.786327 2.496945 4.638838 