10.79302174602931962966 18.42222005202296131188 10.79302174602931962966 10.79302174602931962966 13.33608784802720137463 23.50835225601872124912 10.79302174602931962966 13.33608784802720137463 23.50835225601872124912 13.33608784802720137463 18.42222005202296131188 20.96528615402084128050 15.87915395002508134326 10.79302174602931962966 15.87915395002508134326 10.79302174602931962966 20.96528615402084128050 13.33608784802720137463 18.42222005202296131188 10.79302174602931962966 10.79302174602931962966 15.87915395002508134326 13.33608784802720137463 -4.46537486595796284661 -7.00844096795584370341 -7.00844096795584370341 -12.09457317195160719336 -22.26683757994312884421 -14.63763927394948716199 -4.46537486595796284661 -9.55150706995372367203 -1.92230876396008243390 -1.92230876396008243390 -1.92230876396008243390 -1.92230876396008243390 3.16382344003567794744 5.70688954203355880423 13.33608784802720137463 3.16382344003567794744 5.70688954203355880423 0.62075733803779797881 5.70688954203355880423 8.24995564403143966103 13.33608784802720137463 10.79302174602931962966 3.16382344003567794744 13.33608784802720137463 5.70688954203355880423 13.33608784802720137463 0.62075733803779797881 15.87915395002508134326 5.70688954203355880423 8.24995564403143966103 15.87915395002508134326 20.96528615402084128050 15.87915395002508134326 3.16382344003567794744 5.70688954203355880423 13.33608784802720137463 -1.92230876396008243390 -14.63763927394948716199 -14.63763927394948716199 -9.55150706995372367203 -7.00844096795584370341 -19.72377147794524532287 -17.18070537594736535425 -4.46537486595796284661 0.62075733803779797881 0.62075733803779797881 10.79302174602931962966 -1.92230876396008243390 15.87915395002508134326 13.33608784802720137463 15.87915395002508134326 20.96528615402084128050 18.42222005202296131188 20.96528615402084128050 20.96528615402084128050 10.79302174602931962966 13.33608784802720137463 18.42222005202296131188 18.42222005202296131188 10.79302174602931962966 13.33608784802720137463 13.33608784802720137463 18.42222005202296131188 8.24995564403143966103 8.24995564403143966103 20.96528615402084128050 20.96528615402084128050 10.79302174602931962966 18.42222005202296131188 20.96528615402084128050 5.70688954203355880423 3.16382344003567794744 18.42222005202296131188 10.79302174602931962966 15.87915395002508134326 5.70688954203355880423 5.70688954203355880423 5.70688954203355880423 13.33608784802720137463 10.79302174602931962966 13.33608784802720137463 10.79302174602931962966 18.42222005202296131188 13.33608784802720137463 15.87915395002508134326 10.79302174602931962966 15.87915395002508134326 20.96528615402084128050 10.79302174602931962966 15.87915395002508134326 13.33608784802720137463 8.24995564403143966103 18.42222005202296131188 13.33608784802720137463 5.70688954203355880423 15.87915395002508134326 13.33608784802720137463 13.33608784802720137463 10.79302174602931962966 8.24995564403143966103 8.24995564403143966103 15.87915395002508134326 3.16382344003567794744 3.16382344003567794744 5.70688954203355880423 10.79302174602931962966 5.70688954203355880423 15.87915395002508134326 13.33608784802720137463 8.24995564403143966103 15.87915395002508134326 3.16382344003567794744 8.24995564403143966103 3.16382344003567794744 10.79302174602931962966 13.33608784802720137463 18.42222005202296131188 15.87915395002508134326 15.87915395002508134326 26.05141835801660477046 13.33608784802720137463 20.96528615402084128050 13.33608784802720137463 13.33608784802720137463 15.87915395002508134326 23.50835225601872124912 15.87915395002508134326 15.87915395002508134326 13.33608784802720137463 20.96528615402084128050 15.87915395002508134326 20.96528615402084128050 18.42222005202296131188 18.42222005202296131188 20.96528615402084128050 13.33608784802720137463 15.87915395002508134326 18.42222005202296131188 20.96528615402084128050 20.96528615402084128050 10.79302174602931962966 15.87915395002508134326 8.24995564403143966103 10.79302174602931962966 13.33608784802720137463 20.96528615402084128050 13.33608784802720137463 13.33608784802720137463 18.42222005202296131188 18.42222005202296131188 10.79302174602931962966 13.33608784802720137463 5.70688954203355880423 18.42222005202296131188 10.79302174602931962966 8.24995564403143966103 8.24995564403143966103 13.33608784802720137463 15.87915395002508134326 18.42222005202296131188 8.24995564403143966103 13.33608784802720137463 5.70688954203355880423 10.79302174602931962966 23.50835225601872124912 5.70688954203355880423 15.87915395002508134326 8.24995564403143966103 18.42222005202296131188 8.24995564403143966103 3.16382344003567794744 20.96528615402084128050 15.87915395002508134326 18.42222005202296131188 10.79302174602931962966 8.24995564403143966103 13.33608784802720137463 20.96528615402084128050 20.96528615402084128050 13.33608784802720137463 13.33608784802720137463 10.79302174602931962966 10.79302174602931962966 13.33608784802720137463 10.79302174602931962966 15.87915395002508134326 10.79302174602931962966 10.79302174602931962966 8.24995564403143966103 15.87915395002508134326 13.33608784802720137463 26.05141835801660477046 8.24995564403143966103 15.87915395002508134326 10.79302174602931962966 20.96528615402084128050 13.33608784802720137463 13.33608784802720137463 15.87915395002508134326 18.42222005202296131188 23.50835225601872124912 23.50835225601872124912 18.42222005202296131188 20.96528615402084128050 28.59448446001448118636 26.05141835801660477046 20.96528615402084128050 15.87915395002508134326 13.33608784802720137463 26.05141835801660477046 23.50835225601872124912 13.33608784802720137463 20.96528615402084128050 15.87915395002508134326 28.59448446001448118636 20.96528615402084128050 26.05141835801660477046 20.96528615402084128050 20.96528615402084128050 20.96528615402084128050 15.87915395002508134326 20.96528615402084128050 20.96528615402084128050 23.50835225601872124912 28.59448446001448118636 18.42222005202296131188 20.96528615402084128050 10.79302174602931962966 28.59448446001448118636 23.50835225601872124912 15.87915395002508134326 18.42222005202296131188 15.87915395002508134326 20.96528615402084128050 23.50835225601872124912 26.05141835801660477046 20.96528615402084128050 13.33608784802720137463 20.96528615402084128050 13.33608784802720137463 20.96528615402084128050 31.13755056201236470770 20.96528615402084128050 18.42222005202296131188 26.05141835801660477046 13.33608784802720137463 20.96528615402084128050 18.42222005202296131188 15.87915395002508134326 13.33608784802720137463 20.96528615402084128050 15.87915395002508134326 13.33608784802720137463 20.96528615402084128050 15.87915395002508134326 23.50835225601872124912 15.87915395002508134326 10.79302174602931962966 18.42222005202296131188 28.59448446001448118636 15.87915395002508134326 18.42222005202296131188 23.50835225601872124912 13.33608784802720137463 18.42222005202296131188 20.96528615402084128050 28.59448446001448118636 20.96528615402084128050 18.42222005202296131188 20.96528615402084128050 18.42222005202296131188 23.50835225601872124912 8.24995564403143966103 26.05141835801660477046 8.24995564403143966103 23.50835225601872124912 13.33608784802720137463 13.33608784802720137463 20.96528615402084128050 23.50835225601872124912 15.87915395002508134326 23.50835225601872124912 26.05141835801660477046 23.50835225601872124912 20.96528615402084128050 13.33608784802720137463 15.87915395002508134326 20.96528615402084128050 20.96528615402084128050 23.50835225601872124912 18.42222005202296131188 23.50835225601872124912 18.42222005202296131188 20.96528615402084128050 15.87915395002508134326 15.87915395002508134326 15.87915395002508134326 18.42222005202296131188 23.50835225601872124912 23.50835225601872124912 18.42222005202296131188 23.50835225601872124912 26.05141835801660477046 20.96528615402084128050 10.79302174602931962966 20.96528615402084128050 13.33608784802720137463 18.42222005202296131188 13.33608784802720137463 20.96528615402084128050 15.87915395002508134326 20.96528615402084128050 13.33608784802720137463 13.33608784802720137463 20.96528615402084128050 15.87915395002508134326 18.42222005202296131188 13.33608784802720137463 18.42222005202296131188 18.42222005202296131188 10.79302174602931962966 15.87915395002508134326 23.50835225601872124912 15.87915395002508134326 18.42222005202296131188 15.87915395002508134326 20.96528615402084128050 26.05141835801660477046 38.76674886800600461356 33.68061666401024467632 26.05141835801660477046 20.96528615402084128050 18.42222005202296131188 23.50835225601872124912 31.13755056201236470770 26.05141835801660477046 33.68061666401024467632 28.59448446001448118636 20.96528615402084128050 20.96528615402084128050 20.96528615402084128050 31.13755056201236470770 23.50835225601872124912 23.50835225601872124912 23.50835225601872124912 26.05141835801660477046 20.96528615402084128050 20.96528615402084128050 20.96528615402084128050 23.50835225601872124912 23.50835225601872124912 23.50835225601872124912 20.96528615402084128050 18.42222005202296131188 26.05141835801660477046 13.33608784802720137463 26.05141835801660477046 18.42222005202296131188 10.79302174602931962966 18.42222005202296131188 15.87915395002508134326 18.42222005202296131188 26.05141835801660477046 23.50835225601872124912 18.42222005202296131188 20.96528615402084128050 15.87915395002508134326 10.79302174602931962966 15.87915395002508134326 20.96528615402084128050 18.42222005202296131188 18.42222005202296131188 18.42222005202296131188 15.87915395002508134326 10.79302174602931962966 20.96528615402084128050 20.96528615402084128050 13.33608784802720137463 23.50835225601872124912 18.42222005202296131188 26.05141835801660477046 15.87915395002508134326 15.87915395002508134326 18.42222005202296131188 13.33608784802720137463 13.33608784802720137463 20.96528615402084128050 10.79302174602931962966 10.79302174602931962966 15.87915395002508134326 15.87915395002508134326 18.42222005202296131188 23.50835225601872124912 15.87915395002508134326 23.50835225601872124912 13.33608784802720137463 10.79302174602931962966 10.79302174602931962966 18.42222005202296131188 23.50835225601872124912 26.05141835801660477046 26.05141835801660477046 23.50835225601872124912 18.42222005202296131188 13.33608784802720137463 10.79302174602931962966 20.96528615402084128050 15.87915395002508134326 20.96528615402084128050 15.87915395002508134326 20.96528615402084128050 18.42222005202296131188 23.50835225601872124912 23.50835225601872124912 15.87915395002508134326 13.33608784802720137463 13.33608784802720137463 15.87915395002508134326 20.96528615402084128050 23.50835225601872124912 18.42222005202296131188 15.87915395002508134326 10.79302174602931962966 10.79302174602931962966 20.96528615402084128050 15.87915395002508134326 10.79302174602931962966 15.87915395002508134326 18.42222005202296131188 18.42222005202296131188 20.96528615402084128050 28.59448446001448118636 18.42222005202296131188 13.33608784802720137463 20.96528615402084128050 18.42222005202296131188 13.33608784802720137463 15.87915395002508134326 18.42222005202296131188 15.87915395002508134326 15.87915395002508134326 8.24995564403143966103 15.87915395002508134326 13.33608784802720137463 23.50835225601872124912 10.79302174602931962966 15.87915395002508134326 13.33608784802720137463 15.87915395002508134326 13.33608784802720137463 15.87915395002508134326 18.42222005202296131188 8.24995564403143966103 10.79302174602931962966 8.24995564403143966103 13.33608784802720137463 8.24995564403143966103 13.33608784802720137463 10.79302174602931962966 8.24995564403143966103 5.70688954203355880423 10.79302174602931962966 10.79302174602931962966 5.70688954203355880423 13.33608784802720137463 10.79302174602931962966 8.24995564403143966103 0.62075733803779797881 8.24995564403143966103 13.33608784802720137463 5.70688954203355880423 3.16382344003567794744 13.33608784802720137463 10.79302174602931962966 8.24995564403143966103 13.33608784802720137463 13.33608784802720137463 10.79302174602931962966 10.79302174602931962966 -1.92230876396008243390 8.24995564403143966103 13.33608784802720137463 13.33608784802720137463 8.24995564403143966103 8.24995564403143966103 0.62075733803779797881 0.62075733803779797881 5.70688954203355880423 13.33608784802720137463 5.70688954203355880423 13.33608784802720137463 8.24995564403143966103 8.24995564403143966103 3.16382344003567794744 8.24995564403143966103 15.87915395002508134326 8.24995564403143966103 8.24995564403143966103 8.24995564403143966103 13.33608784802720137463 10.79302174602931962966 10.79302174602931962966 18.42222005202296131188 5.70688954203355880423 5.70688954203355880423 8.24995564403143966103 8.24995564403143966103 13.33608784802720137463 13.33608784802720137463 23.50835225601872124912 13.33608784802720137463 15.87915395002508134326 10.79302174602931962966 8.24995564403143966103 15.87915395002508134326 8.24995564403143966103 3.16382344003567794744 8.24995564403143966103 3.16382344003567794744 10.79302174602931962966 15.87915395002508134326 5.70688954203355880423 10.79302174602931962966 5.70688954203355880423 8.24995564403143966103 8.24995564403143966103 10.79302174602931962966 10.79302174602931962966 13.33608784802720137463 5.70688954203355880423 8.24995564403143966103 10.79302174602931962966 10.79302174602931962966 13.33608784802720137463 8.24995564403143966103 13.33608784802720137463 0.62075733803779797881 13.33608784802720137463 5.70688954203355880423 13.33608784802720137463 8.24995564403143966103 0.62075733803779797881 3.16382344003567794744 10.79302174602931962966 8.24995564403143966103 5.70688954203355880423 10.79302174602931962966 10.79302174602931962966 3.16382344003567794744 10.79302174602931962966 8.24995564403143966103 10.79302174602931962966 8.24995564403143966103 3.16382344003567794744 13.33608784802720137463 10.79302174602931962966 3.16382344003567794744 5.70688954203355880423 5.70688954203355880423 10.79302174602931962966 13.33608784802720137463 0.62075733803779797881 10.79302174602931962966 10.79302174602931962966 3.16382344003567794744 0.62075733803779797881 8.24995564403143966103 13.33608784802720137463 3.16382344003567794744 8.24995564403143966103 5.70688954203355880423 10.79302174602931962966 5.70688954203355880423 10.79302174602931962966 10.79302174602931962966 10.79302174602931962966 10.79302174602931962966 15.87915395002508134326 18.42222005202296131188 15.87915395002508134326 13.33608784802720137463 8.24995564403143966103 10.79302174602931962966 15.87915395002508134326 13.33608784802720137463 15.87915395002508134326 5.70688954203355880423 10.79302174602931962966 8.24995564403143966103 8.24995564403143966103 15.87915395002508134326 20.96528615402084128050 13.33608784802720137463 20.96528615402084128050 10.79302174602931962966 5.70688954203355880423 8.24995564403143966103 10.79302174602931962966 13.33608784802720137463 13.33608784802720137463 5.70688954203355880423 13.33608784802720137463 15.87915395002508134326 13.33608784802720137463 15.87915395002508134326 8.24995564403143966103 8.24995564403143966103 5.70688954203355880423 18.42222005202296131188 8.24995564403143966103 18.42222005202296131188 20.96528615402084128050 5.70688954203355880423 13.33608784802720137463 18.42222005202296131188 18.42222005202296131188 10.79302174602931962966 10.79302174602931962966 3.16382344003567794744 3.16382344003567794744 8.24995564403143966103 15.87915395002508134326 13.33608784802720137463 15.87915395002508134326 5.70688954203355880423 3.16382344003567794744 8.24995564403143966103 13.33608784802720137463 15.87915395002508134326 5.70688954203355880423 8.24995564403143966103 3.16382344003567794744 8.24995564403143966103 15.87915395002508134326 8.24995564403143966103 10.79302174602931962966 15.87915395002508134326 8.24995564403143966103 13.33608784802720137463 8.24995564403143966103 18.42222005202296131188 13.33608784802720137463 13.33608784802720137463 8.24995564403143966103 10.79302174602931962966 13.33608784802720137463 15.87915395002508134326 15.87915395002508134326 23.50835225601872124912 18.42222005202296131188 15.87915395002508134326 15.87915395002508134326 15.87915395002508134326 15.87915395002508134326 10.79302174602931962966 15.87915395002508134326 10.79302174602931962966 10.79302174602931962966 13.33608784802720137463 15.87915395002508134326 18.42222005202296131188 13.33608784802720137463 13.33608784802720137463 20.96528615402084128050 10.79302174602931962966 20.96528615402084128050 5.70688954203355880423 13.33608784802720137463 8.24995564403143966103 8.24995564403143966103 3.16382344003567794744 15.87915395002508134326 18.42222005202296131188 18.42222005202296131188 10.79302174602931962966 13.33608784802720137463 15.87915395002508134326 20.96528615402084128050 15.87915395002508134326 13.33608784802720137463 23.50835225601872124912 18.42222005202296131188 10.79302174602931962966 20.96528615402084128050 15.87915395002508134326 15.87915395002508134326 28.59448446001448118636 20.96528615402084128050 20.96528615402084128050 23.50835225601872124912 18.42222005202296131188 15.87915395002508134326 10.79302174602931962966 18.42222005202296131188 15.87915395002508134326 18.42222005202296131188 18.42222005202296131188 23.50835225601872124912 18.42222005202296131188 18.42222005202296131188 18.42222005202296131188 23.50835225601872124912 15.87915395002508134326 26.05141835801660477046 20.96528615402084128050 20.96528615402084128050 10.79302174602931962966 15.87915395002508134326 20.96528615402084128050 15.87915395002508134326 15.87915395002508134326 15.87915395002508134326 13.33608784802720137463 15.87915395002508134326 8.24995564403143966103 20.96528615402084128050 15.87915395002508134326 23.50835225601872124912 13.33608784802720137463 20.96528615402084128050 8.24995564403143966103 15.87915395002508134326 13.33608784802720137463 13.33608784802720137463 10.79302174602931962966 18.42222005202296131188 10.79302174602931962966 13.33608784802720137463 5.70688954203355880423 18.42222005202296131188 10.79302174602931962966 5.70688954203355880423 0.62075733803779797881 5.70688954203355880423 10.79302174602931962966 5.70688954203355880423 3.16382344003567794744 5.70688954203355880423 3.16382344003567794744 13.33608784802720137463 15.87915395002508134326 8.24995564403143966103 8.24995564403143966103 3.16382344003567794744 5.70688954203355880423 5.70688954203355880423 0.62075733803779797881 0.62075733803779797881 3.16382344003567794744 0.62075733803779797881 -4.46537486595796284661 3.16382344003567794744 3.16382344003567794744 13.33608784802720137463 0.62075733803779797881 8.24995564403143966103 10.79302174602931962966 5.70688954203355880423 8.24995564403143966103 5.70688954203355880423 13.33608784802720137463 5.70688954203355880423 -1.92230876396008243390 8.24995564403143966103 8.24995564403143966103 18.42222005202296131188 3.16382344003567794744 10.79302174602931962966 10.79302174602931962966 8.24995564403143966103 3.16382344003567794744 5.70688954203355880423 15.87915395002508134326 8.24995564403143966103 10.79302174602931962966 5.70688954203355880423 8.24995564403143966103 5.70688954203355880423 10.79302174602931962966 8.24995564403143966103 15.87915395002508134326 5.70688954203355880423 13.33608784802720137463 18.42222005202296131188 13.33608784802720137463 18.42222005202296131188 5.70688954203355880423 3.16382344003567794744 10.79302174602931962966 10.79302174602931962966 20.96528615402084128050 15.87915395002508134326 13.33608784802720137463 5.70688954203355880423 8.24995564403143966103 10.79302174602931962966 13.33608784802720137463 10.79302174602931962966 23.50835225601872124912 13.33608784802720137463 5.70688954203355880423 15.87915395002508134326 8.24995564403143966103 5.70688954203355880423 8.24995564403143966103 15.87915395002508134326 10.79302174602931962966 10.79302174602931962966 3.16382344003567794744 5.70688954203355880423 20.96528615402084128050 10.79302174602931962966 10.79302174602931962966 8.24995564403143966103 8.24995564403143966103 10.79302174602931962966 10.79302174602931962966 13.33608784802720137463 13.33608784802720137463 13.33608784802720137463 8.24995564403143966103 10.79302174602931962966 15.87915395002508134326 13.33608784802720137463 13.33608784802720137463 13.33608784802720137463 10.79302174602931962966 15.87915395002508134326 3.16382344003567794744 13.33608784802720137463 15.87915395002508134326 10.79302174602931962966 3.16382344003567794744 8.24995564403143966103 5.70688954203355880423 8.24995564403143966103 8.24995564403143966103 10.79302174602931962966 0.62075733803779797881 0.62075733803779797881 3.16382344003567794744 10.79302174602931962966 5.70688954203355880423 0.62075733803779797881 3.16382344003567794744 10.79302174602931962966 13.33608784802720137463 3.16382344003567794744 8.24995564403143966103 3.16382344003567794744 8.24995564403143966103 10.79302174602931962966 10.79302174602931962966 8.24995564403143966103 10.79302174602931962966 8.24995564403143966103 10.79302174602931962966 5.70688954203355880423 13.33608784802720137463 0.62075733803779797881 5.70688954203355880423 8.24995564403143966103 5.70688954203355880423 15.87915395002508134326 18.42222005202296131188 10.79302174602931962966 10.79302174602931962966 8.24995564403143966103 8.24995564403143966103 8.24995564403143966103 15.87915395002508134326 10.79302174602931962966 8.24995564403143966103 13.33608784802720137463 15.87915395002508134326 8.24995564403143966103 8.24995564403143966103 8.24995564403143966103 10.79302174602931962966 10.79302174602931962966 3.16382344003567794744 13.33608784802720137463 10.79302174602931962966 10.79302174602931962966 18.42222005202296131188 10.79302174602931962966 5.70688954203355880423 3.16382344003567794744 15.87915395002508134326 15.87915395002508134326 10.79302174602931962966 15.87915395002508134326 10.79302174602931962966 8.24995564403143966103 10.79302174602931962966 10.79302174602931962966 10.79302174602931962966 3.16382344003567794744 3.16382344003567794744 8.24995564403143966103 13.33608784802720137463 8.24995564403143966103 13.33608784802720137463 5.70688954203355880423 0.62075733803779797881 0.62075733803779797881 10.79302174602931962966 15.87915395002508134326 10.79302174602931962966 18.42222005202296131188 8.24995564403143966103 15.87915395002508134326 10.79302174602931962966 10.79302174602931962966 8.24995564403143966103 8.24995564403143966103 15.87915395002508134326 15.87915395002508134326 5.70688954203355880423 10.79302174602931962966 8.24995564403143966103 10.79302174602931962966 5.70688954203355880423 3.16382344003567794744 13.33608784802720137463 5.70688954203355880423 8.24995564403143966103 10.79302174602931962966 8.24995564403143966103 5.70688954203355880423 10.79302174602931962966 8.24995564403143966103 15.87915395002508134326 5.70688954203355880423 5.70688954203355880423 8.24995564403143966103 13.33608784802720137463 5.70688954203355880423 10.79302174602931962966 23.50835225601872124912 15.87915395002508134326 8.24995564403143966103 13.33608784802720137463 13.33608784802720137463 15.87915395002508134326 13.33608784802720137463 8.24995564403143966103 15.87915395002508134326 15.87915395002508134326 15.87915395002508134326 18.42222005202296131188 15.87915395002508134326 23.50835225601872124912 18.42222005202296131188 10.79302174602931962966 18.42222005202296131188 15.87915395002508134326 20.96528615402084128050 13.33608784802720137463 18.42222005202296131188 18.42222005202296131188 13.33608784802720137463 23.50835225601872124912 18.42222005202296131188 15.87915395002508134326 20.96528615402084128050 18.42222005202296131188 10.79302174602931962966 23.50835225601872124912 13.33608784802720137463 13.33608784802720137463 20.96528615402084128050 18.42222005202296131188 15.87915395002508134326 15.87915395002508134326 18.42222005202296131188 13.33608784802720137463 15.87915395002508134326 15.87915395002508134326 15.87915395002508134326 15.87915395002508134326 13.33608784802720137463 18.42222005202296131188 13.33608784802720137463 13.33608784802720137463 15.87915395002508134326 13.33608784802720137463 15.87915395002508134326 23.50835225601872124912 18.42222005202296131188 10.79302174602931962966 13.33608784802720137463 13.33608784802720137463 23.50835225601872124912 13.33608784802720137463 15.87915395002508134326 18.42222005202296131188 18.42222005202296131188 13.33608784802720137463 15.87915395002508134326 20.96528615402084128050 20.96528615402084128050 13.33608784802720137463 15.87915395002508134326 8.24995564403143966103 20.96528615402084128050 23.50835225601872124912 13.33608784802720137463 20.96528615402084128050 13.33608784802720137463 15.87915395002508134326 8.24995564403143966103 18.42222005202296131188 18.42222005202296131188 20.96528615402084128050 15.87915395002508134326 5.70688954203355880423 13.33608784802720137463 10.79302174602931962966 18.42222005202296131188 13.33608784802720137463 15.87915395002508134326 8.24995564403143966103 18.42222005202296131188 15.87915395002508134326 8.24995564403143966103 18.42222005202296131188 20.96528615402084128050 8.24995564403143966103 13.33608784802720137463 18.42222005202296131188 10.79302174602931962966 15.87915395002508134326 15.87915395002508134326 5.70688954203355880423 8.24995564403143966103 8.24995564403143966103 13.33608784802720137463 8.24995564403143966103 13.33608784802720137463 13.33608784802720137463 10.79302174602931962966 10.79302174602931962966 15.87915395002508134326 15.87915395002508134326 13.33608784802720137463 8.24995564403143966103 13.33608784802720137463 3.16382344003567794744 10.79302174602931962966 10.79302174602931962966 15.87915395002508134326 20.96528615402084128050 15.87915395002508134326 10.79302174602931962966 10.79302174602931962966 8.24995564403143966103 15.87915395002508134326 10.79302174602931962966 10.79302174602931962966 8.24995564403143966103 15.87915395002508134326 18.42222005202296131188 23.50835225601872124912 15.87915395002508134326 15.87915395002508134326 8.24995564403143966103 8.24995564403143966103 8.24995564403143966103 18.42222005202296131188 20.96528615402084128050 10.79302174602931962966 8.24995564403143966103 10.79302174602931962966 13.33608784802720137463 8.24995564403143966103 10.79302174602931962966 5.70688954203355880423 13.33608784802720137463 5.70688954203355880423 13.33608784802720137463 13.33608784802720137463 15.87915395002508134326 13.33608784802720137463 5.70688954203355880423 13.33608784802720137463 10.79302174602931962966 13.33608784802720137463 18.42222005202296131188 20.96528615402084128050 18.42222005202296131188 10.79302174602931962966 8.24995564403143966103 10.79302174602931962966 13.33608784802720137463 13.33608784802720137463 18.42222005202296131188 8.24995564403143966103 10.79302174602931962966 10.79302174602931962966 13.33608784802720137463 13.33608784802720137463 15.87915395002508134326 10.79302174602931962966 5.70688954203355880423 5.70688954203355880423 15.87915395002508134326 13.33608784802720137463 13.33608784802720137463 10.79302174602931962966 10.79302174602931962966 10.79302174602931962966 10.79302174602931962966 10.79302174602931962966 18.42222005202296131188 10.79302174602931962966 8.24995564403143966103 10.79302174602931962966 10.79302174602931962966 15.87915395002508134326 13.33608784802720137463 10.79302174602931962966 8.24995564403143966103 10.79302174602931962966 13.33608784802720137463 10.79302174602931962966 10.79302174602931962966 15.87915395002508134326 8.24995564403143966103 13.33608784802720137463 8.24995564403143966103 20.96528615402084128050 8.24995564403143966103 15.87915395002508134326 20.96528615402084128050 20.96528615402084128050 13.33608784802720137463 18.42222005202296131188 3.16382344003567794744 8.24995564403143966103 23.50835225601872124912 33.68061666401024467632 15.87915395002508134326 20.96528615402084128050 13.33608784802720137463 8.24995564403143966103 13.33608784802720137463 3.16382344003567794744 -1.92230876396008243390 3.16382344003567794744 3.16382344003567794744 -9.55150706995372367203 -1.92230876396008243390 -7.00844096795584370341 -4.46537486595796284661 -4.46537486595796284661 -1.92230876396008243390 -1.92230876396008243390 -4.46537486595796284661 -7.00844096795584370341 0.62075733803779797881 -1.92230876396008243390 -4.46537486595796284661 5.70688954203355880423 -4.46537486595796284661 0.62075733803779797881 5.70688954203355880423 0.62075733803779797881 0.62075733803779797881 -7.00844096795584370341 -7.00844096795584370341 -7.00844096795584370341 3.16382344003567794744 0.62075733803779797881 -4.46537486595796284661 -1.92230876396008243390 -7.00844096795584370341 -7.00844096795584370341 -7.00844096795584370341 -1.92230876396008243390 -7.00844096795584370341 -4.46537486595796284661 -7.00844096795584370341 -7.00844096795584370341 -1.92230876396008243390 -7.00844096795584370341 0.62075733803779797881 0.62075733803779797881 -7.00844096795584370341 -7.00844096795584370341 -4.46537486595796284661 -1.92230876396008243390 -1.92230876396008243390 0.62075733803779797881 3.16382344003567794744 -7.00844096795584370341 0.62075733803779797881 -1.92230876396008243390 -4.46537486595796284661 3.16382344003567794744 -9.55150706995372367203 -9.55150706995372367203 -4.46537486595796284661 -9.55150706995372367203 -9.55150706995372367203 -1.92230876396008243390 -7.00844096795584370341 -1.92230876396008243390 -9.55150706995372367203 -9.55150706995372367203 -1.92230876396008243390 -1.92230876396008243390 -1.92230876396008243390 -12.09457317195160719336 -12.09457317195160719336 -17.18070537594736535425 -4.46537486595796284661 -14.63763927394948716199 -9.55150706995372367203 3.16382344003567794744 -4.46537486595796284661 -7.00844096795584370341 0.62075733803779797881 8.24995564403143966103 0.62075733803779797881 -1.92230876396008243390 10.79302174602931962966 5.70688954203355880423 -1.92230876396008243390 -9.55150706995372367203 3.16382344003567794744 3.16382344003567794744 3.16382344003567794744 -7.00844096795584370341 -1.92230876396008243390 5.70688954203355880423 0.62075733803779797881 -4.46537486595796284661 -4.46537486595796284661 0.62075733803779797881 -1.92230876396008243390 -9.55150706995372367203 5.70688954203355880423 0.62075733803779797881 -1.92230876396008243390 -12.09457317195160719336 0.62075733803779797881 -4.46537486595796284661 -1.92230876396008243390 10.79302174602931962966 20.96528615402084128050 10.79302174602931962966 18.42222005202296131188 -4.46537486595796284661 3.16382344003567794744 0.62075733803779797881 -9.55150706995372367203 -9.55150706995372367203 -7.00844096795584370341 -9.55150706995372367203 -4.46537486595796284661 -1.92230876396008243390 -1.92230876396008243390 28.59448446001448118636 23.50835225601872124912 10.79302174602931962966 -1.92230876396008243390 -7.00844096795584370341 -4.46537486595796284661 -1.92230876396008243390 0.62075733803779797881 3.16382344003567794744 -7.00844096795584370341 -1.92230876396008243390 0.62075733803779797881 10.79302174602931962966 -1.92230876396008243390 -1.92230876396008243390 0.62075733803779797881 8.24995564403143966103 5.70688954203355880423 3.16382344003567794744 3.16382344003567794744 -7.00844096795584370341 -12.09457317195160719336 0.62075733803779797881 0.62075733803779797881 0.62075733803779797881 -7.00844096795584370341 -14.63763927394948716199 -9.55150706995372367203 -1.92230876396008243390 -12.09457317195160719336 -9.55150706995372367203 -9.55150706995372367203 -12.09457317195160719336 -12.09457317195160719336 -12.09457317195160719336 -14.63763927394948716199 -22.26683757994312884421 -14.63763927394948716199 5.70688954203355880423 5.70688954203355880423 5.70688954203355880423 13.33608784802720137463 5.70688954203355880423 3.16382344003567794744 13.33608784802720137463 13.33608784802720137463 8.24995564403143966103 15.87915395002508134326 8.24995564403143966103 10.79302174602931962966 10.79302174602931962966 8.24995564403143966103 15.87915395002508134326 5.70688954203355880423 5.70688954203355880423 15.87915395002508134326 -1.92230876396008243390 13.33608784802720137463 15.87915395002508134326 5.70688954203355880423 -7.00844096795584370341 -7.00844096795584370341 -12.09457317195160719336 -12.09457317195160719336 -12.09457317195160719336 -9.55150706995372367203 -9.55150706995372367203 -9.55150706995372367203 -4.46537486595796284661 -1.92230876396008243390 -1.92230876396008243390 -7.00844096795584370341 -19.72377147794524532287 -1.92230876396008243390 8.24995564403143966103 -1.92230876396008243390 3.16382344003567794744 -4.46537486595796284661 -4.46537486595796284661 3.16382344003567794744 -4.46537486595796284661 -1.92230876396008243390 -7.00844096795584370341 -9.55150706995372367203 -9.55150706995372367203 -7.00844096795584370341 3.16382344003567794744 0.62075733803779797881 0.62075733803779797881 -4.46537486595796284661 -12.09457317195160719336 -4.46537486595796284661 -4.46537486595796284661 -7.00844096795584370341 -1.92230876396008243390 -4.46537486595796284661 -7.00844096795584370341 5.70688954203355880423 -4.46537486595796284661 -1.92230876396008243390 8.24995564403143966103 -1.92230876396008243390 -4.46537486595796284661 -1.92230876396008243390 3.16382344003567794744 0.62075733803779797881 -1.92230876396008243390 10.79302174602931962966 0.62075733803779797881 -1.92230876396008243390 8.24995564403143966103 -7.00844096795584370341 -7.00844096795584370341 -4.46537486595796284661 -12.09457317195160719336 -14.63763927394948716199 -12.09457317195160719336 -7.00844096795584370341 -17.18070537594736535425 -17.18070537594736535425 -14.63763927394948716199 0.62075733803779797881 3.16382344003567794744 -1.92230876396008243390 10.79302174602931962966 8.24995564403143966103 -1.92230876396008243390 -1.92230876396008243390 3.16382344003567794744 -7.00844096795584370341 -14.63763927394948716199 -1.92230876396008243390 -1.92230876396008243390 -4.46537486595796284661 0.62075733803779797881 -4.46537486595796284661 -4.46537486595796284661 -4.46537486595796284661 -7.00844096795584370341 -9.55150706995372367203 -4.46537486595796284661 -7.00844096795584370341 -12.09457317195160719336 -1.92230876396008243390 0.62075733803779797881 5.70688954203355880423 10.79302174602931962966 10.79302174602931962966 10.79302174602931962966 -1.92230876396008243390 0.62075733803779797881 -1.92230876396008243390 10.79302174602931962966 8.24995564403143966103 8.24995564403143966103 5.70688954203355880423 13.33608784802720137463 3.16382344003567794744 -1.92230876396008243390 8.24995564403143966103 -1.92230876396008243390 10.79302174602931962966 5.70688954203355880423 5.70688954203355880423 5.70688954203355880423 -4.46537486595796284661 -1.92230876396008243390 -7.00844096795584370341 -4.46537486595796284661 -1.92230876396008243390 8.24995564403143966103 -4.46537486595796284661 -7.00844096795584370341 -1.92230876396008243390 0.62075733803779797881 0.62075733803779797881 -1.92230876396008243390 -9.55150706995372367203 -1.92230876396008243390 5.70688954203355880423 -1.92230876396008243390 0.62075733803779797881 3.16382344003567794744 -1.92230876396008243390 -4.46537486595796284661 -7.00844096795584370341 0.62075733803779797881 -1.92230876396008243390 -12.09457317195160719336 5.70688954203355880423 -7.00844096795584370341 -12.09457317195160719336 -14.63763927394948716199 -14.63763927394948716199 -19.72377147794524532287 -17.18070537594736535425 -19.72377147794524532287 -14.63763927394948716199 -32.43910198793464871869 -19.72377147794524532287 -12.09457317195160719336 -22.26683757994312884421 -19.72377147794524532287 -19.72377147794524532287 -4.46537486595796284661 8.24995564403143966103 -1.92230876396008243390 8.24995564403143966103 3.16382344003567794744 10.79302174602931962966 10.79302174602931962966 15.87915395002508134326 3.16382344003567794744 0.62075733803779797881 -4.46537486595796284661 3.16382344003567794744 18.42222005202296131188 10.79302174602931962966 8.24995564403143966103 8.24995564403143966103 5.70688954203355880423 -9.55150706995372367203 10.79302174602931962966 8.24995564403143966103 8.24995564403143966103 8.24995564403143966103 -17.18070537594736535425 3.16382344003567794744 3.16382344003567794744 5.70688954203355880423 5.70688954203355880423 3.16382344003567794744 -17.18070537594736535425 -1.92230876396008243390 13.33608784802720137463 -1.92230876396008243390 5.70688954203355880423 -1.92230876396008243390 0.62075733803779797881 0.62075733803779797881 0.62075733803779797881 0.62075733803779797881 0.62075733803779797881 5.70688954203355880423 -9.55150706995372367203 -14.63763927394948716199 0.62075733803779797881 -7.00844096795584370341 -12.09457317195160719336 -7.00844096795584370341 -4.46537486595796284661 -7.00844096795584370341 -12.09457317195160719336 -1.92230876396008243390 -9.55150706995372367203 -12.09457317195160719336 -7.00844096795584370341 -4.46537486595796284661 -7.00844096795584370341 -7.00844096795584370341 -9.55150706995372367203 3.16382344003567794744 -9.55150706995372367203 8.24995564403143966103 0.62075733803779797881 3.16382344003567794744 5.70688954203355880423 3.16382344003567794744 0.62075733803779797881 -7.00844096795584370341 -9.55150706995372367203 0.62075733803779797881 -7.00844096795584370341 0.62075733803779797881 0.62075733803779797881 -1.92230876396008243390 0.62075733803779797881 -9.55150706995372367203 -12.09457317195160719336 -9.55150706995372367203 -9.55150706995372367203 -1.92230876396008243390 -9.55150706995372367203 -7.00844096795584370341 -4.46537486595796284661 -1.92230876396008243390 -1.92230876396008243390 -1.92230876396008243390 3.16382344003567794744 -1.92230876396008243390 3.16382344003567794744 -4.46537486595796284661 0.62075733803779797881 -7.00844096795584370341 -7.00844096795584370341 -9.55150706995372367203 -1.92230876396008243390 -1.92230876396008243390 -4.46537486595796284661 -12.09457317195160719336 -12.09457317195160719336 -7.00844096795584370341 -4.46537486595796284661 -14.63763927394948716199 -12.09457317195160719336 -4.46537486595796284661 -17.18070537594736535425 -17.18070537594736535425 -24.80990368194100881283 -22.26683757994312884421 -19.72377147794524532287 -17.18070537594736535425 -9.55150706995372367203 -7.00844096795584370341 -7.00844096795584370341 0.62075733803779797881 -12.09457317195160719336 -4.46537486595796284661 -12.09457317195160719336 -1.92230876396008243390 -7.00844096795584370341 -7.00844096795584370341 -4.46537486595796284661 -12.09457317195160719336 5.70688954203355880423 -1.92230876396008243390 3.16382344003567794744 -12.09457317195160719336 -7.00844096795584370341 -4.46537486595796284661 -24.80990368194100881283 -19.72377147794524532287 -14.63763927394948716199 -22.26683757994312884421 -24.80990368194100881283 -19.72377147794524532287 -17.18070537594736535425 -24.80990368194100881283 -19.72377147794524532287 -22.26683757994312884421 -19.72377147794524532287 -27.35296978393888878145 -22.26683757994312884421 -14.63763927394948716199 -22.26683757994312884421 -17.18070537594736535425 -14.63763927394948716199 -14.63763927394948716199 -4.46537486595796284661 -14.63763927394948716199 -1.92230876396008243390 -9.55150706995372367203 -4.46537486595796284661 -12.09457317195160719336 -24.80990368194100881283 -12.09457317195160719336 -17.18070537594736535425 -9.55150706995372367203 -22.26683757994312884421 -17.18070537594736535425 -14.63763927394948716199 -12.09457317195160719336 0.62075733803779797881 3.16382344003567794744 3.16382344003567794744 13.33608784802720137463 10.79302174602931962966 23.50835225601872124912 20.96528615402084128050 26.05141835801660477046 31.13755056201236470770 33.68061666401024467632 28.59448446001448118636 31.13755056201236470770 33.68061666401024467632 33.68061666401024467632 31.13755056201236470770 28.59448446001448118636 36.22368276600812464494 31.13755056201236470770 28.59448446001448118636 20.96528615402084128050 26.05141835801660477046 26.05141835801660477046 20.96528615402084128050 23.50835225601872124912 23.50835225601872124912 28.59448446001448118636 31.13755056201236470770 23.50835225601872124912 23.50835225601872124912 28.59448446001448118636 18.42222005202296131188 31.13755056201236470770 33.68061666401024467632 26.05141835801660477046 23.50835225601872124912 28.59448446001448118636 26.05141835801660477046 31.13755056201236470770 36.22368276600812464494 33.68061666401024467632 31.13755056201236470770 23.50835225601872124912 31.13755056201236470770 28.59448446001448118636 31.13755056201236470770 33.68061666401024467632 23.50835225601872124912 10.79302174602931962966 0.62075733803779797881 3.16382344003567794744 5.70688954203355880423 0.62075733803779797881 -1.92230876396008243390 3.16382344003567794744 -7.00844096795584370341 3.16382344003567794744 3.16382344003567794744 8.24995564403143966103 5.70688954203355880423 -1.92230876396008243390 -1.92230876396008243390 0.62075733803779797881 -1.92230876396008243390 0.62075733803779797881 -1.92230876396008243390 -1.92230876396008243390 3.16382344003567794744 -4.46537486595796284661 3.16382344003567794744 0.62075733803779797881 5.70688954203355880423 5.70688954203355880423 -1.92230876396008243390 -4.46537486595796284661 3.16382344003567794744 0.62075733803779797881 3.16382344003567794744 -1.92230876396008243390 -1.92230876396008243390 0.62075733803779797881 3.16382344003567794744 -4.46537486595796284661 -7.00844096795584370341 -1.92230876396008243390 -1.92230876396008243390 -9.55150706995372367203 -4.46537486595796284661 -7.00844096795584370341 -7.00844096795584370341 -4.46537486595796284661 -12.09457317195160719336 -7.00844096795584370341 0.62075733803779797881 -9.55150706995372367203 -9.55150706995372367203 -4.46537486595796284661 -7.00844096795584370341 -4.46537486595796284661 -1.92230876396008243390 -4.46537486595796284661 -1.92230876396008243390 -12.09457317195160719336 -12.09457317195160719336 -9.55150706995372367203 -4.46537486595796284661 -4.46537486595796284661 -4.46537486595796284661 0.62075733803779797881 0.62075733803779797881 5.70688954203355880423 0.62075733803779797881 5.70688954203355880423 -1.92230876396008243390 0.62075733803779797881 -1.92230876396008243390 0.62075733803779797881 0.62075733803779797881 -7.00844096795584370341 -4.46537486595796284661 -1.92230876396008243390 -9.55150706995372367203 -17.18070537594736535425 -24.80990368194100881283 -22.26683757994312884421 -12.09457317195160719336 -14.63763927394948716199 -7.00844096795584370341 -7.00844096795584370341 -7.00844096795584370341 -9.55150706995372367203 -14.63763927394948716199 -7.00844096795584370341 -9.55150706995372367203 -7.00844096795584370341 -9.55150706995372367203 -17.18070537594736535425 -12.09457317195160719336 -9.55150706995372367203 -7.00844096795584370341 -9.55150706995372367203 -7.00844096795584370341 -7.00844096795584370341 -1.92230876396008243390 0.62075733803779797881 -1.92230876396008243390 -9.55150706995372367203 -1.92230876396008243390 -1.92230876396008243390 0.62075733803779797881 -9.55150706995372367203 -12.09457317195160719336 -7.00844096795584370341 -14.63763927394948716199 -4.46537486595796284661 -12.09457317195160719336 -1.92230876396008243390 -9.55150706995372367203 -14.63763927394948716199 -14.63763927394948716199 -9.55150706995372367203 -1.92230876396008243390 -7.00844096795584370341 -14.63763927394948716199 -4.46537486595796284661 -1.92230876396008243390 -7.00844096795584370341 -9.55150706995372367203 -12.09457317195160719336 -9.55150706995372367203 -14.63763927394948716199 -4.46537486595796284661 -19.72377147794524532287 -9.55150706995372367203 -7.00844096795584370341 -14.63763927394948716199 -9.55150706995372367203 -9.55150706995372367203 -7.00844096795584370341 -19.72377147794524532287 -4.46537486595796284661 -7.00844096795584370341 -7.00844096795584370341 -7.00844096795584370341 -9.55150706995372367203 -12.09457317195160719336 -14.63763927394948716199 -7.00844096795584370341 -14.63763927394948716199 -1.92230876396008243390 -1.92230876396008243390 -4.46537486595796284661 -4.46537486595796284661 -12.09457317195160719336 -7.00844096795584370341 -9.55150706995372367203 -4.46537486595796284661 -1.92230876396008243390 -1.92230876396008243390 -9.55150706995372367203 -12.09457317195160719336 -12.09457317195160719336 -17.18070537594736535425 -17.18070537594736535425 -24.80990368194100881283 -22.26683757994312884421 -24.80990368194100881283 -17.18070537594736535425 -19.72377147794524532287 -12.09457317195160719336 -17.18070537594736535425 -14.63763927394948716199 -17.18070537594736535425 -12.09457317195160719336 -14.63763927394948716199 8.24995564403143966103 5.70688954203355880423 -7.00844096795584370341 -1.92230876396008243390 3.16382344003567794744 15.87915395002508134326 8.24995564403143966103 10.79302174602931962966 8.24995564403143966103 13.33608784802720137463 3.16382344003567794744 10.79302174602931962966 0.62075733803779797881 -7.00844096795584370341 0.62075733803779797881 5.70688954203355880423 -4.46537486595796284661 3.16382344003567794744 -4.46537486595796284661 -12.09457317195160719336 -9.55150706995372367203 5.70688954203355880423 0.62075733803779797881 -4.46537486595796284661 0.62075733803779797881 -7.00844096795584370341 -12.09457317195160719336 -12.09457317195160719336 -9.55150706995372367203 -9.55150706995372367203 -12.09457317195160719336 -12.09457317195160719336 -12.09457317195160719336 -1.92230876396008243390 -4.46537486595796284661 -4.46537486595796284661 -1.92230876396008243390 0.62075733803779797881 0.62075733803779797881 -7.00844096795584370341 -1.92230876396008243390 -4.46537486595796284661 3.16382344003567794744 -1.92230876396008243390 8.24995564403143966103 8.24995564403143966103 3.16382344003567794744 3.16382344003567794744 0.62075733803779797881 0.62075733803779797881 -1.92230876396008243390 0.62075733803779797881 -9.55150706995372367203 -19.72377147794524532287 -7.00844096795584370341 -14.63763927394948716199 -24.80990368194100881283 -22.26683757994312884421 -19.72377147794524532287 -17.18070537594736535425 -27.35296978393888878145 -17.18070537594736535425 -17.18070537594736535425 -24.80990368194100881283 -14.63763927394948716199 -9.55150706995372367203 -17.18070537594736535425 -17.18070537594736535425 -7.00844096795584370341 -7.00844096795584370341 -12.09457317195160719336 -7.00844096795584370341 -17.18070537594736535425 -22.26683757994312884421 -7.00844096795584370341 -12.09457317195160719336 -1.92230876396008243390 -7.00844096795584370341 0.62075733803779797881 -14.63763927394948716199 0.62075733803779797881 -19.72377147794524532287 -7.00844096795584370341 -17.18070537594736535425 -17.18070537594736535425 -14.63763927394948716199 -9.55150706995372367203 -12.09457317195160719336 -4.46537486595796284661 -7.00844096795584370341 -9.55150706995372367203 -7.00844096795584370341 -19.72377147794524532287 -17.18070537594736535425 -17.18070537594736535425 -17.18070537594736535425 -24.80990368194100881283 -22.26683757994312884421 -32.43910198793464871869 -24.80990368194100881283 -32.43910198793464871869 -19.72377147794524532287 -32.43910198793464871869 -24.80990368194100881283 -27.35296978393888878145 -24.80990368194100881283 -27.35296978393888878145 -17.18070537594736535425 -22.26683757994312884421 -24.80990368194100881283 -24.80990368194100881283 -19.72377147794524532287 -17.18070537594736535425 -24.80990368194100881283 -9.55150706995372367203 -7.00844096795584370341 -9.55150706995372367203 -9.55150706995372367203 -7.00844096795584370341 -4.46537486595796284661 -14.63763927394948716199 -22.26683757994312884421 -17.18070537594736535425 -22.26683757994312884421 -19.72377147794524532287 -27.35296978393888878145 -24.80990368194100881283 -29.89603588593676875007 -27.35296978393888878145 -24.80990368194100881283 -29.89603588593676875007 -24.80990368194100881283 -34.98216808993252868731 -19.72377147794524532287 -37.52523419193040865594 -17.18070537594736535425 -17.18070537594736535425 3.16382344003567794744 8.24995564403143966103 -14.63763927394948716199 -12.09457317195160719336 -19.72377147794524532287 -17.18070537594736535425 -9.55150706995372367203 -14.63763927394948716199 -24.80990368194100881283 -7.00844096795584370341 0.62075733803779797881 -4.46537486595796284661 -1.92230876396008243390 -7.00844096795584370341 -7.00844096795584370341 -9.55150706995372367203 -12.09457317195160719336 -17.18070537594736535425 -17.18070537594736535425 -4.46537486595796284661 0.62075733803779797881 -4.46537486595796284661 5.70688954203355880423 0.62075733803779797881 -17.18070537594736535425 8.24995564403143966103 20.96528615402084128050 5.70688954203355880423 8.24995564403143966103 8.24995564403143966103 15.87915395002508134326 15.87915395002508134326 3.16382344003567794744 3.16382344003567794744 -4.46537486595796284661 10.79302174602931962966 15.87915395002508134326 18.42222005202296131188 20.96528615402084128050 20.96528615402084128050 23.50835225601872124912 13.33608784802720137463 26.05141835801660477046 23.50835225601872124912 10.79302174602931962966 18.42222005202296131188 20.96528615402084128050 20.96528615402084128050 8.24995564403143966103 26.05141835801660477046 18.42222005202296131188 20.96528615402084128050 20.96528615402084128050 15.87915395002508134326 15.87915395002508134326 18.42222005202296131188 15.87915395002508134326 8.24995564403143966103 13.33608784802720137463 10.79302174602931962966 10.79302174602931962966 8.24995564403143966103 -1.92230876396008243390 -14.63763927394948716199 -9.55150706995372367203 -9.55150706995372367203 -7.00844096795584370341 -12.09457317195160719336 -12.09457317195160719336 -12.09457317195160719336 -7.00844096795584370341 -4.46537486595796284661 -12.09457317195160719336 -9.55150706995372367203 -7.00844096795584370341 0.62075733803779797881 13.33608784802720137463 -1.92230876396008243390 -1.92230876396008243390 -12.09457317195160719336 -19.72377147794524532287 -7.00844096795584370341 -4.46537486595796284661 -4.46537486595796284661 -12.09457317195160719336 15.87915395002508134326 5.70688954203355880423 15.87915395002508134326 10.79302174602931962966 10.79302174602931962966 0.62075733803779797881 -4.46537486595796284661 3.16382344003567794744 -1.92230876396008243390 3.16382344003567794744 -4.46537486595796284661 -4.46537486595796284661 8.24995564403143966103 -7.00844096795584370341 0.62075733803779797881 0.62075733803779797881 5.70688954203355880423 3.16382344003567794744 -4.46537486595796284661 8.24995564403143966103 3.16382344003567794744 5.70688954203355880423 5.70688954203355880423 3.16382344003567794744 5.70688954203355880423 10.79302174602931962966 13.33608784802720137463 5.70688954203355880423 3.16382344003567794744 5.70688954203355880423 10.79302174602931962966 5.70688954203355880423 18.42222005202296131188 10.79302174602931962966 5.70688954203355880423 15.87915395002508134326 10.79302174602931962966 13.33608784802720137463 8.24995564403143966103 10.79302174602931962966 0.62075733803779797881 8.24995564403143966103 -1.92230876396008243390 -1.92230876396008243390 3.16382344003567794744 -1.92230876396008243390 -7.00844096795584370341 0.62075733803779797881 -1.92230876396008243390 0.62075733803779797881 -14.63763927394948716199 -17.18070537594736535425 -19.72377147794524532287 -12.09457317195160719336 -14.63763927394948716199 -17.18070537594736535425 -17.18070537594736535425 -17.18070537594736535425 -27.35296978393888878145 -9.55150706995372367203 -12.09457317195160719336 -17.18070537594736535425 -12.09457317195160719336 -14.63763927394948716199 -7.00844096795584370341 -12.09457317195160719336 -9.55150706995372367203 -12.09457317195160719336 -12.09457317195160719336 -17.18070537594736535425 -17.18070537594736535425 -14.63763927394948716199 -19.72377147794524532287 -12.09457317195160719336 -17.18070537594736535425 -17.18070537594736535425 -9.55150706995372367203 -7.00844096795584370341 -14.63763927394948716199 -12.09457317195160719336 -17.18070537594736535425 -19.72377147794524532287 -22.26683757994312884421 -17.18070537594736535425 -24.80990368194100881283 -24.80990368194100881283 -40.06830029392828862456 -19.72377147794524532287 -22.26683757994312884421 -24.80990368194100881283 -24.80990368194100881283 -19.72377147794524532287 -14.63763927394948716199 -17.18070537594736535425 -17.18070537594736535425 -14.63763927394948716199 -32.43910198793464871869 -17.18070537594736535425 -17.18070537594736535425 -14.63763927394948716199 -17.18070537594736535425 -22.26683757994312884421 -22.26683757994312884421 -27.35296978393888878145 -17.18070537594736535425 -24.80990368194100881283 -19.72377147794524532287 -17.18070537594736535425 -14.63763927394948716199 -19.72377147794524532287 -17.18070537594736535425 -19.72377147794524532287 -12.09457317195160719336 -12.09457317195160719336 -24.80990368194100881283 -17.18070537594736535425 -12.09457317195160719336 -17.18070537594736535425 -17.18070537594736535425 -19.72377147794524532287 -19.72377147794524532287 -19.72377147794524532287 -12.09457317195160719336 -19.72377147794524532287 -24.80990368194100881283 -22.26683757994312884421 -22.26683757994312884421 -27.35296978393888878145 -24.80990368194100881283 -22.26683757994312884421 -29.89603588593676875007 -29.89603588593676875007 -19.72377147794524532287 -14.63763927394948716199 -12.09457317195160719336 -22.26683757994312884421 -19.72377147794524532287 -24.80990368194100881283 -22.26683757994312884421 -19.72377147794524532287 -14.63763927394948716199 -17.18070537594736535425 -22.26683757994312884421 -19.72377147794524532287 -14.63763927394948716199 -7.00844096795584370341 -17.18070537594736535425 -17.18070537594736535425 -19.72377147794524532287 -24.80990368194100881283 -22.26683757994312884421 -17.18070537594736535425 -14.63763927394948716199 -14.63763927394948716199 -14.63763927394948716199 -14.63763927394948716199 -17.18070537594736535425 -4.46537486595796284661 -17.18070537594736535425 -9.55150706995372367203 -14.63763927394948716199 -9.55150706995372367203 -4.46537486595796284661 -4.46537486595796284661 0.62075733803779797881 -1.92230876396008243390 -7.00844096795584370341 -9.55150706995372367203 3.16382344003567794744 -4.46537486595796284661 -4.46537486595796284661 -4.46537486595796284661 -9.55150706995372367203 -12.09457317195160719336 -4.46537486595796284661 -1.92230876396008243390 -4.46537486595796284661 -4.46537486595796284661 -7.00844096795584370341 -9.55150706995372367203 3.16382344003567794744 -4.46537486595796284661 -17.18070537594736535425 -12.09457317195160719336 -9.55150706995372367203 -14.63763927394948716199 -14.63763927394948716199 -7.00844096795584370341 -1.92230876396008243390 -4.46537486595796284661 -9.55150706995372367203 0.62075733803779797881 -12.09457317195160719336 -12.09457317195160719336 -14.63763927394948716199 -12.09457317195160719336 -14.63763927394948716199 -4.46537486595796284661 -7.00844096795584370341 -1.92230876396008243390 -14.63763927394948716199 -12.09457317195160719336 -7.00844096795584370341 -7.00844096795584370341 -4.46537486595796284661 -4.46537486595796284661 -4.46537486595796284661 -9.55150706995372367203 -9.55150706995372367203 3.16382344003567794744 -17.18070537594736535425 -7.00844096795584370341 -12.09457317195160719336 -4.46537486595796284661 -4.46537486595796284661 -4.46537486595796284661 -1.92230876396008243390 -7.00844096795584370341 0.62075733803779797881 0.62075733803779797881 -1.92230876396008243390 -4.46537486595796284661 -7.00844096795584370341 -4.46537486595796284661 3.16382344003567794744 3.16382344003567794744 -1.92230876396008243390 -7.00844096795584370341 -7.00844096795584370341 -4.46537486595796284661 -4.46537486595796284661 -14.63763927394948716199 -1.92230876396008243390 0.62075733803779797881 -4.46537486595796284661 -9.55150706995372367203 0.62075733803779797881 -9.55150706995372367203 0.62075733803779797881 -7.00844096795584370341 -9.55150706995372367203 -7.00844096795584370341 -4.46537486595796284661 -17.18070537594736535425 -7.00844096795584370341 -17.18070537594736535425 -12.09457317195160719336 -17.18070537594736535425 -12.09457317195160719336 -19.72377147794524532287 -7.00844096795584370341 -12.09457317195160719336 -17.18070537594736535425 -17.18070537594736535425 -14.63763927394948716199 -7.00844096795584370341 -7.00844096795584370341 -4.46537486595796284661 -9.55150706995372367203 -14.63763927394948716199 -7.00844096795584370341 -14.63763927394948716199 -17.18070537594736535425 -14.63763927394948716199 -9.55150706995372367203 -7.00844096795584370341 -7.00844096795584370341 -4.46537486595796284661 -4.46537486595796284661 -7.00844096795584370341 -4.46537486595796284661 -4.46537486595796284661 -12.09457317195160719336 -22.26683757994312884421 -4.46537486595796284661 -7.00844096795584370341 -4.46537486595796284661 -4.46537486595796284661 -12.09457317195160719336 -9.55150706995372367203 -4.46537486595796284661 0.62075733803779797881 3.16382344003567794744 0.62075733803779797881 3.16382344003567794744 3.16382344003567794744 0.62075733803779797881 -9.55150706995372367203 -4.46537486595796284661 -12.09457317195160719336 -9.55150706995372367203 -1.92230876396008243390 -14.63763927394948716199 -4.46537486595796284661 -1.92230876396008243390 -1.92230876396008243390 -7.00844096795584370341 -12.09457317195160719336 -7.00844096795584370341 -14.63763927394948716199 -14.63763927394948716199 -9.55150706995372367203 -12.09457317195160719336 -12.09457317195160719336 -12.09457317195160719336 -9.55150706995372367203 -17.18070537594736535425 -17.18070537594736535425 -9.55150706995372367203 -7.00844096795584370341 -17.18070537594736535425 -17.18070537594736535425 -12.09457317195160719336 -17.18070537594736535425 -9.55150706995372367203 -9.55150706995372367203 -17.18070537594736535425 -9.55150706995372367203 -7.00844096795584370341 -7.00844096795584370341 -14.63763927394948716199 -4.46537486595796284661 -12.09457317195160719336 -12.09457317195160719336 -9.55150706995372367203 -7.00844096795584370341 -14.63763927394948716199 -1.92230876396008243390 -1.92230876396008243390 -9.55150706995372367203 -17.18070537594736535425 -12.09457317195160719336 -9.55150706995372367203 -14.63763927394948716199 -12.09457317195160719336 -9.55150706995372367203 -14.63763927394948716199 -9.55150706995372367203 -4.46537486595796284661 -9.55150706995372367203 -12.09457317195160719336 -17.18070537594736535425 -9.55150706995372367203 -14.63763927394948716199 -14.63763927394948716199 -17.18070537594736535425 -17.18070537594736535425 -4.46537486595796284661 -22.26683757994312884421 -14.63763927394948716199 -12.09457317195160719336 -9.55150706995372367203 -7.00844096795584370341 0.62075733803779797881 3.16382344003567794744 -4.46537486595796284661 -4.46537486595796284661 -14.63763927394948716199 -1.92230876396008243390 0.62075733803779797881 0.62075733803779797881 -7.00844096795584370341 -12.09457317195160719336 -4.46537486595796284661 -12.09457317195160719336 -1.92230876396008243390 -19.72377147794524532287 -9.55150706995372367203 -9.55150706995372367203 -4.46537486595796284661 -4.46537486595796284661 -9.55150706995372367203 -4.46537486595796284661 -12.09457317195160719336 -4.46537486595796284661 5.70688954203355880423 -7.00844096795584370341 -9.55150706995372367203 -17.18070537594736535425 -4.46537486595796284661 -1.92230876396008243390 -17.18070537594736535425 -12.09457317195160719336 -14.63763927394948716199 -12.09457317195160719336 -7.00844096795584370341 -7.00844096795584370341 -17.18070537594736535425 -9.55150706995372367203 -14.63763927394948716199 -12.09457317195160719336 -19.72377147794524532287 -7.00844096795584370341 -4.46537486595796284661 -17.18070537594736535425 -7.00844096795584370341 -14.63763927394948716199 -14.63763927394948716199 -17.18070537594736535425 -12.09457317195160719336 -7.00844096795584370341 -17.18070537594736535425 -19.72377147794524532287 -19.72377147794524532287 -17.18070537594736535425 -17.18070537594736535425 -9.55150706995372367203 -1.92230876396008243390 -17.18070537594736535425 -9.55150706995372367203 -22.26683757994312884421 -9.55150706995372367203 -9.55150706995372367203 -7.00844096795584370341 -19.72377147794524532287 -27.35296978393888878145 -14.63763927394948716199 -9.55150706995372367203 -9.55150706995372367203 -12.09457317195160719336 -14.63763927394948716199 -7.00844096795584370341 -14.63763927394948716199 -14.63763927394948716199 -12.09457317195160719336 -7.00844096795584370341 -4.46537486595796284661 -7.00844096795584370341 -12.09457317195160719336 -12.09457317195160719336 -7.00844096795584370341 -17.18070537594736535425 -12.09457317195160719336 -7.00844096795584370341 -9.55150706995372367203 -7.00844096795584370341 -7.00844096795584370341 -4.46537486595796284661 -1.92230876396008243390 -4.46537486595796284661 -1.92230876396008243390 -14.63763927394948716199 -9.55150706995372367203 -9.55150706995372367203 -14.63763927394948716199 -7.00844096795584370341 5.70688954203355880423 0.62075733803779797881 3.16382344003567794744 5.70688954203355880423 0.62075733803779797881 0.62075733803779797881 0.62075733803779797881 3.16382344003567794744 3.16382344003567794744 3.16382344003567794744 8.24995564403143966103 8.24995564403143966103 -4.46537486595796284661 8.24995564403143966103 -7.00844096795584370341 -7.00844096795584370341 0.62075733803779797881 0.62075733803779797881 3.16382344003567794744 -1.92230876396008243390 -4.46537486595796284661 -1.92230876396008243390 -4.46537486595796284661 0.62075733803779797881 8.24995564403143966103 -1.92230876396008243390 0.62075733803779797881 -4.46537486595796284661 -1.92230876396008243390 0.62075733803779797881 -4.46537486595796284661 0.62075733803779797881 -7.00844096795584370341 -9.55150706995372367203 -1.92230876396008243390 -9.55150706995372367203 0.62075733803779797881 -7.00844096795584370341 -7.00844096795584370341 -4.46537486595796284661 0.62075733803779797881 -4.46537486595796284661 -12.09457317195160719336 -1.92230876396008243390 -7.00844096795584370341 -12.09457317195160719336 -4.46537486595796284661 -4.46537486595796284661 3.16382344003567794744 3.16382344003567794744 -7.00844096795584370341 -12.09457317195160719336 -14.63763927394948716199 -12.09457317195160719336 -14.63763927394948716199 -4.46537486595796284661 -12.09457317195160719336 -7.00844096795584370341 -12.09457317195160719336 0.62075733803779797881 0.62075733803779797881 -9.55150706995372367203 -7.00844096795584370341 -4.46537486595796284661 -1.92230876396008243390 -7.00844096795584370341 -12.09457317195160719336 -1.92230876396008243390 -19.72377147794524532287 3.16382344003567794744 -1.92230876396008243390 -1.92230876396008243390 -4.46537486595796284661 -1.92230876396008243390 -4.46537486595796284661 -14.63763927394948716199 -14.63763927394948716199 -12.09457317195160719336 -9.55150706995372367203 -9.55150706995372367203 -7.00844096795584370341 -7.00844096795584370341 -1.92230876396008243390 -7.00844096795584370341 -12.09457317195160719336 -9.55150706995372367203 -9.55150706995372367203 -12.09457317195160719336 -1.92230876396008243390 -1.92230876396008243390 -4.46537486595796284661 -4.46537486595796284661 -14.63763927394948716199 -12.09457317195160719336 -12.09457317195160719336 -12.09457317195160719336 -9.55150706995372367203 -14.63763927394948716199 -12.09457317195160719336 -7.00844096795584370341 -4.46537486595796284661 -17.18070537594736535425 -12.09457317195160719336 -17.18070537594736535425 -19.72377147794524532287 -12.09457317195160719336 -14.63763927394948716199 -9.55150706995372367203 -14.63763927394948716199 -17.18070537594736535425 -12.09457317195160719336 -19.72377147794524532287 -19.72377147794524532287 -14.63763927394948716199 -9.55150706995372367203 -19.72377147794524532287 -17.18070537594736535425 -12.09457317195160719336 -14.63763927394948716199 -12.09457317195160719336 -17.18070537594736535425 -12.09457317195160719336 -12.09457317195160719336 -17.18070537594736535425 -17.18070537594736535425 -7.00844096795584370341 -12.09457317195160719336 -17.18070537594736535425 -17.18070537594736535425 -17.18070537594736535425 -12.09457317195160719336 -17.18070537594736535425 -17.18070537594736535425 -12.09457317195160719336 -22.26683757994312884421 -14.63763927394948716199 -12.09457317195160719336 -12.09457317195160719336 -12.09457317195160719336 -14.63763927394948716199 -14.63763927394948716199 -14.63763927394948716199 -17.18070537594736535425 -9.55150706995372367203 -9.55150706995372367203 -14.63763927394948716199 -17.18070537594736535425 -17.18070537594736535425 -9.55150706995372367203 -14.63763927394948716199 -9.55150706995372367203 -14.63763927394948716199 -14.63763927394948716199 -22.26683757994312884421 -7.00844096795584370341 -12.09457317195160719336 -14.63763927394948716199 -9.55150706995372367203 -7.00844096795584370341 -12.09457317195160719336 -9.55150706995372367203 -4.46537486595796284661 -9.55150706995372367203 -9.55150706995372367203 -14.63763927394948716199 -12.09457317195160719336 -9.55150706995372367203 -14.63763927394948716199 -12.09457317195160719336 -9.55150706995372367203 -4.46537486595796284661 -9.55150706995372367203 -14.63763927394948716199 -12.09457317195160719336 -12.09457317195160719336 -14.63763927394948716199 -17.18070537594736535425 -9.55150706995372367203 -22.26683757994312884421 -17.18070537594736535425 -4.46537486595796284661 -14.63763927394948716199 -9.55150706995372367203 -9.55150706995372367203 -12.09457317195160719336 -14.63763927394948716199 -17.18070537594736535425 -7.00844096795584370341 -24.80990368194100881283 -19.72377147794524532287 -17.18070537594736535425 -12.09457317195160719336 -7.00844096795584370341 -7.00844096795584370341 -12.09457317195160719336 -14.63763927394948716199 -12.09457317195160719336 -7.00844096795584370341 -14.63763927394948716199 -12.09457317195160719336 -9.55150706995372367203 -12.09457317195160719336 -12.09457317195160719336 -4.46537486595796284661 -7.00844096795584370341 -12.09457317195160719336 -12.09457317195160719336 -4.46537486595796284661 -7.00844096795584370341 -1.92230876396008243390 -9.55150706995372367203 -14.63763927394948716199 -7.00844096795584370341 -7.00844096795584370341 -4.46537486595796284661 -7.00844096795584370341 -4.46537486595796284661 -12.09457317195160719336 -7.00844096795584370341 -9.55150706995372367203 -1.92230876396008243390 -7.00844096795584370341 3.16382344003567794744 -12.09457317195160719336 -17.18070537594736535425 -12.09457317195160719336 -4.46537486595796284661 -9.55150706995372367203 -12.09457317195160719336 -9.55150706995372367203 -9.55150706995372367203 -9.55150706995372367203 -9.55150706995372367203 -9.55150706995372367203 -19.72377147794524532287 -17.18070537594736535425 -14.63763927394948716199 -14.63763927394948716199 -12.09457317195160719336 -12.09457317195160719336 -19.72377147794524532287 -12.09457317195160719336 -7.00844096795584370341 -12.09457317195160719336 0.62075733803779797881 -12.09457317195160719336 -14.63763927394948716199 -9.55150706995372367203 -17.18070537594736535425 -7.00844096795584370341 -22.26683757994312884421 -17.18070537594736535425 -24.80990368194100881283 -9.55150706995372367203 -19.72377147794524532287 -12.09457317195160719336 -9.55150706995372367203 -22.26683757994312884421 -17.18070537594736535425 -14.63763927394948716199 -12.09457317195160719336 -14.63763927394948716199 -12.09457317195160719336 -14.63763927394948716199 -7.00844096795584370341 -14.63763927394948716199 -14.63763927394948716199 -7.00844096795584370341 0.62075733803779797881 -4.46537486595796284661 -7.00844096795584370341 -12.09457317195160719336 -14.63763927394948716199 -7.00844096795584370341 -7.00844096795584370341 -12.09457317195160719336 -4.46537486595796284661 -1.92230876396008243390 -14.63763927394948716199 -7.00844096795584370341 -4.46537486595796284661 -7.00844096795584370341 -12.09457317195160719336 -7.00844096795584370341 -9.55150706995372367203 -4.46537486595796284661 -19.72377147794524532287 -4.46537486595796284661 -7.00844096795584370341 3.16382344003567794744 0.62075733803779797881 -7.00844096795584370341 -12.09457317195160719336 -14.63763927394948716199 0.62075733803779797881 -7.00844096795584370341 -9.55150706995372367203 -4.46537486595796284661 -14.63763927394948716199 -14.63763927394948716199 -7.00844096795584370341 -19.72377147794524532287 -1.92230876396008243390 -9.55150706995372367203 -14.63763927394948716199 -9.55150706995372367203 -4.46537486595796284661 -14.63763927394948716199 -9.55150706995372367203 -9.55150706995372367203 -17.18070537594736535425 -7.00844096795584370341 -1.92230876396008243390 -4.46537486595796284661 -12.09457317195160719336 -1.92230876396008243390 -4.46537486595796284661 0.62075733803779797881 8.24995564403143966103 -4.46537486595796284661 -12.09457317195160719336 -1.92230876396008243390 -4.46537486595796284661 -7.00844096795584370341 -1.92230876396008243390 0.62075733803779797881 -7.00844096795584370341 -7.00844096795584370341 -4.46537486595796284661 -14.63763927394948716199 -4.46537486595796284661 -14.63763927394948716199 -4.46537486595796284661 0.62075733803779797881 0.62075733803779797881 -1.92230876396008243390 -14.63763927394948716199 -4.46537486595796284661 -4.46537486595796284661 0.62075733803779797881 -9.55150706995372367203 -4.46537486595796284661 -1.92230876396008243390 -9.55150706995372367203 -4.46537486595796284661 -7.00844096795584370341 -19.72377147794524532287 -1.92230876396008243390 -7.00844096795584370341 -1.92230876396008243390 0.62075733803779797881 3.16382344003567794744 -7.00844096795584370341 -14.63763927394948716199 -9.55150706995372367203 -4.46537486595796284661 -4.46537486595796284661 -7.00844096795584370341 -17.18070537594736535425 -12.09457317195160719336 -7.00844096795584370341 -12.09457317195160719336 -9.55150706995372367203 -14.63763927394948716199 -1.92230876396008243390 -17.18070537594736535425 -17.18070537594736535425 -1.92230876396008243390 -12.09457317195160719336 -12.09457317195160719336 -9.55150706995372367203 -4.46537486595796284661 -9.55150706995372367203 -7.00844096795584370341 -4.46537486595796284661 -4.46537486595796284661 -14.63763927394948716199 -12.09457317195160719336 -9.55150706995372367203 -4.46537486595796284661 -7.00844096795584370341 -12.09457317195160719336 -4.46537486595796284661 -9.55150706995372367203 -1.92230876396008243390 -7.00844096795584370341 -7.00844096795584370341 -14.63763927394948716199 0.62075733803779797881 3.16382344003567794744 -12.09457317195160719336 -12.09457317195160719336 0.62075733803779797881 0.62075733803779797881 -1.92230876396008243390 -4.46537486595796284661 -1.92230876396008243390 0.62075733803779797881 -1.92230876396008243390 -4.46537486595796284661 -1.92230876396008243390 -4.46537486595796284661 -12.09457317195160719336 3.16382344003567794744 -9.55150706995372367203 -7.00844096795584370341 0.62075733803779797881 -4.46537486595796284661 -12.09457317195160719336 -9.55150706995372367203 -4.46537486595796284661 0.62075733803779797881 -1.92230876396008243390 -4.46537486595796284661 0.62075733803779797881 -7.00844096795584370341 0.62075733803779797881 -9.55150706995372367203 -9.55150706995372367203 -7.00844096795584370341 -7.00844096795584370341 -4.46537486595796284661 -12.09457317195160719336 -7.00844096795584370341 -17.18070537594736535425 -4.46537486595796284661 -9.55150706995372367203 -12.09457317195160719336 -4.46537486595796284661 -7.00844096795584370341 -12.09457317195160719336 -9.55150706995372367203 -7.00844096795584370341 -1.92230876396008243390 -7.00844096795584370341 -9.55150706995372367203 -4.46537486595796284661 -17.18070537594736535425 -12.09457317195160719336 -1.92230876396008243390 -12.09457317195160719336 -7.00844096795584370341 -22.26683757994312884421 -19.72377147794524532287 -14.63763927394948716199 -4.46537486595796284661 -9.55150706995372367203 -4.46537486595796284661 -9.55150706995372367203 -9.55150706995372367203 -4.46537486595796284661 -17.18070537594736535425 -12.09457317195160719336 -7.00844096795584370341 -12.09457317195160719336 -7.00844096795584370341 -14.63763927394948716199 -14.63763927394948716199 -14.63763927394948716199 -14.63763927394948716199 -4.46537486595796284661 -7.00844096795584370341 -12.09457317195160719336 -7.00844096795584370341 -12.09457317195160719336 -14.63763927394948716199 -17.18070537594736535425 -4.46537486595796284661 3.16382344003567794744 -9.55150706995372367203 -9.55150706995372367203 -7.00844096795584370341 -4.46537486595796284661 -7.00844096795584370341 0.62075733803779797881 -7.00844096795584370341 -7.00844096795584370341 -1.92230876396008243390 -4.46537486595796284661 -7.00844096795584370341 -9.55150706995372367203 -7.00844096795584370341 -12.09457317195160719336 -7.00844096795584370341 -12.09457317195160719336 -9.55150706995372367203 -7.00844096795584370341 -7.00844096795584370341 -1.92230876396008243390 -7.00844096795584370341 -4.46537486595796284661 -9.55150706995372367203 -7.00844096795584370341 5.70688954203355880423 -7.00844096795584370341 -1.92230876396008243390 -7.00844096795584370341 -4.46537486595796284661 0.62075733803779797881 -4.46537486595796284661 3.16382344003567794744 -7.00844096795584370341 -9.55150706995372367203 -7.00844096795584370341 -9.55150706995372367203 -1.92230876396008243390 -4.46537486595796284661 -17.18070537594736535425 -4.46537486595796284661 -9.55150706995372367203 -1.92230876396008243390 -7.00844096795584370341 -9.55150706995372367203 -4.46537486595796284661 -7.00844096795584370341 -7.00844096795584370341 -1.92230876396008243390 0.62075733803779797881 -7.00844096795584370341 3.16382344003567794744 -12.09457317195160719336 -4.46537486595796284661 -14.63763927394948716199 -1.92230876396008243390 0.62075733803779797881 -1.92230876396008243390 -4.46537486595796284661 -14.63763927394948716199 0.62075733803779797881 -7.00844096795584370341 -4.46537486595796284661 3.16382344003567794744 -7.00844096795584370341 -4.46537486595796284661 -4.46537486595796284661 0.62075733803779797881 -7.00844096795584370341 -9.55150706995372367203 -7.00844096795584370341 -1.92230876396008243390 3.16382344003567794744 -1.92230876396008243390 0.62075733803779797881 -4.46537486595796284661 -9.55150706995372367203 -1.92230876396008243390 3.16382344003567794744 -1.92230876396008243390 5.70688954203355880423 -1.92230876396008243390 -1.92230876396008243390 -1.92230876396008243390 -1.92230876396008243390 -1.92230876396008243390 13.33608784802720137463 5.70688954203355880423 0.62075733803779797881 15.87915395002508134326 8.24995564403143966103 5.70688954203355880423 -7.00844096795584370341 -1.92230876396008243390 -7.00844096795584370341 -4.46537486595796284661 -9.55150706995372367203 5.70688954203355880423 0.62075733803779797881 5.70688954203355880423 -4.46537486595796284661 -4.46537486595796284661 3.16382344003567794744 -1.92230876396008243390 -12.09457317195160719336 -4.46537486595796284661 -7.00844096795584370341 -1.92230876396008243390 -1.92230876396008243390 0.62075733803779797881 -9.55150706995372367203 3.16382344003567794744 -1.92230876396008243390 0.62075733803779797881 -1.92230876396008243390 0.62075733803779797881 0.62075733803779797881 -9.55150706995372367203 -7.00844096795584370341 -9.55150706995372367203 0.62075733803779797881 -9.55150706995372367203 0.62075733803779797881 3.16382344003567794744 5.70688954203355880423 5.70688954203355880423 -7.00844096795584370341 0.62075733803779797881 0.62075733803779797881 -4.46537486595796284661 -9.55150706995372367203 -12.09457317195160719336 -1.92230876396008243390 -4.46537486595796284661 5.70688954203355880423 5.70688954203355880423 3.16382344003567794744 10.79302174602931962966 0.62075733803779797881 5.70688954203355880423 20.96528615402084128050 15.87915395002508134326 10.79302174602931962966 15.87915395002508134326 15.87915395002508134326 18.42222005202296131188 18.42222005202296131188 10.79302174602931962966 13.33608784802720137463 10.79302174602931962966 18.42222005202296131188 18.42222005202296131188 20.96528615402084128050 15.87915395002508134326 20.96528615402084128050 23.50835225601872124912 15.87915395002508134326 18.42222005202296131188 18.42222005202296131188 13.33608784802720137463 10.79302174602931962966 20.96528615402084128050 13.33608784802720137463 15.87915395002508134326 13.33608784802720137463 13.33608784802720137463 13.33608784802720137463 10.79302174602931962966 5.70688954203355880423 -4.46537486595796284661 -7.00844096795584370341 -1.92230876396008243390 -7.00844096795584370341 -7.00844096795584370341 -14.63763927394948716199 -14.63763927394948716199 -12.09457317195160719336 -7.00844096795584370341 -4.46537486595796284661 -1.92230876396008243390 -9.55150706995372367203 -17.18070537594736535425 -17.18070537594736535425 -1.92230876396008243390 -14.63763927394948716199 -4.46537486595796284661 -9.55150706995372367203 -9.55150706995372367203 -9.55150706995372367203 -1.92230876396008243390 -14.63763927394948716199 -7.00844096795584370341 -7.00844096795584370341 -14.63763927394948716199 0.62075733803779797881 0.62075733803779797881 -1.92230876396008243390 -1.92230876396008243390 3.16382344003567794744 -1.92230876396008243390 3.16382344003567794744 -1.92230876396008243390 -7.00844096795584370341 -4.46537486595796284661 -14.63763927394948716199 -9.55150706995372367203 -12.09457317195160719336 -12.09457317195160719336 -12.09457317195160719336 -12.09457317195160719336 -9.55150706995372367203 -1.92230876396008243390 -4.46537486595796284661 -12.09457317195160719336 -7.00844096795584370341 -7.00844096795584370341 -9.55150706995372367203 -9.55150706995372367203 0.62075733803779797881 -1.92230876396008243390 -9.55150706995372367203 -7.00844096795584370341 -7.00844096795584370341 -4.46537486595796284661 -14.63763927394948716199 -1.92230876396008243390 -12.09457317195160719336 -14.63763927394948716199 -7.00844096795584370341 -1.92230876396008243390 -9.55150706995372367203 -14.63763927394948716199 -4.46537486595796284661 -14.63763927394948716199 -7.00844096795584370341 -7.00844096795584370341 -1.92230876396008243390 -4.46537486595796284661 -1.92230876396008243390 -1.92230876396008243390 -1.92230876396008243390 -9.55150706995372367203 -4.46537486595796284661 -9.55150706995372367203 -12.09457317195160719336 -14.63763927394948716199 -12.09457317195160719336 -9.55150706995372367203 -17.18070537594736535425 -7.00844096795584370341 -14.63763927394948716199 -7.00844096795584370341 -7.00844096795584370341 -1.92230876396008243390 -7.00844096795584370341 -9.55150706995372367203 -7.00844096795584370341 -4.46537486595796284661 -17.18070537594736535425 -12.09457317195160719336 -4.46537486595796284661 -4.46537486595796284661 3.16382344003567794744 -4.46537486595796284661 -1.92230876396008243390 -1.92230876396008243390 -1.92230876396008243390 0.62075733803779797881 0.62075733803779797881 -4.46537486595796284661 0.62075733803779797881 0.62075733803779797881 8.24995564403143966103 5.70688954203355880423 3.16382344003567794744 5.70688954203355880423 3.16382344003567794744 0.62075733803779797881 -1.92230876396008243390 5.70688954203355880423 0.62075733803779797881 3.16382344003567794744 -4.46537486595796284661 -1.92230876396008243390 -1.92230876396008243390 -7.00844096795584370341 -9.55150706995372367203 -7.00844096795584370341 3.16382344003567794744 -7.00844096795584370341 -1.92230876396008243390 -1.92230876396008243390 -9.55150706995372367203 -1.92230876396008243390 -4.46537486595796284661 -1.92230876396008243390 -4.46537486595796284661 -4.46537486595796284661 0.62075733803779797881 -14.63763927394948716199 -1.92230876396008243390 5.70688954203355880423 -9.55150706995372367203 -9.55150706995372367203 -4.46537486595796284661 -7.00844096795584370341 -4.46537486595796284661 0.62075733803779797881 -7.00844096795584370341 -1.92230876396008243390 -1.92230876396008243390 -7.00844096795584370341 0.62075733803779797881 -7.00844096795584370341 -1.92230876396008243390 -9.55150706995372367203 -7.00844096795584370341 -1.92230876396008243390 0.62075733803779797881 -4.46537486595796284661 -9.55150706995372367203 -1.92230876396008243390 -4.46537486595796284661 -7.00844096795584370341 -4.46537486595796284661 -1.92230876396008243390 -1.92230876396008243390 -4.46537486595796284661 -4.46537486595796284661 0.62075733803779797881 -1.92230876396008243390 -7.00844096795584370341 -1.92230876396008243390 -7.00844096795584370341 -1.92230876396008243390 0.62075733803779797881 -7.00844096795584370341 0.62075733803779797881 -4.46537486595796284661 -1.92230876396008243390 -7.00844096795584370341 -1.92230876396008243390 -1.92230876396008243390 -7.00844096795584370341 -4.46537486595796284661 -4.46537486595796284661 -1.92230876396008243390 0.62075733803779797881 0.62075733803779797881 0.62075733803779797881 -4.46537486595796284661 -4.46537486595796284661 -1.92230876396008243390 0.62075733803779797881 0.62075733803779797881 -12.09457317195160719336 -9.55150706995372367203 -4.46537486595796284661 -4.46537486595796284661 -1.92230876396008243390 0.62075733803779797881 -7.00844096795584370341 -7.00844096795584370341 -4.46537486595796284661 3.16382344003567794744 0.62075733803779797881 -1.92230876396008243390 3.16382344003567794744 -1.92230876396008243390 -1.92230876396008243390 3.16382344003567794744 -1.92230876396008243390 0.62075733803779797881 0.62075733803779797881 -7.00844096795584370341 8.24995564403143966103 0.62075733803779797881 3.16382344003567794744 0.62075733803779797881 -7.00844096795584370341 -4.46537486595796284661 -7.00844096795584370341 0.62075733803779797881 3.16382344003567794744 0.62075733803779797881 0.62075733803779797881 -7.00844096795584370341 0.62075733803779797881 3.16382344003567794744 5.70688954203355880423 -4.46537486595796284661 -1.92230876396008243390 -4.46537486595796284661 -7.00844096795584370341 -9.55150706995372367203 -1.92230876396008243390 5.70688954203355880423 3.16382344003567794744 5.70688954203355880423 -4.46537486595796284661 3.16382344003567794744 -1.92230876396008243390 0.62075733803779797881 3.16382344003567794744 -4.46537486595796284661 0.62075733803779797881 0.62075733803779797881 5.70688954203355880423 -4.46537486595796284661 -7.00844096795584370341 -4.46537486595796284661 0.62075733803779797881 -9.55150706995372367203 -7.00844096795584370341 -4.46537486595796284661 -7.00844096795584370341 -4.46537486595796284661 -4.46537486595796284661 -12.09457317195160719336 -7.00844096795584370341 -9.55150706995372367203 -7.00844096795584370341 0.62075733803779797881 -9.55150706995372367203 -1.92230876396008243390 -12.09457317195160719336 -4.46537486595796284661 0.62075733803779797881 -9.55150706995372367203 -12.09457317195160719336 -14.63763927394948716199 -9.55150706995372367203 -4.46537486595796284661 -7.00844096795584370341 -12.09457317195160719336 -4.46537486595796284661 -12.09457317195160719336 -12.09457317195160719336 -9.55150706995372367203 -4.46537486595796284661 -17.18070537594736535425 0.62075733803779797881 -4.46537486595796284661 -9.55150706995372367203 -4.46537486595796284661 -1.92230876396008243390 -1.92230876396008243390 0.62075733803779797881 -14.63763927394948716199 -7.00844096795584370341 -4.46537486595796284661 -4.46537486595796284661 -1.92230876396008243390 0.62075733803779797881 -7.00844096795584370341 -9.55150706995372367203 0.62075733803779797881 -1.92230876396008243390 -9.55150706995372367203 -4.46537486595796284661 -9.55150706995372367203 -4.46537486595796284661 0.62075733803779797881 -7.00844096795584370341 0.62075733803779797881 3.16382344003567794744 -7.00844096795584370341 3.16382344003567794744 -4.46537486595796284661 -1.92230876396008243390 0.62075733803779797881 5.70688954203355880423 3.16382344003567794744 0.62075733803779797881 0.62075733803779797881 3.16382344003567794744 -1.92230876396008243390 -1.92230876396008243390 -4.46537486595796284661 0.62075733803779797881 0.62075733803779797881 -4.46537486595796284661 -7.00844096795584370341 -1.92230876396008243390 0.62075733803779797881 -1.92230876396008243390 8.24995564403143966103 0.62075733803779797881 -9.55150706995372367203 -7.00844096795584370341 -4.46537486595796284661 -1.92230876396008243390 8.24995564403143966103 5.70688954203355880423 3.16382344003567794744 -4.46537486595796284661 -4.46537486595796284661 -7.00844096795584370341 3.16382344003567794744 0.62075733803779797881 8.24995564403143966103 0.62075733803779797881 8.24995564403143966103 8.24995564403143966103 3.16382344003567794744 3.16382344003567794744 -1.92230876396008243390 -1.92230876396008243390 8.24995564403143966103 10.79302174602931962966 3.16382344003567794744 8.24995564403143966103 3.16382344003567794744 -1.92230876396008243390 3.16382344003567794744 -1.92230876396008243390 0.62075733803779797881 0.62075733803779797881 0.62075733803779797881 -1.92230876396008243390 5.70688954203355880423 3.16382344003567794744 0.62075733803779797881 5.70688954203355880423 -4.46537486595796284661 -4.46537486595796284661 0.62075733803779797881 -4.46537486595796284661 8.24995564403143966103 3.16382344003567794744 -1.92230876396008243390 -1.92230876396008243390 0.62075733803779797881 -7.00844096795584370341 8.24995564403143966103 -9.55150706995372367203 0.62075733803779797881 -7.00844096795584370341 -1.92230876396008243390 0.62075733803779797881 3.16382344003567794744 8.24995564403143966103 -1.92230876396008243390 3.16382344003567794744 0.62075733803779797881 3.16382344003567794744 0.62075733803779797881 -1.92230876396008243390 5.70688954203355880423 -4.46537486595796284661 -4.46537486595796284661 8.24995564403143966103 0.62075733803779797881 0.62075733803779797881 3.16382344003567794744 -7.00844096795584370341 -9.55150706995372367203 0.62075733803779797881 0.62075733803779797881 -4.46537486595796284661 0.62075733803779797881 -1.92230876396008243390 -4.46537486595796284661 13.33608784802720137463 -1.92230876396008243390 3.16382344003567794744 0.62075733803779797881 5.70688954203355880423 -4.46537486595796284661 0.62075733803779797881 -1.92230876396008243390 13.33608784802720137463 3.16382344003567794744 3.16382344003567794744 3.16382344003567794744 8.24995564403143966103 5.70688954203355880423 0.62075733803779797881 0.62075733803779797881 5.70688954203355880423 8.24995564403143966103 -1.92230876396008243390 0.62075733803779797881 5.70688954203355880423 5.70688954203355880423 0.62075733803779797881 5.70688954203355880423 0.62075733803779797881 13.33608784802720137463 10.79302174602931962966 5.70688954203355880423 5.70688954203355880423 -1.92230876396008243390 8.24995564403143966103 3.16382344003567794744 10.79302174602931962966 3.16382344003567794744 10.79302174602931962966 3.16382344003567794744 8.24995564403143966103 5.70688954203355880423 13.33608784802720137463 8.24995564403143966103 8.24995564403143966103 0.62075733803779797881 3.16382344003567794744 -1.92230876396008243390 -4.46537486595796284661 0.62075733803779797881 -7.00844096795584370341 0.62075733803779797881 -1.92230876396008243390 3.16382344003567794744 -7.00844096795584370341 5.70688954203355880423 5.70688954203355880423 3.16382344003567794744 3.16382344003567794744 8.24995564403143966103 5.70688954203355880423 0.62075733803779797881 -1.92230876396008243390 -1.92230876396008243390 5.70688954203355880423 -12.09457317195160719336 -4.46537486595796284661 8.24995564403143966103 5.70688954203355880423 -4.46537486595796284661 3.16382344003567794744 -1.92230876396008243390 5.70688954203355880423 3.16382344003567794744 3.16382344003567794744 -1.92230876396008243390 0.62075733803779797881 -1.92230876396008243390 -1.92230876396008243390 0.62075733803779797881 8.24995564403143966103 5.70688954203355880423 -1.92230876396008243390 -7.00844096795584370341 -9.55150706995372367203 -1.92230876396008243390 0.62075733803779797881 3.16382344003567794744 -7.00844096795584370341 -7.00844096795584370341 -1.92230876396008243390 -9.55150706995372367203 0.62075733803779797881 3.16382344003567794744 -7.00844096795584370341 -12.09457317195160719336 -4.46537486595796284661 -4.46537486595796284661 -9.55150706995372367203 -1.92230876396008243390 -1.92230876396008243390 -7.00844096795584370341 -12.09457317195160719336 -7.00844096795584370341 -1.92230876396008243390 0.62075733803779797881 -4.46537486595796284661 -9.55150706995372367203 0.62075733803779797881 -9.55150706995372367203 0.62075733803779797881 5.70688954203355880423 -1.92230876396008243390 0.62075733803779797881 -1.92230876396008243390 -7.00844096795584370341 0.62075733803779797881 -4.46537486595796284661 -4.46537486595796284661 -1.92230876396008243390 0.62075733803779797881 -7.00844096795584370341 -7.00844096795584370341 -7.00844096795584370341 -4.46537486595796284661 5.70688954203355880423 5.70688954203355880423 0.62075733803779797881 -1.92230876396008243390 -4.46537486595796284661 -1.92230876396008243390 -1.92230876396008243390 -12.09457317195160719336 -1.92230876396008243390 -1.92230876396008243390 -4.46537486595796284661 -1.92230876396008243390 -9.55150706995372367203 0.62075733803779797881 -4.46537486595796284661 -1.92230876396008243390 0.62075733803779797881 3.16382344003567794744 0.62075733803779797881 3.16382344003567794744 -4.46537486595796284661 8.24995564403143966103 0.62075733803779797881 -7.00844096795584370341 5.70688954203355880423 8.24995564403143966103 0.62075733803779797881 0.62075733803779797881 3.16382344003567794744 -4.46537486595796284661 3.16382344003567794744 0.62075733803779797881 8.24995564403143966103 -1.92230876396008243390 8.24995564403143966103 5.70688954203355880423 5.70688954203355880423 8.24995564403143966103 3.16382344003567794744 8.24995564403143966103 8.24995564403143966103 3.16382344003567794744 3.16382344003567794744 5.70688954203355880423 10.79302174602931962966 13.33608784802720137463 3.16382344003567794744 13.33608784802720137463 10.79302174602931962966 5.70688954203355880423 10.79302174602931962966 8.24995564403143966103 10.79302174602931962966 3.16382344003567794744 -1.92230876396008243390 3.16382344003567794744 -1.92230876396008243390 5.70688954203355880423 -7.00844096795584370341 3.16382344003567794744 -7.00844096795584370341 0.62075733803779797881 -1.92230876396008243390 0.62075733803779797881 -4.46537486595796284661 0.62075733803779797881 -7.00844096795584370341 -7.00844096795584370341 -4.46537486595796284661 -4.46537486595796284661 -14.63763927394948716199 -9.55150706995372367203 -12.09457317195160719336 -12.09457317195160719336 -12.09457317195160719336 -1.92230876396008243390 -12.09457317195160719336 -1.92230876396008243390 -4.46537486595796284661 -14.63763927394948716199 -4.46537486595796284661 3.16382344003567794744 -1.92230876396008243390 3.16382344003567794744 -7.00844096795584370341 -7.00844096795584370341 0.62075733803779797881 0.62075733803779797881 8.24995564403143966103 -1.92230876396008243390 -14.63763927394948716199 -14.63763927394948716199 -12.09457317195160719336 -9.55150706995372367203 -1.92230876396008243390 -7.00844096795584370341 -14.63763927394948716199 -17.18070537594736535425 -17.18070537594736535425 -9.55150706995372367203 -12.09457317195160719336 -14.63763927394948716199 -7.00844096795584370341 -14.63763927394948716199 -12.09457317195160719336 -12.09457317195160719336 -12.09457317195160719336 -12.09457317195160719336 -12.09457317195160719336 -9.55150706995372367203 -12.09457317195160719336 -14.63763927394948716199 0.62075733803779797881 -19.72377147794524532287 -7.00844096795584370341 -4.46537486595796284661 -1.92230876396008243390 3.16382344003567794744 -12.09457317195160719336 -4.46537486595796284661 -9.55150706995372367203 -7.00844096795584370341 -4.46537486595796284661 -9.55150706995372367203 -9.55150706995372367203 -9.55150706995372367203 -4.46537486595796284661 -4.46537486595796284661 -17.18070537594736535425 -7.00844096795584370341 -1.92230876396008243390 -7.00844096795584370341 -7.00844096795584370341 -9.55150706995372367203 -7.00844096795584370341 -9.55150706995372367203 -7.00844096795584370341 -12.09457317195160719336 -4.46537486595796284661 -4.46537486595796284661 -7.00844096795584370341 -12.09457317195160719336 -7.00844096795584370341 -9.55150706995372367203 -14.63763927394948716199 -1.92230876396008243390 -12.09457317195160719336 -14.63763927394948716199 -4.46537486595796284661 -12.09457317195160719336 -1.92230876396008243390 -12.09457317195160719336 -7.00844096795584370341 -9.55150706995372367203 -17.18070537594736535425 -14.63763927394948716199 -7.00844096795584370341 -12.09457317195160719336 -17.18070537594736535425 -14.63763927394948716199 -7.00844096795584370341 -7.00844096795584370341 -12.09457317195160719336 -12.09457317195160719336 -12.09457317195160719336 -14.63763927394948716199 -19.72377147794524532287 -7.00844096795584370341 -9.55150706995372367203 -17.18070537594736535425 -7.00844096795584370341 -7.00844096795584370341 -17.18070537594736535425 -4.46537486595796284661 -4.46537486595796284661 -4.46537486595796284661 -7.00844096795584370341 -9.55150706995372367203 -9.55150706995372367203 -4.46537486595796284661 -17.18070537594736535425 -7.00844096795584370341 -12.09457317195160719336 -7.00844096795584370341 -17.18070537594736535425 -9.55150706995372367203 -7.00844096795584370341 -7.00844096795584370341 -12.09457317195160719336 -17.18070537594736535425 -22.26683757994312884421 -12.09457317195160719336 -7.00844096795584370341 -1.92230876396008243390 -9.55150706995372367203 -7.00844096795584370341 -12.09457317195160719336 -7.00844096795584370341 -12.09457317195160719336 -17.18070537594736535425 -9.55150706995372367203 -1.92230876396008243390 -14.63763927394948716199 -7.00844096795584370341 -12.09457317195160719336 -9.55150706995372367203 -9.55150706995372367203 -1.92230876396008243390 -7.00844096795584370341 -9.55150706995372367203 -4.46537486595796284661 -7.00844096795584370341 -7.00844096795584370341 -9.55150706995372367203 -7.00844096795584370341 -9.55150706995372367203 -12.09457317195160719336 -12.09457317195160719336 -12.09457317195160719336 -19.72377147794524532287 -4.46537486595796284661 -9.55150706995372367203 -4.46537486595796284661 -7.00844096795584370341 -7.00844096795584370341 -14.63763927394948716199 -14.63763927394948716199 -19.72377147794524532287 -12.09457317195160719336 -7.00844096795584370341 -7.00844096795584370341 -4.46537486595796284661 -7.00844096795584370341 -9.55150706995372367203 -9.55150706995372367203 -17.18070537594736535425 -12.09457317195160719336 -9.55150706995372367203 -7.00844096795584370341 -9.55150706995372367203 -12.09457317195160719336 -4.46537486595796284661 -7.00844096795584370341 -9.55150706995372367203 -12.09457317195160719336 0.62075733803779797881 -7.00844096795584370341 -9.55150706995372367203 -1.92230876396008243390 -12.09457317195160719336 -7.00844096795584370341 -4.46537486595796284661 -9.55150706995372367203 -7.00844096795584370341 -12.09457317195160719336 -1.92230876396008243390 -7.00844096795584370341 -7.00844096795584370341 -1.92230876396008243390 3.16382344003567794744 3.16382344003567794744 5.70688954203355880423 10.79302174602931962966 3.16382344003567794744 -4.46537486595796284661 -4.46537486595796284661 0.62075733803779797881 -1.92230876396008243390 -1.92230876396008243390 -4.46537486595796284661 -9.55150706995372367203 -1.92230876396008243390 15.87915395002508134326 8.24995564403143966103 3.16382344003567794744 5.70688954203355880423 0.62075733803779797881 -4.46537486595796284661 0.62075733803779797881 8.24995564403143966103 -1.92230876396008243390 10.79302174602931962966 -1.92230876396008243390 0.62075733803779797881 0.62075733803779797881 5.70688954203355880423 -1.92230876396008243390 -4.46537486595796284661 3.16382344003567794744 -1.92230876396008243390 3.16382344003567794744 3.16382344003567794744 13.33608784802720137463 5.70688954203355880423 3.16382344003567794744 -12.09457317195160719336 -12.09457317195160719336 -12.09457317195160719336 -4.46537486595796284661 -12.09457317195160719336 -9.55150706995372367203 -4.46537486595796284661 -12.09457317195160719336 -4.46537486595796284661 -4.46537486595796284661 -4.46537486595796284661 -12.09457317195160719336 -4.46537486595796284661 -4.46537486595796284661 -7.00844096795584370341 -1.92230876396008243390 -1.92230876396008243390 -1.92230876396008243390 -1.92230876396008243390 0.62075733803779797881 0.62075733803779797881 3.16382344003567794744 0.62075733803779797881 -7.00844096795584370341 -9.55150706995372367203 -1.92230876396008243390 -4.46537486595796284661 -4.46537486595796284661 -1.92230876396008243390 0.62075733803779797881 8.24995564403143966103 0.62075733803779797881 -1.92230876396008243390 0.62075733803779797881 -4.46537486595796284661 -4.46537486595796284661 -4.46537486595796284661 -12.09457317195160719336 -7.00844096795584370341 -4.46537486595796284661 3.16382344003567794744 0.62075733803779797881 5.70688954203355880423 -9.55150706995372367203 0.62075733803779797881 -7.00844096795584370341 -1.92230876396008243390 0.62075733803779797881 -7.00844096795584370341 -9.55150706995372367203 0.62075733803779797881 -4.46537486595796284661 -7.00844096795584370341 -4.46537486595796284661 -7.00844096795584370341 -4.46537486595796284661 -4.46537486595796284661 -12.09457317195160719336 -4.46537486595796284661 0.62075733803779797881 3.16382344003567794744 -12.09457317195160719336 -1.92230876396008243390 -7.00844096795584370341 3.16382344003567794744 0.62075733803779797881 -9.55150706995372367203 -4.46537486595796284661 -7.00844096795584370341 -7.00844096795584370341 3.16382344003567794744 -7.00844096795584370341 -12.09457317195160719336 0.62075733803779797881 -1.92230876396008243390 3.16382344003567794744 -1.92230876396008243390 -9.55150706995372367203 -12.09457317195160719336 -4.46537486595796284661 -9.55150706995372367203 3.16382344003567794744 -9.55150706995372367203 -9.55150706995372367203 -4.46537486595796284661 -1.92230876396008243390 -1.92230876396008243390 -12.09457317195160719336 -9.55150706995372367203 -12.09457317195160719336 0.62075733803779797881 -9.55150706995372367203 -7.00844096795584370341 0.62075733803779797881 -4.46537486595796284661 -7.00844096795584370341 -1.92230876396008243390 0.62075733803779797881 0.62075733803779797881 -4.46537486595796284661 -7.00844096795584370341 -1.92230876396008243390 3.16382344003567794744 -1.92230876396008243390 -1.92230876396008243390 -4.46537486595796284661 -1.92230876396008243390 -1.92230876396008243390 -14.63763927394948716199 -1.92230876396008243390 -1.92230876396008243390 5.70688954203355880423 -1.92230876396008243390 0.62075733803779797881 3.16382344003567794744 -4.46537486595796284661 0.62075733803779797881 0.62075733803779797881 -1.92230876396008243390 -4.46537486595796284661 -4.46537486595796284661 -1.92230876396008243390 -4.46537486595796284661 0.62075733803779797881 0.62075733803779797881 -7.00844096795584370341 -1.92230876396008243390 -9.55150706995372367203 -1.92230876396008243390 0.62075733803779797881 -7.00844096795584370341 -1.92230876396008243390 0.62075733803779797881 -1.92230876396008243390 3.16382344003567794744 -7.00844096795584370341 5.70688954203355880423 0.62075733803779797881 -1.92230876396008243390 0.62075733803779797881 -1.92230876396008243390 3.16382344003567794744 3.16382344003567794744 3.16382344003567794744 3.16382344003567794744 -1.92230876396008243390 -7.00844096795584370341 -9.55150706995372367203 5.70688954203355880423 -4.46537486595796284661 -4.46537486595796284661 3.16382344003567794744 -1.92230876396008243390 0.62075733803779797881 3.16382344003567794744 3.16382344003567794744 3.16382344003567794744 8.24995564403143966103 -1.92230876396008243390 0.62075733803779797881 0.62075733803779797881 0.62075733803779797881 5.70688954203355880423 -1.92230876396008243390 0.62075733803779797881 -1.92230876396008243390 5.70688954203355880423 -1.92230876396008243390 3.16382344003567794744 -9.55150706995372367203 5.70688954203355880423 0.62075733803779797881 0.62075733803779797881 3.16382344003567794744 -1.92230876396008243390 5.70688954203355880423 -7.00844096795584370341 -1.92230876396008243390 -1.92230876396008243390 3.16382344003567794744 5.70688954203355880423 0.62075733803779797881 3.16382344003567794744 0.62075733803779797881 -7.00844096795584370341 -1.92230876396008243390 5.70688954203355880423 0.62075733803779797881 -1.92230876396008243390 -7.00844096795584370341 -4.46537486595796284661 -12.09457317195160719336 -7.00844096795584370341 -1.92230876396008243390 3.16382344003567794744 -1.92230876396008243390 -9.55150706995372367203 0.62075733803779797881 -7.00844096795584370341 -1.92230876396008243390 -7.00844096795584370341 -7.00844096795584370341 -12.09457317195160719336 -4.46537486595796284661 -1.92230876396008243390 -7.00844096795584370341 0.62075733803779797881 -12.09457317195160719336 -1.92230876396008243390 -9.55150706995372367203 -9.55150706995372367203 -1.92230876396008243390 -1.92230876396008243390 -12.09457317195160719336 -7.00844096795584370341 -14.63763927394948716199 -9.55150706995372367203 -14.63763927394948716199 -12.09457317195160719336 -4.46537486595796284661 -1.92230876396008243390 0.62075733803779797881 -1.92230876396008243390 8.24995564403143966103 8.24995564403143966103 -4.46537486595796284661 -1.92230876396008243390 5.70688954203355880423 -4.46537486595796284661 5.70688954203355880423 -7.00844096795584370341 3.16382344003567794744 -1.92230876396008243390 0.62075733803779797881 -1.92230876396008243390 -4.46537486595796284661 3.16382344003567794744 -4.46537486595796284661 5.70688954203355880423 -4.46537486595796284661 -4.46537486595796284661 5.70688954203355880423 -4.46537486595796284661 3.16382344003567794744 -4.46537486595796284661 -14.63763927394948716199 -1.92230876396008243390 0.62075733803779797881 -1.92230876396008243390 -9.55150706995372367203 -1.92230876396008243390 -7.00844096795584370341 -1.92230876396008243390 0.62075733803779797881 3.16382344003567794744 -4.46537486595796284661 0.62075733803779797881 0.62075733803779797881 -4.46537486595796284661 0.62075733803779797881 3.16382344003567794744 0.62075733803779797881 -1.92230876396008243390 -1.92230876396008243390 3.16382344003567794744 -1.92230876396008243390 3.16382344003567794744 -7.00844096795584370341 -1.92230876396008243390 -4.46537486595796284661 -4.46537486595796284661 -4.46537486595796284661 5.70688954203355880423 -12.09457317195160719336 -9.55150706995372367203 -4.46537486595796284661 0.62075733803779797881 -4.46537486595796284661 5.70688954203355880423 -4.46537486595796284661 -9.55150706995372367203 -4.46537486595796284661 3.16382344003567794744 -1.92230876396008243390 10.79302174602931962966 8.24995564403143966103 0.62075733803779797881 3.16382344003567794744 3.16382344003567794744 0.62075733803779797881 8.24995564403143966103 5.70688954203355880423 0.62075733803779797881 3.16382344003567794744 0.62075733803779797881 -9.55150706995372367203 -9.55150706995372367203 -12.09457317195160719336 -7.00844096795584370341 -14.63763927394948716199 -12.09457317195160719336 -12.09457317195160719336 -12.09457317195160719336 -9.55150706995372367203 -14.63763927394948716199 -9.55150706995372367203 -17.18070537594736535425 -7.00844096795584370341 -14.63763927394948716199 -1.92230876396008243390 0.62075733803779797881 -9.55150706995372367203 -1.92230876396008243390 -22.26683757994312884421 -7.00844096795584370341 -12.09457317195160719336 -12.09457317195160719336 -1.92230876396008243390 -1.92230876396008243390 -1.92230876396008243390 -7.00844096795584370341 -7.00844096795584370341 -12.09457317195160719336 -14.63763927394948716199 -14.63763927394948716199 -7.00844096795584370341 -4.46537486595796284661 -4.46537486595796284661 -9.55150706995372367203 -9.55150706995372367203 -4.46537486595796284661 -12.09457317195160719336 -9.55150706995372367203 -14.63763927394948716199 -7.00844096795584370341 -1.92230876396008243390 -7.00844096795584370341 -4.46537486595796284661 -4.46537486595796284661 -7.00844096795584370341 -9.55150706995372367203 -14.63763927394948716199 -17.18070537594736535425 -9.55150706995372367203 -4.46537486595796284661 -9.55150706995372367203 -4.46537486595796284661 -9.55150706995372367203 -7.00844096795584370341 -12.09457317195160719336 -12.09457317195160719336 -22.26683757994312884421 -9.55150706995372367203 -7.00844096795584370341 -12.09457317195160719336 -9.55150706995372367203 -12.09457317195160719336 -1.92230876396008243390 -7.00844096795584370341 -7.00844096795584370341 -9.55150706995372367203 -12.09457317195160719336 -12.09457317195160719336 -12.09457317195160719336 -14.63763927394948716199 -4.46537486595796284661 -9.55150706995372367203 -7.00844096795584370341 0.62075733803779797881 -7.00844096795584370341 -12.09457317195160719336 -4.46537486595796284661 -4.46537486595796284661 0.62075733803779797881 -7.00844096795584370341 -19.72377147794524532287 -7.00844096795584370341 -7.00844096795584370341 -4.46537486595796284661 3.16382344003567794744 -7.00844096795584370341 -14.63763927394948716199 -7.00844096795584370341 -1.92230876396008243390 3.16382344003567794744 -9.55150706995372367203 -1.92230876396008243390 5.70688954203355880423 10.79302174602931962966 3.16382344003567794744 0.62075733803779797881 5.70688954203355880423 -4.46537486595796284661 -4.46537486595796284661 3.16382344003567794744 0.62075733803779797881 3.16382344003567794744 0.62075733803779797881 -4.46537486595796284661 5.70688954203355880423 -9.55150706995372367203 8.24995564403143966103 0.62075733803779797881 -1.92230876396008243390 0.62075733803779797881 3.16382344003567794744 5.70688954203355880423 3.16382344003567794744 -4.46537486595796284661 -4.46537486595796284661 3.16382344003567794744 0.62075733803779797881 5.70688954203355880423 -14.63763927394948716199 0.62075733803779797881 -1.92230876396008243390 -4.46537486595796284661 3.16382344003567794744 -1.92230876396008243390 -4.46537486595796284661 -7.00844096795584370341 -9.55150706995372367203 -1.92230876396008243390 0.62075733803779797881 -9.55150706995372367203 -7.00844096795584370341 -7.00844096795584370341 0.62075733803779797881 -1.92230876396008243390 0.62075733803779797881 0.62075733803779797881 -9.55150706995372367203 -7.00844096795584370341 -4.46537486595796284661 -4.46537486595796284661 3.16382344003567794744 0.62075733803779797881 0.62075733803779797881 0.62075733803779797881 -4.46537486595796284661 18.42222005202296131188 -1.92230876396008243390 5.70688954203355880423 -4.46537486595796284661 3.16382344003567794744 3.16382344003567794744 -1.92230876396008243390 0.62075733803779797881 3.16382344003567794744 -9.55150706995372367203 0.62075733803779797881 5.70688954203355880423 0.62075733803779797881 0.62075733803779797881 -4.46537486595796284661 -1.92230876396008243390 0.62075733803779797881 -12.09457317195160719336 -1.92230876396008243390 -7.00844096795584370341 5.70688954203355880423 3.16382344003567794744 0.62075733803779797881 -4.46537486595796284661 8.24995564403143966103 3.16382344003567794744 5.70688954203355880423 0.62075733803779797881 3.16382344003567794744 3.16382344003567794744 -1.92230876396008243390 -1.92230876396008243390 8.24995564403143966103 -4.46537486595796284661 -4.46537486595796284661 -4.46537486595796284661 5.70688954203355880423 -1.92230876396008243390 -1.92230876396008243390 0.62075733803779797881 0.62075733803779797881 -4.46537486595796284661 0.62075733803779797881 -1.92230876396008243390 -1.92230876396008243390 3.16382344003567794744 -1.92230876396008243390 10.79302174602931962966 -1.92230876396008243390 0.62075733803779797881 8.24995564403143966103 5.70688954203355880423 5.70688954203355880423 -1.92230876396008243390 3.16382344003567794744 3.16382344003567794744 -1.92230876396008243390 -4.46537486595796284661 5.70688954203355880423 0.62075733803779797881 -4.46537486595796284661 8.24995564403143966103 -1.92230876396008243390 0.62075733803779797881 8.24995564403143966103 3.16382344003567794744 5.70688954203355880423 0.62075733803779797881 0.62075733803779797881 -1.92230876396008243390 3.16382344003567794744 3.16382344003567794744 -7.00844096795584370341 