3.063809 -2.181625 -2.338478 -1.910434 1.196084 0.377237 -0.061313 2.383691 5.707028 -0.734710 5.016635 -3.260564 -0.825962 -0.072789 0.008684 2.610248 0.944857 8.105602 0.335247 -7.005405 -1.736050 -5.558737 13.384904 -8.486195 10.331259 1.032861 -6.988715 -4.244194 -3.849012 11.267540 0.913275 0.590326 -1.912708 2.155463 0.841161 3.050327 1.295823 -4.288158 -6.062022 0.746813 0.087992 2.488424 -1.693805 -0.452820 4.967764 -0.973661 -0.127960 0.158001 -10.044923 6.981669 7.051307 -2.886067 7.120453 -5.083244 1.219506 -6.983737 5.485107 -5.913595 5.793430 -3.207352 9.214319 0.534672 -9.643185 -2.672823 4.136259 -1.489878 2.113395 0.751165 0.282763 5.281609 -5.810366 0.944863 5.481141 -3.318056 -3.297450 1.684642 5.560332 -3.250676 1.829983 -6.834707 -2.082281 1.793007 -2.192501 9.397939 -9.752469 -0.411197 2.359995 2.970509 -6.715247 -2.043965 -0.850278 6.953206 12.137124 -8.743362 -2.241457 2.043458 -2.098719 12.094885 -3.641216 -5.829056 -6.509766 7.991230 4.812403 4.184155 1.820936 -4.016651 4.266295 -0.898298 -7.568501 -7.100111 5.339619 -3.719358 8.903195 -2.223072 7.050207 -0.050120 -2.264229 2.200469 -6.745803 -1.972421 7.006333 4.618468 -0.857829 0.200042 -7.255920 -2.154511 1.782425 -12.361660 11.207214 3.151936 -6.825767 3.142140 8.460347 -5.129367 1.186586 -4.563959 6.078398 -3.247121 -11.159312 4.091252 5.895698 -8.698751 7.444763 4.694855 -8.877321 2.444307 -1.916394 1.610262 2.930283 5.905641 -8.248887 -2.420386 -8.467649 -3.106408 1.009653 -0.338637 -0.627424 -0.644150 -5.787154 0.165217 -5.710433 2.526613 -2.494281 3.559513 -7.124568 4.759564 0.833542 2.167503 -4.773683 -1.893308 -1.118964 -0.992885 1.649533 2.533978 0.359812 7.446704 -8.016345 -12.781728 8.381943 1.841652 2.569889 -1.780861 -5.806731 -2.107290 9.030910 4.916193 -1.059920 4.990613 -0.832292 -2.662812 9.564616 -1.926641 -2.808957 -2.952208 1.730341 -4.498198 -6.425566 3.026594 13.375559 4.122636 -5.844648 1.353601 8.324246 -7.335579 3.299310 -3.587065 4.129426 -6.005479 -1.641107 2.196171 3.211101 -3.937438 -0.980402 -2.737233 6.693213 4.639658 4.198989 -8.352418 0.359909 7.916601 -7.623097 0.517322 2.992195 -4.142198 -1.098526 -0.212886 7.501092 2.444738 -1.451868 -2.529551 2.021930 -1.761593 7.256770 -2.502726 -2.971346 -5.620930 5.921699 6.930012 -2.712857 -2.867013 -0.505738 5.027548 -8.420860 2.707099 1.008048 -2.246557 2.037336 -1.762222 -0.472337 5.063813 -8.480122 10.202994 -4.266943 1.316077 -4.320982 -1.276730 2.166425 3.192315 -3.979985 4.043440 -1.129342 2.282200 -9.208572 4.832919 6.579502 -5.578930 3.667547 9.041670 -7.153883 -1.746525 7.474216 -0.112838 -4.733940 1.562020 0.690887 2.911143 -1.287718 2.491435 -6.494615 0.744273 5.468403 1.788739 -4.170756 4.191532 4.097608 -0.980171 7.836958 -12.243728 1.675543 5.933914 -3.168056 1.967375 3.602328 -3.671011 -0.736893 0.107704 0.189963 0.278074 2.870126 -1.387714 2.393618 8.694567 -9.602145 7.664152 -9.835204 2.149438 6.034044 -0.550744 7.864573 -7.130020 -1.778852 2.400523 0.879313 -1.977103 -7.877256 5.301602 -3.442107 6.510007 2.268274 0.928084 -1.828365 -10.405297 -0.614628 7.288783 2.092669 -9.326188 2.390457 -9.494132 -8.404301 2.048072 10.091441 -7.503494 2.572927 5.723219 1.442765 -2.091988 -0.564367 2.294954 -7.000748 -7.369178 7.578667 -0.643392 -5.588927 3.225236 -1.880468 9.195138 -9.930235 9.472825 -2.151943 1.691007 -6.958605 0.251624 -0.140831 2.182690 -2.013348 4.324077 8.888783 -7.330056 -7.141161 0.348843 7.344469 -5.558803 3.362697 -1.465794 -0.632075 2.299731 0.631725 2.707444 -4.157825 -6.354415 2.978723 -1.930418 9.278382 -4.743906 3.610046 -6.375349 0.416877 -7.614124 2.355487 -2.164803 -1.119524 4.406120 -1.516289 -8.371347 -2.918551 3.555401 -7.227692 2.246954 -7.497297 1.929084 10.041902 -5.160199 3.134903 -9.441759 4.082001 0.736508 4.718306 -3.867183 -9.082876 -8.331053 -3.429214 2.937169 7.541011 -5.977550 -4.914821 0.386200 -3.349189 8.264848 -8.240375 -3.208279 3.453032 2.726612 -7.411671 4.814769 3.440287 0.485358 -0.092707 -7.897549 7.292518 1.840484 -2.312886 -0.769626 -0.443014 -0.445082 7.250377 -5.483791 -1.749838 1.955125 -9.834565 1.735778 7.816477 7.116602 4.857796 -13.322519 -6.439257 0.372668 7.172293 -0.581906 -0.160822 0.022017 -2.623950 1.615562 -2.145264 6.811793 -0.431496 -5.165065 1.043780 -2.329615 4.149333 8.868478 -4.766693 -1.188422 -2.673544 6.702022 -5.497345 -4.173568 8.916631 -4.978628 11.155776 -8.916348 4.943435 1.811790 -1.935737 2.210506 3.457243 -3.803730 -5.982274 0.796088 2.661226 -1.809163 -5.592140 -4.348649 -1.694396 4.064610 5.950203 -5.945304 8.246489 -2.549402 -11.105504 16.794488 -5.146178 0.803721 8.191317 -2.511416 -13.290400 1.062332 -2.543495 6.313932 4.361142 -16.493603 12.536822 -6.495222 0.019338 5.073283 -3.802324 -3.904399 3.709182 -4.285817 13.588526 -5.955982 3.187330 -3.849486 1.203945 2.910138 -6.751875 -2.112278 9.396100 -4.893600 6.114055 -2.942559 -3.457938 -0.969291 -0.414125 -5.368838 3.250080 3.351895 -1.683280 2.044273 5.751124 -0.708805 -2.543765 -10.721133 1.643195 -7.401917 7.361952 4.572504 1.172436 -7.139369 10.473525 3.195461 3.571501 -3.477824 -10.918557 1.782981 -2.165577 -3.532556 1.303489 2.663633 0.564088 -2.465543 4.211811 1.179212 7.908014 2.651481 -1.424101 -7.638700 5.432567 -0.803565 4.865613 -3.232028 -0.791806 -0.014096 0.057186 2.666198 6.076509 -8.009375 0.343546 0.320359 2.579264 3.506263 1.334486 -6.882578 -1.882874 -8.153204 17.564007 -4.727760 -6.479052 -1.627968 4.360230 11.322275 3.693099 -21.241650 -8.793894 4.606833 8.243482 -7.932690 2.564691 -4.422386 -4.395921 16.079965 -2.931825 -0.999119 -12.750606 3.329339 -1.923938 3.915444 1.009286 2.613166 -1.811008 -0.666698 9.866814 -7.129142 -4.702239 1.173967 2.595234 8.259144 -12.558838 3.793585 3.759091 -1.629113 -2.916483 -8.470516 2.205733 7.971812 -7.986769 7.618640 2.395056 -9.586720 2.183592 0.543745 -0.178438 -2.667601 1.559728 5.367232 -1.010090 -0.290986 2.531386 -4.323437 -3.909612 3.789094 0.946057 7.774676 -10.157553 -0.584366 4.910179 -14.021318 0.510437 -7.767913 6.936946 4.192591 0.796409 0.104322 2.401900 -1.997769 6.835529 -10.622623 -0.942575 2.093627 0.149011 -5.287275 -1.896786 -3.551876 3.383303 0.547332 2.240480 -4.667242 -4.360844 -1.801194 6.413908 1.440115 -5.004548 -1.795277 -3.538316 8.446644 -0.360410 -3.005453 -6.153802 5.271420 -9.022405 -0.832765 11.997362 -4.493161 3.397778 -4.038409 -1.624981 -0.747881 -3.172387 3.703065 -1.739129 -5.994896 2.902806 2.983699 -12.237017 11.076546 3.073388 -4.609396 -3.960322 1.047381 -0.141921 -2.979717 6.378061 -0.857967 4.542855 -8.764284 -2.940061 -1.165402 4.154273 0.896162 0.000316 -0.165651 -2.820182 -1.151024 6.961069 -0.651389 2.192094 0.737830 0.164273 5.156298 -3.399044 1.573725 -9.507911 -0.541385 7.301321 1.970101 0.618952 0.397853 -7.418211 2.749024 -1.771699 -3.334813 -3.679403 1.096397 7.584601 7.183052 -7.894425 -2.283317 1.863849 -2.244645 -0.848356 2.177842 8.112597 5.044916 -5.825492 -1.457273 -2.804746 -0.963075 2.203844 -4.461593 -11.632341 11.411095 0.608418 2.359484 -11.816990 6.304997 1.714953 5.228957 1.715102 -4.449778 -1.254005 -2.922991 6.548850 4.534368 -3.605986 4.246321 -0.969767 -2.716482 1.962825 -9.419801 7.236825 2.311538 -1.881852 -0.289732 -5.013763 6.058524 -5.689227 0.733408 0.348327 2.531799 3.384315 -1.351182 -7.844982 0.206164 5.050731 -3.674863 3.977250 6.454226 -10.635069 -8.196982 5.074313 6.239406 6.831333 -5.233716 -1.342476 -0.210298 2.426052 -16.966788 4.791416 6.342218 4.014999 1.358385 -4.460503 -1.298915 -8.050134 -7.844385 14.957807 1.646147 2.810245 -3.919877 8.940400 -2.214722 1.936509 -11.770138 1.398351 5.422163 -1.143992 9.845972 -4.351486 1.321509 0.743323 2.839014 1.112004 3.161788 -1.210712 -2.587379 7.138127 2.488832 3.674340 -3.312515 -3.056174 2.032190 0.901921 3.117941 9.030162 0.800175 -6.683454 1.197186 -4.250498 1.473982 -1.718919 2.211649 0.981992 -7.078271 8.199209 -7.427354 0.255739 -4.760832 5.972905 -3.238378 11.623059 -1.238457 -2.755119 7.217312 -5.162268 -3.918523 1.654816 0.515383 12.928583 4.356228 -3.206932 2.350518 3.876847 4.286991 2.107033 -6.106831 6.530450 0.217586 -1.840460 2.833796 6.658532 -9.904327 -14.990352 -6.690362 0.282198 -0.315964 -7.983021 4.878357 1.138382 -0.098449 -7.802168 9.967375 -2.317700 -6.157242 5.653269 1.402765 0.117454 -5.065160 -1.750950 1.707520 -2.400567 4.022948 -9.152595 4.410485 -4.022013 8.359133 4.921592 -3.766713 1.458853 2.990422 3.352394 -3.939132 -3.629116 -1.090928 2.020545 -4.626606 0.957100 -7.488923 -2.709398 -1.249011 -1.031921 9.274880 4.979305 6.392361 -10.581360 -5.781241 0.620746 -2.889749 6.277518 1.656686 -7.391822 10.280997 -2.102379 -0.915646 2.360739 -7.048169 0.182947 -7.754999 -10.524853 8.876494 -0.590402 1.615017 5.289759 3.761426 -14.311259 5.517268 -1.201511 -3.590158 6.237360 -6.098908 0.209855 -5.300571 -2.250986 1.296602 -2.810132 1.058745 -5.300901 -4.859694 5.426936 0.871111 4.664867 -4.009458 -1.677578 -0.912642 1.680953 2.572959 -4.686171 3.282451 3.219761 -14.649677 7.851184 2.004925 2.494565 -1.865491 1.756199 5.433527 -11.193569 -1.052135 -5.623580 0.140307 4.626306 -1.666260 9.262468 -2.410415 -6.049977 8.247202 4.819363 1.327165 3.212330 1.227008 -4.479995 3.954717 1.419396 -1.970207 -5.384238 -4.069910 8.834984 5.164999 -0.854120 0.161465 -2.175821 4.580147 -0.898289 -2.601528 -5.580071 5.967709 4.394592 -1.117387 -2.531781 -0.524344 2.470154 0.850606 2.970664 -6.448094 3.270234 6.269584 -8.160747 2.835696 1.131144 0.313165 2.874497 -1.429930 -0.231328 2.721657 -4.069142 4.014195 4.022238 1.418143 -1.677244 4.991839 -8.232017 0.297947 -2.114862 1.880386 -4.343134 -1.282859 -2.889427 4.041358 3.707211 6.204584 -5.461536 -1.417194 2.350771 3.269998 -3.908024 -0.962890 -0.115795 -0.037994 5.133263 -0.831736 -2.624281 -3.102473 1.619653 -2.076415 4.390029 3.958580 -1.254743 -0.128556 2.734245 -4.103044 -1.104418 2.352026 0.708601 0.304691 -4.824867 3.656304 6.237860 -0.597778 0.110245 0.372793 -4.791279 -3.867964 3.931128 3.645217 -1.426555 -5.336720 6.064098 -0.708336 2.274190 0.934788 -4.700430 -3.867293 -1.207302 4.487092 -1.335711 4.585703 1.486770 -9.705841 -0.382459 2.286707 7.947424 -2.668218 -0.739440 2.487592 0.715852 -4.805975 -3.934691 3.798581 3.497007 -6.657285 5.609456 -3.362241 -3.787505 -3.698041 3.636550 3.340801 -1.743731 -5.663517 8.290101 -0.202809 2.301467 11.069842 -11.695109 -3.363465 -5.849438 7.991252 -2.774530 -3.559578 1.506716 10.407525 5.667462 -5.623824 -1.252091 -7.719342 -10.064308 4.364810 0.915368 -7.792033 5.023471 6.279271 -1.014173 -13.027235 -1.608305 -3.526792 -4.441817 -2.005734 1.132253 4.600508 8.359080 2.144878 -2.063839 -10.853417 1.435524 -2.589433 -1.493114 -0.917890 4.198755 0.758487 4.881895 6.360362 1.810198 -12.065931 1.403534 -7.394817 -0.317353 -10.633528 1.065659 7.238638 -6.279160 2.581611 -4.771626 0.261654 9.639279 2.306440 5.433939 -3.436906 1.341779 5.445358 6.604648 -5.468343 3.657518 3.914986 11.441776 -3.622459 -5.610043 -6.161787 5.870098 -3.204009 4.174503 -0.934034 -2.723728 1.943536 3.228710 -1.450838 7.410586 5.130518 -3.160263 4.709879 -3.089898 7.051916 -9.939764 2.394863 -8.946698 2.309812 3.413535 -4.125339 1.425954 -7.079093 2.761812 -1.768143 -5.909353 5.666193 -1.087052 1.882448 5.629715 -8.554309 2.409899 -9.459603 6.823469 -3.202756 -1.442455 1.969890 2.775328 0.596956 5.157523 -6.060352 5.717454 -8.345914 -0.230138 -2.640928 1.325906 2.719519 -1.954967 1.797754 -4.639310 -1.662580 9.450866 0.088196 -2.584834 -15.878773 -0.059337 9.630460 -5.402347 -1.963237 1.752143 10.150987 5.366138 9.286628 0.714453 -4.416361 6.820504 7.571570 -2.308647 -27.891087 7.125194 -2.999062 5.997372 -5.652033 -4.460168 18.868059 -12.231403 -11.479608 1.778355 -7.783484 1.957228 5.186225 -6.743850 -7.631412 7.276519 -1.163280 1.411081 5.124412 3.593704 0.785531 -4.972130 -4.248951 0.910859 -2.764347 6.277808 -16.223793 7.185738 4.308060 3.006643 0.746091 -5.049041 0.747146 -7.714257 -5.426499 -2.194299 -1.517132 6.316845 -1.328751 6.578525 -5.976656 -12.506939 8.405048 1.757191 -2.850471 6.427931 -6.109597 0.144717 -2.814348 -4.048693 0.756919 -0.416554 -8.431021 -3.227035 8.382237 -11.077170 16.133283 1.949827 -7.739710 -4.948555 -4.551375 0.339665 12.053559 31.036160 12.046540 1.979181 -0.361679 3.675384 4.802421 2.676593 -5.447289 7.276451 3.470246 -0.367084 1.311326 -3.399705 5.166885 -9.987675 -7.239993 -1.353024 -5.196774 3.713668 6.495469 2.203452 -3.907052 -0.656775 -2.365479 2.002722 -4.225999 -1.161421 4.885659 1.509940 -1.938773 2.224918 0.868191 -4.686171 -3.787776 1.427108 0.298232 -2.570913 -0.827998 2.162630 -4.613906 0.946284 -4.944381 10.814522 8.243011 2.415759 1.169120 -4.296085 4.056171 -1.004230 2.413939 -9.033331 7.565497 2.554644 -1.732002 -0.079898 2.807470 3.614138 -1.105965 0.078734 -2.094078 -2.907222 6.983185 -0.180367 -2.350853 -5.347973 1.084829 5.494750 1.741278 -9.366578 5.039017 -3.396989 9.004647 0.513513 -2.223815 2.321441 -4.114076 -1.087604 2.437972 -1.742087 -5.505560 -1.584374 4.499745 -1.345165 2.057540 -1.835733 1.902701 8.234521 -2.523898 7.047341 -2.501305 -0.563609 -4.821897 6.279470 -5.522964 0.899112 -7.093089 5.315477 1.621954 5.416088 1.871151 0.763797 -4.522093 3.915725 1.389746 -4.562249 -3.679873 4.048953 8.794377 -7.409716 -4.563236 1.393134 0.223414 -2.602247 -0.825989 -2.919805 -6.232483 -9.855146 -6.129436 -7.818499 -11.166838 -4.723813 -0.467972 5.741478 -2.325368 -4.642502 -2.679783 2.786912 -5.709491 -0.624948 -11.669936 7.516214 -4.271418 2.058219 -3.123553 -4.986275 -5.421784 -0.659096 0.718622 -9.013465 0.777207 -1.326502 -7.274874 3.815601 -10.645605 10.165237 -13.649468 -3.522914 -5.106519 3.907895 4.411318 2.092231 1.718533 1.728236 6.882039 -1.544092 1.086270 17.338227 4.558463 21.343837 9.443833 -4.293716 -20.635267 -8.342687 17.676859 -0.150398 4.931491 9.653131 -4.489341 -3.525069 1.896790 5.693795 6.923754 4.968981 9.629804 -4.037388 -3.138469 -0.289624 -4.934510 6.263702 -5.567890 -1.769098 2.085683 2.898713 0.711398 12.851331 -1.093567 2.332281 -1.356208 -0.275056 2.686914 -1.571069 -0.310698 2.666138 3.487241 -1.245223 -5.124562 6.379729 -5.440825 -6.582850 5.971434 4.419046 6.567442 -5.050577 -3.536207 4.548321 -3.429210 -0.760923 0.182288 0.221200 -2.262939 2.040368 3.332918 -3.926908 1.569422 -6.914359 -2.139544 4.444777 -1.395189 -5.609238 8.441442 2.444627 -1.938455 -2.899882 -3.384882 3.929802 6.151721 -10.902547 6.890494 -0.335648 -5.480008 3.529931 6.079679 -5.905256 -6.789007 -2.023864 1.577911 7.719360 -0.381902 -2.709724 1.820215 3.024133 3.402863 -1.369629 -2.765948 1.883954 0.649113 -2.284096 -3.082441 1.669729 0.486776 7.743432 -5.091203 3.694471 1.501117 3.109459 -1.198991 -2.540202 -2.941158 -3.225484 14.373666 7.122494 -0.003376 0.916136 -4.016039 9.554744 1.088276 0.993829 3.869925 -3.050590 2.458146 1.665213 3.795063 -0.468570 -9.414903 3.041550 4.110823 1.674088 1.260005 6.247485 0.144198 -4.213667 -2.913972 -2.757991 2.168991 -1.436212 -0.045465 5.536481 -0.452721 -4.759168 9.273530 -6.896439 5.849073 2.478229 -4.009754 1.956073 -3.963161 -0.900253 0.132390 0.244003 0.332110 -9.806666 -2.851862 1.680491 2.744521 3.261353 -1.514952 -2.929375 -5.909844 0.606109 -0.034843 -5.416632 3.204869 -4.378705 3.309368 5.893864 -3.597838 -8.792835 -0.236128 -0.481559 -3.247376 1.166246 5.017157 -9.068758 1.976729 5.419287 -1.444229 -0.637939 7.329675 4.598396 3.949135 1.551258 5.933152 2.303725 -1.287399 0.317871 -1.823119 2.500397 -3.766552 6.932657 -4.924019 -3.638513 -5.595533 6.082322 -0.506931 -5.107000 -1.201395 -2.807212 1.613463 0.493995 -4.988687 1.023983 7.871751 -2.812183 4.307819 1.607062 15.834667 -4.846300 6.697240 8.128915 -1.973646 -4.649811 7.229600 -4.647194 4.374584 4.865796 -0.337330 0.888628 -3.822964 -2.901241 4.955093 2.115739 -1.248521 8.078220 3.267114 -10.898023 0.207741 5.892860 -5.433704 -3.545486 2.122614 3.497640 3.997534 -3.288027 2.145299 -8.905281 0.172884 2.984583 8.615041 -9.684475 0.035060 -2.029125 -3.171593 9.395865 3.019450 1.151436 -1.569803 -0.011522 2.975485 -1.234658 -2.467328 -0.267684 -2.292153 7.191265 -5.088742 3.830159 -3.382890 -3.368578 -0.642993 -2.609598 1.823420 3.212381 -4.021224 6.596417 -5.360536 3.536197 6.530513 -0.414143 2.873244 -1.095330 0.086259 0.545028 -1.967008 2.359911 -3.954599 4.188576 1.684829 5.873137 2.351903 -6.338101 1.279232 -1.626782 -0.221422 -2.175016 -8.004006 -4.784799 3.605114 -11.863383 -1.357666 1.888242 -0.125942 2.091013 5.395829 -6.282607 5.507937 1.585835 -2.372659 -0.693361 -2.852244 -1.092922 1.996639 -7.297198 -2.510689 1.470315 -2.680020 -3.833102 -9.241128 1.581363 -0.321770 1.487296 -0.212514 -3.305410 -4.197560 -4.552517 0.277748 -0.854170 1.324087 -0.412196 -3.482015 -1.813270 1.178725 -8.142304 1.735113 -2.851821 3.132449 -7.471657 1.870137 2.313357 -0.310385 -8.430016 1.778652 4.788723 -2.047379 -6.340125 0.013216 -0.803534 3.944357 -9.650063 -1.132422 1.515421 1.983203 -0.137908 1.869861 2.550194 7.885665 -13.166749 0.793487 2.568339 2.599910 -4.584028 -1.652596 1.743585 -2.476307 6.495842 6.819515 -8.305701 -2.464591 1.799337 2.706995 -1.896880 -3.188522 1.483849 2.777524 -1.903391 4.437284 -3.739681 3.841849 -6.376103 2.988602 0.931897 -2.489313 4.336608 3.823760 -1.426296 4.831064 4.224753 4.007722 9.303021 13.589968 -5.194653 -5.542426 9.668021 -1.420918 0.348945 -1.298426 -2.160796 5.194563 -0.262346 3.137825 4.362958 -2.999332 -0.056698 -1.719789 0.068994 -4.447805 -3.420904 1.894456 3.313648 1.227295 0.743015 -4.452119 1.501620 -4.369418 -3.804002 4.043638 -6.490515 2.982303 0.918215 -7.610400 -4.928870 3.315211 -4.625800 3.168609 -1.915812 1.410738 -2.447645 -1.216413 -5.860843 7.818084 -5.783394 2.692894 0.530409 -3.003185 -1.295326 -5.953443 5.189799 6.066827 -1.321884 1.890979 2.927682 3.136471 -1.695141 1.997508 -1.933653 -3.234027 4.059359 -9.093695 4.625689 -1.247280 -5.913416 3.141172 3.141337 -7.101231 -4.909269 3.262784 5.441366 -3.934678 1.080343 -2.443331 1.333690 0.078123 -2.928952 -3.762996 -1.570183 1.498663 7.478072 -3.292742 -1.337890 4.483724 3.470449 -4.309812 -1.416457 -3.153135 -6.466838 2.677106 2.781842 -4.883779 -4.448574 0.677126 7.073440 -1.081802 1.731545 -2.306603 -3.718931 3.533923 -2.009724 -1.170582 4.331491 -4.299360 -4.329537 8.450152 -8.227883 4.538199 -4.010057 -7.037313 -2.617738 0.921778 -0.673993 -1.058696 3.975762 -9.767179 1.293279 2.167111 -2.991225 0.833901 -3.085425 -4.413840 -2.218642 -4.263905 0.101131 -6.197202 1.947897 -3.137917 2.777444 2.258105 -0.505931 -3.664999 -7.166709 -3.273039 20.627877 -7.677957 9.443186 -5.003125 7.790729 -13.195561 20.749580 21.283356 -49.892767 -9.665785 7.045647 10.107464 4.548026 5.881638 -3.690796 1.022731 15.263792 11.884212 3.662625 -8.389772 -4.454074 -0.999057 -0.340171 10.066618 8.237395 -12.506654 -3.260000 -0.649673 4.600040 -19.002307 -16.098647 -7.845598 1.299733 6.497687 0.611182 -0.906583 1.342320 -3.163975 -9.612589 6.211269 -1.878313 -1.917782 -4.074495 7.721118 1.166048 -3.305652 3.312864 12.801597 -2.059610 -6.208070 2.955092 -73.502321 22.170513 20.198756 43.088881 4.803171 16.596071 0.947775 -1.791704 5.550463 15.092442 -4.789413 -0.321912 -3.838278 12.302622 2.076502 4.049779 -30.489394 11.940212 14.402667 4.134063 -5.335895 -10.703227 -15.282130 -1.925253 -3.401028 -6.724608 -2.503222 -1.455352 6.297377 -1.409613 1.410659 5.041286 8.560298 7.326592 2.170812 5.959289 -2.948807 -10.774187 -5.499562 8.387888 4.690716 1.228205 3.135873 -1.425562 -2.850210 14.555005 -3.110744 1.787763 -1.325508 2.329522 6.131943 -8.013348 3.042543 -8.834988 4.892795 -3.443515 -6.350296 3.198839 -1.860907 4.124894 6.193537 -0.881846 -10.414231 -0.597196 2.072302 -2.498656 1.431157 -10.067933 6.578482 9.134346 -5.561610 0.680322 2.625201 -7.316295 0.006163 -0.343974 -0.758158 -0.703898 -8.359061 1.942488 15.160975 8.900346 -10.269571 -8.002834 -5.038720 -7.314004 14.796575 3.744622 -2.080845 4.456742 1.113455 -12.660039 -1.442208 1.721546 -5.372233 -2.181781 -3.777431 8.181644 -0.794723 4.142872 -9.221068 -18.604325 3.916204 2.560343 6.967697 1.356668 -7.924045 -13.130684 5.357760 10.631605 -0.513287 4.367415 -1.550519 -8.624821 4.627652 0.835821 2.090128 0.337793 -0.255856 -2.898142 1.351285 0.085717 -2.888253 1.404205 -4.964481 -1.910045 -3.463736 3.460595 -1.997010 3.945667 -6.745913 5.122969 -1.271111 4.176133 3.668865 -9.279931 2.205381 5.641608 1.307262 -2.149389 -3.086866 -0.966381 2.105202 3.012872 -1.703209 -8.114721 7.700200 -2.901457 1.369055 -1.989916 -3.314250 4.002491 6.123465 -3.360539 -0.894046 4.988624 9.100263 -9.785627 -5.139847 6.448179 -0.749111 -2.765254 4.529542 9.078044 -2.187431 -2.758740 -0.267915 -2.381315 4.568737 -3.437511 6.780760 10.088967 -4.243410 9.603484 -8.913084 -2.157785 -4.886224 6.381355 4.859177 -3.264604 2.226252 3.842087 6.707517 -4.878585 1.864357 -1.111271 5.293021 15.078821 -12.403508 2.399556 2.016051 -6.486507 -3.594619 9.837717 0.935190 6.015757 0.356029 -6.624739 14.276871 2.701912 4.230765 -9.886756 5.819296 8.055830 0.783923 -0.905738 -6.448841 6.861381 5.738199 2.756969 -2.796145 0.573523 9.125906 -11.263501 2.971793 2.341185 1.554736 -3.350702 0.171302 6.247994 7.970127 -1.480532 3.521684 2.578361 7.172050 -9.002539 6.397858 8.615346 -8.894397 1.497827 -0.474051 -1.611459 5.915376 3.014151 9.764372 -3.140518 -1.978253 8.717813 -1.091667 3.651502 -4.784819 5.057435 -2.021585 3.201009 5.032313 5.403392 -6.979889 -3.064332 5.661007 -2.255788 5.603814 0.575214 9.010770 -11.026351 8.178840 1.482765 1.464412 -0.521211 6.285656 0.747861 1.600312 2.061931 -18.288932 -37.287313 40.364910 -8.098372 -2.885988 -11.913377 -11.129994 11.993053 11.019460 5.765128 2.450257 -0.981928 5.586669 -10.204423 7.801555 -19.641932 -3.099338 7.281079 -3.160178 6.849244 0.000129 5.322014 -7.933492 5.676567 15.055772 -20.458029 -18.103961 -17.414565 -5.882651 10.059392 -20.877204 -22.490249 12.677418 -18.421737 -12.724279 7.500968 -0.097686 2.929622 -0.597470 8.394148 -21.652495 -5.391854 -2.890980 -0.514981 -6.992353 3.760458 32.511705 26.128637 17.527236 16.390942 6.341363 3.618040 -12.139328 -6.939399 -31.009049 -16.250988 -4.604211 -4.775088 -2.195748 1.197399 -5.516882 2.654533 -7.505546 7.017698 1.491014 -8.000565 -2.817246 -4.003126 8.052386 -5.920640 -2.519454 -1.180004 -3.716738 3.235391 0.292885 -0.617255 -3.197437 -6.589004 5.037767 -1.695669 6.388257 6.680958 4.191605 3.854973 -3.701541 -0.863912 0.018199 0.089974 5.287527 -8.335867 0.256926 2.944598 -4.239896 -3.628919 4.184490 3.790400 -1.326537 -0.070353 -4.771246 -6.342352 0.766176 0.161027 -2.632691 -5.857649 3.244301 -1.742681 -5.871897 -1.830260 -5.908563 -4.780314 3.198870 -4.726825 -2.024145 6.598848 3.938521 5.881587 1.773310 -7.025029 0.602094 -4.834460 -6.746841 -7.211460 10.134503 10.212123 5.276721 1.909156 -6.580234 0.966730 3.175202 -3.988704 4.222889 4.212654 4.074857 4.362084 -3.079546 4.902234 2.288651 1.357888 1.352584 -1.241850 8.130135 5.927477 -4.875190 2.337710 1.904994 -1.049358 0.803719 6.398482 -2.139537 -2.101572 5.655598 0.126895 6.115022 -4.537876 2.261962 9.555665 -3.738460 -2.424435 3.213066 1.971101 -0.892950 3.461589 2.186988 4.290600 2.548261 -5.594216 -0.382993 1.074789 -1.302158 5.705539 2.757706 4.380650 -2.497202 -9.722108 5.856369 2.659785 4.032845 4.911918 5.135907 2.807665 -13.027851 -0.056613 -11.583818 -2.982137 -2.767827 -13.398249 -3.872952 -1.233399 -3.435903 1.152224 5.082759 -16.645549 -0.262187 9.766747 7.127869 4.411313 -3.609068 1.627347 5.762770 -5.823683 -1.504291 -0.118493 -0.053485 10.259705 -1.777812 -0.239760 -4.527590 1.449715 -6.883178 5.668270 -0.586892 -5.250387 6.372865 4.606514 -8.682559 0.348902 0.418752 5.140123 1.771862 0.797303 3.225827 3.922288 -8.524943 3.035802 -3.670830 -0.999619 7.700870 -5.118957 3.809832 1.659275 -4.403348 4.183898 4.157401 -3.598759 -3.143489 -0.521007 2.547021 -1.616795 4.802221 -3.340023 4.262451 1.666094 -4.390213 6.699574 2.354408 3.484137 -0.889469 -2.296445 2.391428 -3.952908 1.684323 0.925139 0.497400 5.602906 -0.475848 -2.279081 2.397621 -1.453571 -0.129653 -2.176296 -0.407779 7.742952 2.539763 -1.450012 -7.481858 10.839587 -6.620578 -9.504184 2.710249 3.239419 0.768728 2.904687 3.575440 -3.849492 1.628110 0.750780 -2.250218 2.064835 3.322315 3.646355 3.924900 -6.051697 6.216122 -5.315717 -6.530424 0.965154 5.348389 -8.625303 10.196108 13.441975 1.502823 -9.019335 10.798835 6.326162 -2.792105 -2.398703 5.188293 -2.935986 2.251053 -11.271969 -5.517962 -14.002817 8.230065 2.199784 -2.430289 -8.341933 -5.303020 5.530052 0.959030 2.212391 -2.174938 4.023354 -1.653863 -0.903037 -0.503928 4.536573 3.565980 10.986734 -6.832178 -4.512763 -16.349835 -5.334699 -2.193098 -4.316456 -2.278461 -1.710414 0.866315 -0.861773 -3.905154 5.401142 3.105918 2.424331 0.034871 -5.752649 2.672020 2.613853 -5.146581 -9.798137 1.405540 1.939363 -0.586009 -3.580300 -4.491563 2.746194 2.294655 -2.914044 0.822406 7.039336 8.862054 -3.021133 3.869644 16.270070 7.189486 -10.341681 -5.017864 -6.254841 2.950438 0.695742 -0.079753 -7.721699 -10.165199 1.630965 -0.238128 -3.486280 -1.661542 1.318456 4.657555 3.226973 0.425673 -0.240969 4.666555 -1.480094 4.335575 -1.342092 4.448436 3.870759 -1.461721 7.315064 -7.771164 -2.289331 -8.076065 -7.824792 -10.330990 -1.320147 8.823635 -6.034413 -2.662941 1.137797 -5.765396 -2.697388 3.355854 -5.200598 -2.628850 -4.273267 0.015921 -8.829994 6.173156 8.247321 3.643874 0.282309 12.174777 20.921271 -42.285172 -7.655772 -4.887202 6.636231 8.401418 -13.869252 28.005361 7.822174 -3.641112 17.189623 10.441011 3.324393 -5.601843 -3.307626 -13.002510 -1.078962 -2.710922 3.975706 6.230089 1.792492 -9.470574 2.429553 3.306747 0.720875 0.286814 -2.357718 1.842780 -1.990820 1.847876 -4.518318 3.587819 -1.507529 6.944512 -5.495694 3.340613 1.163876 5.279352 -0.800465 -2.640923 -0.540089 2.449831 -1.788775 4.607779 1.549705 -1.991573 -0.324797 5.170898 -0.867665 2.471130 1.111490 0.563684 -2.029675 -0.317054 2.696313 -4.100958 6.574962 -0.286371 0.025110 5.511413 1.934361 3.469393 -0.934566 -12.501203 -0.789567 -2.609868 -1.062675 2.164257 3.027423 0.793328 0.244008 -2.414619 4.348081 -3.780064 1.317095 -4.601826 -6.660638 8.011721 7.155219 4.372955 9.152780 -4.514915 -6.057692 1.235022 3.012697 6.037469 -0.430779 -4.836339 1.532509 0.708749 5.412587 -10.760629 2.077338 0.928605 2.646658 3.526124 8.886759 -7.136350 5.909026 -0.133799 5.270302 2.234160 -1.325868 7.946260 -4.524238 -0.732172 3.192033 -1.063743 5.376203 2.364601 -1.160183 -4.562738 4.461079 -0.563457 -9.810687 5.347747 -3.005240 -0.744734 5.393495 4.476018 -10.928595 -2.709842 -10.522825 -5.837367 -17.111579 -0.681083 -21.284113 -0.154698 -3.768568 7.129965 5.894549 -2.076975 -6.599768 7.326271 19.027166 15.073471 1.943914 1.196492 -1.431201 -25.328109 7.981757 22.870322 9.003772 8.524417 -1.093514 -1.622188 -1.677869 0.597578 3.772931 -0.370452 -1.575775 5.743843 7.846478 0.898060 6.711073 0.986687 -3.395988 -2.014247 -1.817635 8.196741 1.056123 -11.256397 -4.616762 -0.432116 2.880769 1.426936 1.058291 -1.522144 2.730546 -1.088688 -2.322145 2.462956 -3.860210 1.775147 -6.611509 -17.025345 -2.435851 4.021994 -2.093471 6.558356 1.725269 -7.458265 -2.347363 1.559097 35.509986 2.927847 6.299985 8.550002 -42.231222 39.025503 -48.319369 -43.266555 13.117185 -8.462709 -25.411608 -14.115039 -1.600105 -3.674334 -1.601955 -5.800239 -7.151706 10.258683 5.303835 11.593709 -8.627304 -4.472881 -5.498839 34.344011 -6.661867 -3.494421 -1.280270 -1.643296 -9.254387 -8.985870 -6.535321 6.540082 -2.291521 2.744562 -2.959140 5.304812 -2.144931 -4.456903 2.726374 -10.538502 3.160232 -2.713540 -2.320148 -1.841932 0.672499 -1.096410 -4.130835 5.188618 5.447064 8.097770 16.965172 2.150199 10.774672 1.195958 5.759855 20.265917 4.307083 7.523222 9.120850 1.750008 -20.572363 -1.937828 -4.384638 4.200642 -13.214998 16.846209 -1.884629 4.725224 -2.592357 4.873692 -2.846364 4.795487 -0.333808 -4.637040 12.014823 -11.049733 2.169651 -8.707347 -7.667230 -7.182930 -10.107377 -18.864389 -14.227171 -5.704578 -6.274641 -6.595956 -1.590324 20.118785 16.618418 0.786991 -13.216732 0.422724 -0.930956 -4.257791 5.239604 -2.105769 -4.391785 2.808591 7.337158 3.645421 2.865440 -4.736859 8.203138 -8.159738 7.062653 -13.382099 2.829083 -14.816050 -5.594619 -5.108598 7.084260 0.771804 -8.722291 -3.646192 2.756268 -5.753022 1.967479 -8.251356 1.109242 -0.967881 -4.417323 4.949901 -4.961127 2.148914 -3.038491 5.322061 -4.609591 -2.615681 -1.780878 3.277561 2.340263 4.687984 10.724396 7.627431 -5.714983 5.839250 -0.814380 4.519716 -3.653644 1.349332 -7.166525 5.247622 9.091386 7.541392 -2.614850 9.802091 -11.796845 -0.757821 -4.785911 8.560179 5.211545 -0.943311 7.783992 0.244670 -4.652345 4.295777 4.239428 -3.512697 -3.059851 -8.064248 7.893326 5.017824 1.490135 -6.722334 -4.198967 1.473742 -2.193908 4.325066 -1.209152 -10.612448 1.903953 10.525796 2.721939 -4.285809 4.052670 -3.774207 1.317373 -2.014788 4.368252 -6.282177 -4.522889 8.814349 -7.805783 5.002098 4.139478 0.930555 0.377033 0.245489 0.148491 0.128031 -4.962116 -3.994980 6.388091 -5.906468 -4.536953 6.261905 -3.554241 1.142546 5.399981 -3.712016 -1.210887 -0.334341 -0.333365 -0.277682 2.294119 0.533850 -5.054759 0.946346 2.681872 3.056815 -4.255907 -1.311647 4.654291 3.723480 1.035370 -7.175020 0.492121 -12.566006 6.036068 -6.056139 -2.513868 1.511523 4.897249 0.945157 -5.151781 -1.794134 -5.993668 2.677563 7.871112 1.732240 -2.331527 1.745810 -2.229057 4.115794 3.628403 -9.279922 -2.831000 1.574836 -0.047722 2.155442 -2.140483 -3.472752 -6.373764 0.190447 -5.575437 -4.936390 0.413212 1.788344 12.371278 15.816473 6.988641 -0.135616 0.615112 -4.327863 1.662401 -6.695649 3.288740 -3.775805 -3.653843 1.663051 -4.615148 3.604084 11.286867 8.423787 5.425597 7.491138 0.622387 -1.359300 -4.360926 7.243260 -4.584323 6.998335 0.636738 6.050693 2.973296 -0.590741 -1.471185 -6.900891 -1.088569 3.066734 4.084859 -3.097798 7.555912 0.656040 -1.569512 -1.923936 2.844369 -3.432996 7.338174 5.631356 -0.082661 3.647520 -2.835679 0.156739 3.691586 -0.521174 5.907868 0.339058 -1.427724 5.854416 0.284919 1.117732 4.126546 -2.729688 0.310264 6.368749 5.462540 -7.391059 4.164531 2.513828 1.654288 4.255129 2.475048 -5.682969 2.087415 9.418794 1.242830 1.575411 -3.166449 0.260146 11.430442 -3.112678 2.790644 2.349393 -0.707367 1.063997 6.653136 3.171531 2.210230 -2.969037 0.460645 -3.656015 -0.032009 8.683479 -14.257833 -23.707809 -11.345799 -3.569677 -4.424903 -7.193364 2.122569 2.236644 -8.004522 -0.691325 1.491472 1.861778 2.203518 -2.647998 -1.498597 -6.191582 -0.129508 -0.857336 3.853938 -7.260421 4.637276 0.744984 1.863104 10.217308 5.143487 6.371372 7.186375 7.517519 2.791501 9.217495 -1.361289 -17.254155 0.973458 3.494439 1.155768 3.430731 6.735693 -7.517834 -4.079544 -13.164882 -26.627527 -5.531751 -12.568580 -10.391705 3.185028 -0.769791 0.550595 3.877574 -2.767829 2.993004 -2.703275 -7.062867 -3.121711 0.420687 -1.205498 0.951399 -8.447671 -13.872369 -2.844152 0.073492 -9.477076 -7.072698 -8.920761 2.841138 -1.260712 -5.105329 -0.857690 0.337817 -1.907788 0.128396 0.838776 -1.474414 5.591188 2.766565 -8.178260 -3.570560 0.303530 -1.379148 -9.392632 3.512216 -0.296874 0.892085 6.736409 23.765152 8.877399 4.943775 7.160483 12.838201 -5.594860 -10.900605 8.017306 -2.068656 4.848449 4.905612 7.227303 -7.036247 -11.281529 7.770163 -4.755966 6.492559 10.381684 -11.609056 -10.278093 7.958722 -22.834597 -22.146405 -9.087845 26.627792 -0.906853 6.409338 2.149041 -9.852493 -23.351110 -32.764794 11.924170 -0.799978 -2.637646 0.481156 3.644303 2.097822 6.938739 6.114410 11.122710 -4.762202 0.817655 -12.469080 -11.823005 3.635275 10.318315 2.138851 0.178761 2.442565 -7.141963 -2.409340 -8.564848 -3.159650 3.563907 2.797474 -12.549298 10.950549 18.049883 9.753302 0.556811 0.822000 -1.648074 2.547107 3.857239 -0.875932 0.374821 -6.822580 -9.170843 0.197732 -7.497551 7.736039 -2.752536 3.998814 -1.147486 -0.409802 0.022699 0.027011 2.590079 3.394358 3.680202 6.456594 15.061731 15.327422 -4.557873 7.736680 -6.134919 4.459973 -14.886777 14.374251 -2.017770 2.629740 -0.267803 -1.575363 8.296907 1.041775 3.923431 10.198842 6.912491 8.683135 4.482226 -4.333468 -1.776848 -3.678089 -4.595361 -2.423985 -1.997265 -2.060395 5.466803 5.130725 5.031844 -2.353916 8.190214 -6.361436 -3.301780 -2.148231 7.883232 0.754443 11.347258 19.980436 9.916347 -7.779099 -10.107541 4.201039 2.854652 -7.907244 -8.356361 -1.072252 5.726468 -5.086355 4.463608 -2.685873 2.463576 6.794588 2.850169 6.940963 18.568597 1.830963 12.378969 -4.221579 3.191616 -6.934604 2.229725 5.091696 5.609361 5.993051 -6.473660 7.589347 14.394169 -4.159957 11.035444 -17.154604 -28.742487 -21.971544 -21.259728 -9.361174 -3.716616 5.130038 7.871910 -1.327015 -8.845191 -5.885654 -2.722229 10.667603 2.069419 4.734468 -11.749669 -9.240119 4.254437 -7.455060 -8.469851 -0.899377 -1.581792 0.661160 -1.019271 1.016137 -0.801480 -1.334411 -6.476198 -2.984602 0.559780 1.463154 -3.244782 0.545123 1.747806 -0.500320 1.530241 7.332097 -13.749365 -2.197071 1.406971 6.981352 1.370072 -0.132465 -5.418280 3.069996 -2.010346 6.503270 -0.824744 -3.095939 -3.504667 3.808083 3.406231 -1.772260 4.537911 -1.127616 4.721207 -5.990242 0.837850 0.504349 2.659763 3.501390 -3.828609 1.684238 -1.694254 2.179482 0.951510 5.593715 -3.025270 2.024248 -3.926920 1.677461 0.934183 0.542032 0.568734 -4.518274 4.087084 4.122852 9.108115 -6.866126 -9.059121 0.548156 5.471624 4.285869 1.648183 -4.044585 4.416932 1.838629 -1.611499 -4.962232 -0.990508 2.587685 3.522448 3.898491 -0.934879 -2.315916 4.924214 -3.179276 1.961302 3.691785 -3.614744 -0.597958 2.879642 -3.911684 1.716514 3.474896 1.281682 -1.752546 -0.062622 2.927347 3.751143 -3.557134 1.960340 1.107690 -1.881691 -0.109166 -2.165985 -0.364370 2.721752 3.572934 1.352050 5.893333 -2.810506 -2.892549 -2.797685 -3.051863 -0.677227 -0.052388 5.143584 1.677974 0.686833 -1.967114 -2.834126 -3.141613 -0.823703 2.319522 0.671338 -2.317262 -0.599362 2.405268 -4.395002 -1.332682 2.173357 -4.598131 6.122921 1.819595 -2.153709 -3.031252 1.679950 -2.099634 1.803593 -1.996553 -0.706515 -0.228712 2.344603 3.158786 -4.174608 3.877568 -1.279789 -0.464537 -2.547359 4.297515 -3.793809 -3.752077 1.482800 2.806190 0.651338 -2.386540 -0.713916 -0.271447 2.308458 0.581390 2.628818 0.804415 0.254209 -2.366092 -0.654156 -0.174731 -2.671603 1.663857 0.407299 2.494048 0.707468 -2.376077 -0.694999 -0.245822 4.871229 -1.164647 -5.491789 0.952582 2.698834 0.549166 2.617902 -4.312876 3.727376 -1.417272 -8.230594 0.041632 -2.771478 -1.342849 4.311560 0.829959 -2.702876 -1.054738 -3.191788 1.127577 4.981917 -1.530914 -5.890219 -2.019882 6.559952 -3.696579 -1.601530 -5.837812 -2.342068 -1.308287 3.902382 2.992767 0.240478 -10.559013 1.420344 -2.714208 3.327521 5.434575 -14.335573 -4.883342 0.482319 -3.603800 2.948309 2.482180 12.435796 3.034908 -4.701849 1.003037 5.103579 -3.972083 -1.444480 1.961561 0.204738 -7.887139 2.432998 0.363530 2.040961 -4.814210 -4.399976 -6.820878 -2.745365 -1.633759 6.154593 0.948730 -0.554180 -5.829662 0.090738 -0.723455 -3.677629 -4.457514 -2.231012 -6.792487 4.431461 2.733802 -8.059501 1.691984 2.052514 4.440867 -4.691604 0.242873 4.374982 -4.735931 2.839983 -2.363463 -6.699422 -2.756523 -4.311918 -4.987647 2.435781 -0.518196 6.182210 -11.891357 0.397576 -3.365896 -10.099714 -4.285922 12.503149 -0.427299 -4.111540 -7.256908 -0.896279 3.440178 9.743433 -0.820902 1.325100 -5.353556 0.060374 -5.861096 -20.573480 23.264931 -4.416468 -5.493555 -35.165959 -9.427101 0.483288 22.719813 9.683438 16.404899 21.971714 34.055096 8.081974 8.725116 -5.467113 2.618126 -12.615217 -7.490897 -18.687743 5.150860 -3.121735 -6.141602 0.999112 10.443960 36.100938 -3.999784 -0.215917 17.117235 16.475403 1.413277 7.733177 -0.357538 2.022204 8.015835 -0.542766 2.019805 0.377131 4.700579 6.029876 -3.788434 8.589853 -5.454146 2.728839 5.446959 10.946383 2.679974 -2.210972 -6.056299 5.222434 5.859800 5.893039 -6.517597 -2.635963 0.998959 -0.878274 -1.463246 3.423152 -2.860014 5.332416 2.806283 -0.664319 3.586005 -5.366026 -0.566361 3.461258 9.464124 1.243421 -1.072785 -1.571502 0.603481 1.159344 1.263822 -3.773149 2.296960 1.538730 -11.570563 -2.750335 -2.797552 1.770738 0.718604 -2.206647 -8.091444 7.835415 -2.739134 -3.561232 4.202067 -3.910984 -1.307600 -0.345722 4.787525 -6.301914 -1.996656 1.944109 -2.267885 -8.538499 -0.225739 -3.001603 -9.172410 9.409393 -0.364168 1.625831 -2.312394 -11.334135 -1.325194 -3.584646 0.470988 -5.745242 7.514769 1.457308 7.164319 -5.894401 7.914089 -0.377712 -0.580396 -2.757418 1.478801 2.755187 0.564066 -2.494403 6.811458 -3.105414 1.492155 3.153749 0.890419 -2.168999 2.060911 0.746089 0.282796 0.264627 -2.311121 1.973949 -1.832052 4.561261 -1.019598 -0.244485 -4.917686 -1.419234 2.137340 3.037423 3.392592 -3.993608 -1.082040 -2.737310 1.614428 0.419024 5.076565 -1.008931 -0.290174 -2.462280 -0.737470 -0.226730 4.921123 -6.193764 3.175164 -6.586128 0.312067 2.582049 -2.106195 -5.896275 0.606150 -0.155091 -3.064276 3.819445 -9.392400 1.772730 -4.904318 0.308065 4.662842 0.717603 2.257803 -2.176976 1.526205 2.724108 0.474970 -2.598344 4.162507 -1.458234 -3.198060 1.534865 2.804716 3.159178 0.897043 -2.229902 -5.664581 0.848670 2.679992 0.579094 0.122872 0.056016 -2.536488 -3.326126 4.027761 -1.471372 1.935989 -1.917252 1.878415 0.585204 -2.424201 1.858684 3.119714 -4.178234 -1.166486 -2.787677 1.577919 0.394653 -0.018653 -5.114869 0.922873 2.697873 -1.992226 -0.702712 4.814957 1.295061 -7.307668 0.418427 -2.465075 6.563386 1.852960 -4.684742 1.238834 2.910518 0.717615 0.242040 5.255363 -5.952682 3.395710 1.266156 -2.200367 -2.997370 4.305047 1.312138 -2.139566 -0.437949 -2.551773 1.778747 3.101834 -4.179200 -1.175663 2.284281 0.578055 2.686895 3.439158 1.133312 -1.982389 -2.863804 1.885024 -6.962503 3.000334 0.982688 2.659803 -4.187756 1.331562 0.491452 0.059411 0.072613 2.601932 -4.257767 -1.237001 2.255197 0.567684 5.223325 -3.409822 -0.929946 -0.048295 -2.556544 4.348997 3.905870 -1.340419 -2.690357 -0.545401 -0.050548 -2.504742 6.945843 -2.899175 1.719926 0.841116 0.348113 2.879243 1.110186 -7.031241 0.739246 0.447260 0.102461 5.256568 -3.348625 4.241255 -0.930884 -2.687813 2.057926 -1.743223 -2.960426 4.384245 3.934652 -1.293101 -2.639328 -3.048182 4.283287 -1.200284 2.205271 0.884330 -2.178580 -0.466285 5.089081 -0.939342 -5.234379 1.227371 -4.646522 1.034204 7.940529 -0.292469 -0.033535 -4.807645 1.170306 2.949907 0.808654 -4.762037 1.225837 2.952508 0.782556 -4.787506 -1.342701 2.144344 0.476418 2.592421 -4.289694 -1.316721 4.696984 -1.300351 -0.482849 -2.615734 -3.427722 -1.156974 -5.675438 3.024738 0.556614 -7.953598 -2.707797 3.829233 2.990335 0.343137 -0.233653 2.171352 0.342085 -2.717467 19.331352 5.704435 1.728873 -1.221973 -4.858730 -3.486379 -3.208018 1.750316 -1.902238 2.022173 0.759940 -2.258881 4.556849 -6.122895 3.279954 1.188997 0.279291 -2.286822 -0.572574 2.438484 -1.817871 -3.070145 1.685591 2.975920 -1.758251 -0.511290 2.440919 -4.416675 1.161162 0.350963 -5.179883 0.884842 5.187298 -6.381229 5.539114 -0.919731 -0.607507 -0.191170 9.939813 7.968045 -0.106953 2.955270 -1.137181 -5.061191 3.992307 -6.140736 5.889089 -0.458955 -2.652237 -0.473964 -2.556105 -0.756287 -2.757347 -8.571918 4.868042 1.145269 -0.170001 2.330533 -7.157450 7.739427 -0.413563 -0.552706 -2.718435 1.503789 2.756653 0.547412 5.103945 -3.601245 1.392646 0.496151 -5.076506 -4.110115 1.172875 -7.633126 -0.180271 -5.520429 5.257131 3.561125 -2.148625 4.092867 0.910056 -5.217919 0.756975 2.464286 2.814359 3.111838 -1.771634 1.912086 3.076425 -6.826889 3.005221 -1.647566 -0.790717 -2.843782 1.465122 5.293036 -3.761614 1.275614 -2.174089 -0.913692 -2.968197 -1.178299 -0.663521 4.476838 -4.107406 3.498399 -1.689740 -0.920050 -3.032376 -1.285867 4.298216 3.366956 0.622877 2.551291 3.177106 -1.718348 