0.037595 1.038620 0.055070 0.063548 0.402586 1.733653 -0.977138 -0.101950 1.982601 -0.554521 0.589102 0.941283 -0.152952 -0.994794 0.390522 -0.565257 1.497725 -0.394650 0.795485 -0.756469 -0.405351 0.717471 -0.008339 -3.162514 -2.427757 -1.512118 -2.076773 -3.428953 -0.949649 1.097147 -0.523599 0.823568 0.457826 0.204796 -0.078596 0.715587 0.821363 1.763394 -0.756849 -0.008708 -0.924016 0.252742 0.503499 1.168491 0.324398 -1.144200 1.181354 -0.661186 0.900130 -1.750032 1.716748 -0.740281 -0.063611 1.379341 1.821228 0.292445 -2.079346 -0.671111 0.947799 -2.296377 -3.832495 -2.387693 -0.684879 -0.327052 -2.794405 -1.365286 1.315253 1.450217 0.620759 2.161861 -0.893795 2.576521 1.052086 1.082875 1.632190 0.662059 1.018668 0.667761 -1.282200 -0.264022 0.825215 0.566622 -0.998064 -0.025972 0.135733 1.003650 -1.214379 -0.675063 1.983962 1.256224 -1.039788 0.851773 1.205763 -1.987680 -1.744739 1.766184 -0.250805 0.649155 -1.332207 -0.651550 -0.441540 0.977370 0.134464 0.532621 -0.007883 1.425733 -0.009495 0.458038 -0.547810 0.632982 1.353826 -0.984579 0.401609 -0.114368 -0.930148 1.221303 -0.124154 -1.386986 0.986414 0.232765 0.133107 -0.411434 -0.597026 -0.344502 1.083968 -1.637354 -1.038090 -0.178665 0.760359 -0.583764 1.422724 0.524067 -0.600228 0.991986 -1.677194 -0.160392 -1.129640 0.638130 0.775791 1.346348 0.457942 0.322978 2.131980 -0.973675 0.791813 -0.829618 -0.459729 0.138155 1.447146 -0.415279 -0.254763 -0.496983 1.091148 -0.301936 0.705292 0.077607 0.102518 0.551843 -1.040115 -0.157027 0.345831 0.680088 0.402084 -1.554277 0.030711 -1.397102 -0.520230 0.024345 1.355056 -0.555275 -0.378528 0.740864 0.412023 -1.230443 -0.356489 -1.581818 1.202161 -0.777372 -1.026715 -0.664980 0.436378 0.609796 0.674179 -1.406448 0.034876 -1.429661 -0.138890 2.071299 -2.021221 0.557463 -1.052932 1.140371 -1.325026 -1.862937 2.081477 0.234727 0.503307 -1.112322 -1.051139 0.179679 1.293456 0.738574 -0.938444 -0.484216 -0.752625 -0.606671 -0.070954 -0.567070 0.541863 -0.632881 -0.439054 -0.803324 0.799286 -0.058492 2.186319 -1.844976 0.248227 -0.763665 1.275139 -0.701118 -0.493338 0.244050 0.559638 1.219937 0.723022 -0.370166 0.290818 1.605517 0.536888 -0.573346 -1.157705 -1.090291 1.568279 0.432231 -1.563699 0.521920 -0.494904 1.931785 -0.263839 0.864670 -0.263007 -0.118472 -0.054325 -0.989120 0.334755 0.196759 0.610619 1.326789 -0.937321 -0.045845 -1.851717 2.068495 0.297185 -1.215219 -0.190778 -0.491886 0.563499 0.669940 0.953476 -0.247169 -1.482014 0.505738 -1.127811 0.585891 2.201037 -0.388867 -0.643442 1.083442 -1.565790 0.283668 -0.290942 -0.577490 -0.870099 0.848072 -0.375747 -0.782544 0.929503 -0.316152 1.142109 -0.685712 -1.285703 0.577840 2.177222 -0.990447 -0.152060 1.016874 -1.176663 0.070772 0.529553 1.808680 -0.278025 -0.539528 0.287283 -0.272652 0.704647 -2.336278 1.871831 -2.043907 1.457332 -0.939399 -0.562998 1.056887 1.089914 -0.673893 0.959047 1.225303 0.309317 -0.270126 -1.438941 -0.365014 0.627989 0.342440 0.696103 -0.380082 0.804844 -0.406280 0.202981 -0.779063 -0.465528 -0.279986 0.252520 1.082977 0.686559 -0.422082 0.743619 0.993260 -0.315156 -2.043112 0.670096 -0.959381 0.198641 -0.823972 0.946357 -0.328201 0.669131 -0.929718 -0.594802 1.015580 -0.361271 0.204961 -0.783128 0.496811 0.260256 -1.295246 0.128030 1.482240 -0.495379 0.105271 -0.298603 0.791546 1.354495 3.192879 1.231405 -0.435092 -0.950589 -0.936054 0.300876 1.528197 0.143497 1.682180 0.375253 -0.998206 -0.537914 -0.247712 1.745410 -0.281408 -0.010979 0.209655 0.717013 -0.452594 -0.234567 0.009352 0.537486 0.378998 0.317349 -0.131361 -0.451970 1.179982 -1.547970 1.389786 -0.427100 -1.613745 0.413280 -0.169505 0.336314 1.558027 0.657076 -0.434107 0.267413 -0.665203 -1.391125 0.016067 0.964913 0.114256 0.082357 0.182521 -0.293554 -1.166149 1.106916 0.701051 -0.991379 1.292398 -0.006412 1.385269 -1.008074 -0.534108 0.198202 -0.856567 -0.578949 1.022705 -1.172918 -0.787709 0.453705 0.276759 0.531983 1.264623 -0.494141 1.110500 -1.129833 -1.171260 -0.767489 0.876036 1.420873 1.331528 1.000875 0.324637 -0.623236 -1.297948 -1.283726 1.026514 -0.322392 0.741160 -0.345714 0.825381 0.076365 0.979568 0.698350 -0.886552 -0.916217 -0.517733 0.135055 0.952497 1.114779 -0.097134 -0.393652 -1.077843 -0.677116 1.384233 -0.079903 -0.931188 0.477769 0.865109 0.491862 0.780419 2.066831 -0.436138 -1.119745 0.843661 0.133714 -0.890823 -0.015442 0.645161 -0.028372 -0.005315 -1.273143 0.681050 -0.037649 1.839627 -1.103195 0.367988 -0.104541 0.406610 -0.214665 0.379252 0.836961 -1.304638 -0.284017 -0.585079 0.559990 -0.633610 0.571546 -0.013312 -0.463116 -0.741708 0.468783 0.283123 -0.808682 0.934749 0.179359 -0.369241 -1.646305 0.405969 1.148065 -0.795319 -0.950680 1.369541 0.391473 -0.351779 0.751578 0.589725 -0.120843 -0.097416 -2.324568 0.390838 1.103259 0.610693 -0.553760 -0.214224 -1.461669 -1.063113 0.147188 1.402008 -0.586369 1.050260 -0.180959 -0.149327 -1.115096 0.188878 1.475082 -0.572205 -0.343659 -0.151291 0.829827 -0.076176 -0.090422 1.412366 -1.436434 -0.938316 -0.133003 -0.135755 0.700163 0.405379 2.201616 -0.458126 0.218677 -0.728400 -0.940404 0.728923 -1.001976 -1.564669 -0.064034 -0.992887 0.619128 1.220131 -1.086427 0.234609 -0.782151 -0.098873 -0.227712 0.260552 0.139195 0.499462 -1.089345 -0.264385 0.252412 0.058442 0.416999 -0.673877 0.534791 -2.050793 0.970613 -0.862262 0.764573 -0.494690 -1.717708 -0.636005 0.872907 -0.047794 -0.634868 0.587643 0.384054 -1.282977 0.513384 -0.141758 0.286756 -0.369176 -1.149190 1.120347 0.144861 -1.383311 -0.429069 -0.246786 0.654139 0.726546 -1.864336 0.721676 0.427092 -1.253384 -1.369960 0.555631 1.212004 -1.301027 0.113206 -0.321293 0.631665 -0.698464 0.457024 0.300821 0.121858 0.040235 0.943846 1.063297 0.175396 -0.303132 -1.054370 -0.205417 0.721945 -0.072241 0.430835 -1.511551 0.018181 -0.515402 -0.425521 1.066028 1.605723 -0.354093 1.209922 -0.984020 -1.563436 -0.590308 0.048012 0.396689 0.182679 -1.191417 0.674932 0.846358 -0.021229 0.425840 -1.042429 -0.632777 -0.952046 1.657621 -0.892955 1.276300 1.368626 -1.888046 0.192872 1.078053 0.657021 -1.084480 -0.543474 -1.618987 -1.150907 0.076288 1.369761 0.360623 0.731940 -1.276053 -1.257228 0.047600 0.833011 0.891576 -1.284325 -0.212154 -1.046635 0.140731 1.347081 -0.576440 0.147183 1.081449 -0.700287 0.400274 -0.665013 1.480227 -0.050368 -0.016556 -0.858749 -0.048073 0.403287 0.637289 0.432092 1.741992 0.270476 -0.236710 -0.064209 0.021377 -0.002574 -0.936020 0.423166 -0.622084 -0.401056 0.215799 0.622995 0.855508 -0.373363 -0.138530 1.356615 -1.015368 1.204711 -1.960035 0.215709 -0.825598 -0.570654 -1.329899 1.442479 1.379230 0.790620 -0.808603 0.085132 0.537660 1.144376 -0.227882 -0.509474 1.664884 0.137482 -1.328004 1.095906 -0.120515 -0.117185 2.254117 0.186665 0.197754 0.701164 -0.315626 -0.655079 -1.309277 0.669266 -0.056385 0.432290 0.376428 1.292894 -0.034682 0.035747 0.143151 1.087197 -0.669441 1.513189 0.182396 0.215772 -1.622323 0.022000 0.992282 -0.346660 -0.144371 0.065820 -0.310396 0.233099 -1.220551 1.607748 0.110675 1.497401 -0.820896 1.010051 -1.602925 0.363465 -0.211770 -0.138464 -0.517312 1.110062 -0.628305 0.035156 -1.312679 1.511356 -0.486603 -1.278944 -1.679816 -0.129395 0.713537 -0.663824 -0.871568 -0.043904 -0.550709 1.331494 1.214431 -0.618397 -0.365241 -1.125618 -0.336194 -0.403617 -1.274844 -0.854325 -0.149010 -0.676424 -1.526605 0.327199 0.097518 1.737210 -1.335798 0.548647 0.784775 -0.567802 -0.026159 -0.510598 1.059761 -0.863387 -1.985837 0.586121 0.276371 1.861944 -1.681368 0.443791 0.306442 -0.397608 -1.301046 -0.371145 1.630231 -0.510229 0.107008 -0.782981 -0.011954 -0.596778 0.456327 -0.189114 1.244466 -1.053157 0.728558 1.403682 -0.064407 0.892412 -1.659457 -1.425232 0.420803 0.197123 1.902367 0.322433 -0.069535 -1.340791 -0.363323 0.169253 0.470234 -0.140435 2.329513 -0.272716 -1.521457 0.976093 -0.726432 -1.010746 -0.200975 1.389365 -0.082092 -0.069371 -1.290430 -0.308526 2.511613 -0.335738 -0.164665 -0.408463 -0.144998 0.262582 0.102711 0.609507 0.437701 0.351318 -0.651907 0.097287 1.017513 0.178633 0.154705 0.217929 -0.222358 0.796245 -1.785086 0.784057 0.999992 -0.278979 -1.531824 0.075372 -0.365927 0.086688 0.035660 0.564450 -1.459616 -0.934762 -0.137241 1.199909 -0.275486 -1.089175 -0.132265 1.263529 1.119235 -1.204159 0.271674 -0.690560 0.382836 0.582072 0.370245 -0.185849 0.367646 -0.203717 0.274021 -0.775663 0.900035 -1.752918 -0.219968 0.296302 -0.346762 1.547370 1.440995 -0.404989 -0.240802 -0.541046 -0.388321 -0.384111 1.113357 -0.204402 -0.589365 0.593263 0.832917 -0.933378 -0.612459 -0.320676 0.198149 -0.000120 -1.408461 0.979249 0.115246 -0.014485 1.334863 -0.489767 -1.234196 -1.283602 1.466239 0.769904 -0.530326 0.698091 -0.380991 -0.765765 -0.133314 -0.096150 -0.120128 -1.513263 -0.943811 0.259265 0.943696 -0.435601 0.652938 -0.907681 -1.550639 -1.100102 1.029582 1.426328 -0.117097 1.405958 -0.852920 0.814923 -0.489263 -0.328052 -0.680848 -0.442242 1.094630 0.622572 -1.424499 0.074799 -0.370102 0.128450 -0.946841 -1.032405 1.193810 -0.717269 -0.060990 0.417909 -0.171205 -0.648098 0.460023 -0.163988 1.192085 -1.107426 -0.668294 0.030088 0.862109 -0.937343 0.300242 2.571979 0.218972 -1.260714 0.241134 0.230658 0.451961 -0.235839 -0.936441 0.846734 0.501237 0.283184 0.667865 0.078485 1.484096 0.032095 -1.285485 0.644826 -0.002052 0.886381 -0.809646 0.558822 0.435213 -0.648419 1.463434 0.077013 -0.334640 0.760683 0.134781 -1.273469 1.513248 -0.776652 -0.489154 1.109047 0.348040 -0.237074 -0.102536 0.550088 -0.579408 0.087446 0.138003 0.135690 0.104143 -0.332814 0.780177 -0.402505 -0.217631 0.375827 -0.170820 0.364041 1.650930 0.222124 -1.163987 -0.152362 -0.016927 1.761630 -0.732446 0.156909 0.722733 0.516673 -0.594600 0.161272 1.168122 0.762752 -0.834175 0.090896 -1.189748 1.536735 1.418872 -0.851655 1.005824 -0.560131 0.166134 -1.316878 1.095123 0.750360 0.951699 -0.181642 -1.792536 0.342333 -0.294562 1.135257 -0.184698 0.500311 -0.945805 1.259671 0.345897 -1.162355 1.186631 1.302623 -1.447165 0.018068 1.088726 -0.677846 0.415220 0.389935 -1.476873 -0.507915 -0.292639 0.711288 -0.554338 0.625136 0.484156 -0.152428 -0.097877 0.884020 0.582982 -0.100988 -0.899277 0.430135 -1.576228 0.315477 0.192859 1.049495 1.589266 0.176316 -0.664923 -0.355214 -0.654452 0.881314 -0.379412 -0.159316 -0.467988 1.128412 1.156029 1.653446 -0.181600 0.061307 -1.206129 -0.751914 -0.504140 1.501055 1.454137 -0.811820 -0.774804 0.103098 0.492889 -0.708551 0.079181 -0.721732 0.944762 -0.797971 0.891919 0.624938 0.902500 0.175392 -1.173814 0.730906 -0.007155 0.440257 1.232541 1.380640 0.534102 -0.922498 -0.882300 -0.059700 0.375409 0.225245 1.160458 -0.937787 -0.039256 0.026245 0.480424 0.287978 0.712188 -0.327423 -1.058861 -0.619907 1.429034 0.402398 0.272724 -0.126005 0.052816 0.026771 -0.014241 0.034944 1.439566 -0.392537 -0.639609 0.139616 0.128272 0.944539 0.160585 -0.217960 -0.504183 0.179209 0.557090 -0.116465 -0.000942 1.008041 -0.671520 0.503383 -0.529802 2.001578 -0.994692 0.814503 1.559738 1.068177 -0.616298 0.676543 -2.103782 -0.427372 2.465731 3.434217 -0.906670 0.649597 -0.571196 -1.237097 0.037080 -1.714933 -1.876455 -0.253318 -0.111239 -2.419536 -0.187020 -0.974247 -0.273679 -0.322490 0.238434 0.121840 -0.459716 -0.763282 0.814870 -0.026528 -0.560350 1.455723 -0.878791 0.304383 1.069932 -0.203814 -0.168044 -1.442465 -0.861718 -0.665195 1.293133 0.307650 -0.703350 0.099112 -0.825820 -0.626098 -0.516658 0.555241 -0.614281 0.025020 -0.427782 -0.314446 0.621306 -0.579323 0.970643 0.594536 -0.976810 -0.635322 0.051376 0.419633 0.140398 0.568021 0.886858 -1.239486 0.579826 -0.080046 -0.540821 0.974001 -1.600189 -0.990820 0.228303 -0.799041 -0.632427 0.921702 -0.290154 0.635033 -0.975539 -0.596253 0.897117 0.471717 0.241459 -1.647354 -0.973940 -1.616479 1.049145 -1.311675 -0.001761 2.260642 0.030211 -0.518719 1.032693 2.058442 -0.199058 -0.585142 2.055733 0.412036 -1.177209 -2.028814 1.096030 0.575106 0.216958 -1.575310 0.066024 1.379254 -0.184333 -1.045178 -0.560057 0.593680 -0.227778 -1.587045 1.752369 0.206145 -0.408644 -2.076840 1.018345 -0.371332 0.017701 2.275323 3.325993 0.343148 1.681886 -2.748371 -0.331654 -0.760308 -2.363622 -1.547581 -0.523034 -0.800171 0.202489 0.549021 0.336533 5.575923 2.649937 -0.458249 -2.296276 -2.119073 -1.049097 -0.548828 0.061521 0.578160 -1.329399 0.095518 0.472838 2.013137 -1.048636 -0.578622 0.206002 1.429037 0.335208 -0.214284 0.047310 -1.722382 -2.048240 0.876904 0.478368 0.207775 -1.168992 -1.955144 -0.399971 0.884917 -1.409034 -0.502171 -0.265700 -0.691447 -0.647914 -0.526505 -0.856185 -2.056692 -0.090916 3.378509 1.946597 1.184081 2.287145 0.266329 -0.337782 1.551954 1.053790 -0.218350 1.333426 -0.283737 0.347777 0.266187 -0.151748 1.339397 -0.863359 -0.401412 1.641939 -2.030494 1.446250 1.461016 -0.744045 -2.678896 -1.544096 -1.846223 -1.450019 -1.055949 -0.237922 -0.212588 -0.237173 0.681777 0.788363 0.408021 -0.694397 -2.704213 1.351399 2.469878 -0.409931 0.660577 -0.720595 -0.432966 0.856425 -0.880493 -0.108768 -0.970018 -1.041047 -0.773747 -0.155549 1.622004 0.495631 0.344513 -0.612913 -1.713308 0.164115 -0.044339 -0.576515 0.497015 -0.082067 -0.525527 1.833440 -0.645794 0.014738 1.818489 -0.595001 -0.864406 -0.075659 0.918844 0.012552 -0.460481 2.095219 -0.424238 -0.725245 1.399946 -1.731818 -1.150818 -0.299511 -1.501652 -1.544199 -0.611006 0.495296 -1.653014 -1.140158 -0.302200 2.352850 1.726861 0.149627 2.484250 1.213871 -1.056721 -0.690050 0.551356 -1.500374 -2.420175 0.761664 0.467151 -0.307714 0.689357 -0.324410 -0.228130 -0.251753 -0.629133 -0.916318 0.244852 -0.337133 -1.198892 0.986731 1.037292 1.468649 1.808802 1.278743 0.917123 -1.601198 -0.484443 -0.762993 1.694834 0.594101 0.487962 0.063541 1.516819 -0.793049 -1.392323 1.027231 -1.098623 1.518183 0.112757 0.241390 0.232318 -1.564846 -0.480632 -1.247197 -0.346851 0.169987 1.911446 -0.981335 -1.010711 0.353841 0.630202 0.266567 -0.277822 -1.362662 0.502804 1.592783 -0.399990 0.234252 0.749345 -0.356032 -0.741488 -0.891262 0.823969 0.001703 -1.810218 2.064564 -0.900898 -1.528943 -1.447825 -0.882134 -1.626342 -0.809611 -1.002570 0.136470 -3.208228 0.067788 1.216350 -1.279783 -0.556061 -0.395444 2.339347 3.411658 0.286808 2.111281 0.584001 1.739595 1.017234 1.625210 -1.037794 -0.976715 -1.378147 0.452258 2.919998 0.541003 0.126535 0.358007 -0.043670 -2.766186 1.828603 0.801767 0.520334 0.447287 -3.934719 1.198248 0.622012 0.768599 0.491929 0.125598 -3.320710 0.502120 2.970112 -0.930547 0.795670 -0.550164 0.263161 0.002854 -0.002099 0.098055 0.093043 1.050110 -1.995585 -2.104363 1.388171 -0.543242 -1.366002 0.076267 0.630836 -0.158967 -1.097884 1.191880 -0.602518 -0.919192 0.303697 0.661829 -0.101116 -0.102880 -0.415853 1.979145 -1.049913 2.494921 0.325958 0.757838 1.006083 0.308531 -0.133278 -1.387303 -1.182418 1.050032 -0.701502 0.929719 0.713288 0.154133 0.604414 -1.334061 -1.198387 -0.326373 -0.220030 1.154020 -0.587420 0.202615 0.642890 0.871243 0.542141 0.405809 1.298506 -0.000422 0.975365 -0.615688 0.622293 -0.873982 -0.483992 -0.683821 0.944667 0.636074 -0.002344 -1.196938 -0.648174 0.492511 0.672981 -1.369112 -0.317112 1.240610 -1.503519 -1.022039 -1.945809 -0.790595 -0.257203 0.137448 1.395553 1.307536 0.864430 1.913778 -0.977040 0.748761 -0.866508 1.245309 -0.144889 -0.051706 0.521942 -0.976194 2.547015 0.252710 1.148045 -1.849911 -0.122095 0.382889 -3.459510 -1.305097 0.059098 -1.390429 -1.553507 -0.108068 0.348654 -1.373259 -0.108369 -0.573385 -0.092144 -1.628202 -0.276685 1.013164 -0.936767 0.135959 0.435219 0.158698 1.673738 -0.851552 1.660256 -0.396065 0.564005 -1.101945 -3.027557 0.213647 -1.018772 0.457655 -2.168205 -0.526464 -0.066557 0.077194 2.024803 1.547852 0.918868 2.285007 0.956451 2.751397 1.216002 1.715645 2.034920 1.801205 0.325617 0.737388 1.053953 0.700422 0.032470 -0.311456 1.262963 -0.081207 -0.478998 -1.575244 -0.039789 -0.098897 -1.077715 -0.248070 -0.147983 0.752243 0.814839 -0.832571 -0.493350 0.576834 -1.500230 1.193096 1.209283 -0.527000 -0.744741 0.557097 -0.035994 0.804020 1.528809 0.757433 0.281649 -0.847467 1.158956 0.555790 1.125535 1.615800 -0.226612 -1.865310 -2.530037 -0.778271 0.141511 -0.613816 -0.497166 0.958506 -0.952187 1.285880 0.935171 1.631719 0.688683 -0.733688 -0.299331 0.271586 -0.296145 0.233280 -0.214950 -0.048541 0.881174 -0.768773 0.893064 0.156157 1.050499 0.689320 -0.820033 -0.860530 0.828105 0.069734 0.446886 -0.523367 -0.192036 0.349019 0.642799 -0.922151 -0.982390 0.350986 0.188687 -1.303947 0.089446 -0.325126 -0.261841 0.202009 -1.206256 0.128764 1.367320 -0.966136 -0.648188 0.530630 -0.115636 0.236418 0.583659 0.001138 0.436079 -1.515350 -0.942441 -0.204919 0.682030 0.346251 0.228347 1.145184 0.750552 1.371882 0.011061 1.010079 -0.625034 0.108012 -0.333759 0.275213 0.218035 -1.161920 -0.193549 0.354427 -1.131161 -2.098530 -2.648409 -1.282802 0.749425 -0.186321 1.162448 0.773692 0.509891 -0.204506 -1.088090 0.602971 -0.196298 0.238721 -0.329658 -1.534837 -0.123024 0.243269 0.483637 -0.236567 0.328892 0.217442 0.951500 0.993472 0.181439 -1.184106 0.628059 0.371276 0.595155 -1.422641 -1.251297 0.121650 -1.404343 0.782636 -0.894872 1.251816 -0.608012 -1.306965 -0.857123 0.249445 1.371614 -0.171164 -1.398512 0.962656 0.996002 -0.424747 -0.763857 -0.830787 -0.110495 -1.145470 0.983988 -2.101282 0.425081 0.655186 -1.019566 0.160804 0.075461 0.488893 -2.087713 1.357440 0.380821 0.118745 0.037124 -0.355380 -0.672754 -1.010112 0.663973 -1.016264 1.537847 0.965787 0.181539 0.130694 -1.216663 0.131211 -0.492796 0.540456 0.766673 0.520488 -0.961854 -1.034463 -0.655334 -1.433812 -1.038674 -2.086537 -0.949590 -1.217498 0.390519 -0.376325 0.978389 -0.364796 0.115030 -0.486994 0.447510 -0.306456 3.718723 1.868079 -1.045904 0.367257 1.236293 2.933743 0.376511 0.923663 0.421281 1.286692 -0.952832 0.834027 -1.092594 -1.947405 0.177776 1.046893 -1.136090 0.661436 -0.734135 -1.766420 -0.749860 2.204261 0.441554 -0.657505 0.673187 -0.803017 -1.507709 -1.057221 -0.214061 -0.238911 -0.697877 -0.420697 -0.288045 1.523593 0.419970 0.248856 0.660676 0.911826 0.549142 -1.016190 0.342169 -0.205021 1.188466 -0.151658 1.801554 1.261824 -0.008457 0.125571 -0.238298 -0.064908 -0.494917 0.229348 -1.559326 -2.728497 0.553807 -1.056857 -2.590800 -1.231713 -0.298814 0.077047 -1.981594 0.538893 0.286264 -1.350949 0.796386 1.352804 -0.583589 -0.498557 1.521614 0.912823 -0.477815 0.628438 -1.305257 -1.792840 1.450082 -0.046310 1.683411 0.190508 1.642383 -1.626463 1.667642 -2.512568 0.618838 -1.417912 -0.914089 -0.159011 0.736883 0.018483 1.296796 0.467931 -0.130625 0.377201 -1.991342 -0.832869 -0.606261 -0.451192 -1.747662 -0.694101 -2.269800 -0.268814 -1.717640 0.988195 -1.785598 0.078181 -0.523041 -0.073819 -0.696028 1.175735 -0.256719 -0.790101 -0.592906 0.402109 0.504318 -1.225503 1.875363 1.580680 0.444325 0.234261 0.682681 0.874866 -1.373755 -2.212945 -0.491696 -1.333366 -0.608747 -1.855521 -0.759651 -1.528517 -0.740673 -0.224933 -1.252369 -0.070763 -2.038347 1.209978 -2.652380 1.686729 0.867335 3.970155 3.305696 -1.922451 -0.597828 -1.755068 -0.859409 0.451508 -0.684073 -2.199756 1.717990 2.381465 0.415117 0.687019 -0.264244 -0.135560 -0.706693 -0.956917 -1.542051 -1.048373 1.512224 1.740966 0.151847 1.987862 0.499296 -2.837631 2.661840 3.963703 -0.236477 0.408900 0.693759 1.965575 1.105063 -1.392994 -0.563994 -1.541422 1.757362 1.985043 1.848793 1.915409 1.561996 1.725900 -0.541013 2.162295 1.172181 -1.272040 0.829940 1.308851 1.040128 -1.440747 2.627716 0.628394 0.998445 0.904811 0.058524 0.309140 0.827911 0.348080 -0.926530 0.582585 0.163648 0.247438 -0.126860 -1.642842 -3.123830 -1.023105 -0.669530 -0.085292 -0.967556 -0.495173 -0.275088 0.631859 0.766368 -0.900025 -0.081068 0.406329 1.541220 3.151720 -0.639639 -0.226060 -1.804874 -2.501632 0.481758 0.627754 0.375187 -1.082440 4.450334 1.035742 2.411913 0.814538 0.808333 -1.187489 -1.621294 0.449041 -0.637711 0.530625 -0.909610 -0.406117 2.047887 -1.408973 0.502157 0.416715 1.273060 0.326073 -1.052992 1.775768 0.257940 0.645098 0.503666 0.073292 0.604741 1.347264 1.449614 -0.301817 -0.426593 0.383069 1.227446 -0.081283 2.373167 0.414624 -0.431352 1.721650 0.392344 0.826363 -0.216441 0.624934 -1.238780 0.689933 -1.209409 -0.656095 0.602644 -0.412989 -1.087511 0.749236 0.154816 0.543811 -2.314045 -1.780604 -1.578969 0.209261 -0.482496 -0.815888 -0.458251 -0.321125 -2.146882 1.638968 0.486172 -0.718213 0.395353 -0.157115 1.153540 -0.356898 0.238274 -0.306011 -0.239148 -1.128767 -0.802160 -0.120453 -1.102521 0.555150 -0.624413 -0.461327 0.966098 0.993978 -0.814347 -0.109508 -0.943094 -1.165901 -1.372924 -0.075533 -1.533807 -1.133470 -3.544912 1.201579 0.030651 -0.715689 -0.583273 0.505650 1.047877 -0.092499 -0.135125 0.319170 -3.084006 0.573554 0.190906 0.383791 -0.371559 -1.113649 -0.740672 -1.609699 0.598204 -1.175383 0.027241 0.371851 0.591438 -0.671052 -0.076045 -0.546859 0.855484 0.400561 -2.083456 0.009127 0.844417 -0.535198 -0.505266 -0.740454 -0.494958 -0.515873 0.897492 -0.871185 -1.537037 -0.573575 -0.486159 -1.448228 -0.655116 -0.041789 -1.553539 -1.191233 0.910363 1.295115 1.046701 -1.207996 -0.275968 -1.192997 -0.549464 -0.126084 0.696841 -0.096398 -1.050395 -0.260254 0.607932 1.554639 -0.958739 -0.595560 -0.818475 -1.557719 -0.769841 0.254204 0.506746 0.189960 0.091369 0.031914 -0.540977 1.796409 -1.219445 0.526561 -0.588516 0.504716 1.104958 0.645562 1.363130 0.445316 -0.538504 -0.784500 1.777264 -0.268403 -0.189934 0.002958 -0.787252 -1.001668 0.671054 0.902212 0.088486 0.125632 -0.240814 -0.584883 1.841324 -0.187539 -2.344780 -0.494616 0.193604 -0.939685 -0.728687 1.003151 1.566027 0.458858 -0.552507 1.600466 -1.229281 -0.843531 -0.974156 -0.128796 -0.630145 1.358257 0.476043 1.232726 -1.415944 -0.366341 0.677660 0.349580 0.636948 0.492751 0.472507 -0.572365 -0.322647 2.103929 -2.284056 0.404344 -0.537607 1.066043 0.589460 0.449396 0.913098 -0.260691 1.288003 0.863363 0.193095 -0.216177 -0.431739 0.274103 1.544581 1.062824 -0.082320 -0.744775 -0.298073 0.293076 0.167686 -1.632610 1.376329 1.433115 0.025553 -0.807609 1.522728 -0.752953 1.282304 -0.439417 -0.566513 0.162482 0.617654 -1.834535 0.668240 -1.270518 0.093224 -0.897987 0.380580 -1.121358 1.517636 0.078457 -0.878880 -0.529819 0.141029 1.372484 0.754910 1.013448 -0.147006 -0.924231 0.771815 -0.920864 -1.087456 -0.237127 0.793246 0.878015 0.521740 0.898725 0.645034 -0.027413 0.450383 0.328399 -1.128773 -2.517876 1.606998 0.504114 0.657073 0.480690 -0.851574 -0.066717 0.769484 1.375236 1.304227 0.499640 0.948952 0.696258 0.037188 -1.738751 -0.104267 -1.387861 -0.480816 1.030857 -1.571838 0.838689 1.014415 0.674737 -0.532834 -1.152310 0.251106 -1.322777 -0.931901 0.284594 -0.282980 -0.262717 -0.204672 0.338871 -1.240937 -0.870651 0.763188 0.836989 -1.401769 -0.892814 0.378842 -0.815003 0.646941 0.379442 -1.105305 0.593955 0.798625 0.435661 -1.172887 1.142394 -0.627490 -0.510554 0.092517 0.539405 -1.074844 1.546109 1.043878 -0.717897 -1.807785 -0.152082 0.294839 -0.924398 -0.153968 0.439115 -0.647884 0.399480 1.154036 -0.182840 -0.608640 -1.252927 0.561297 -0.697480 -0.538833 -0.799289 -0.515748 1.847792 -2.129784 -0.017709 0.432958 0.663761 0.701196 1.813336 1.722994 -0.273304 -0.091189 -1.802229 1.092712 1.049124 0.661230 -0.842260 -1.269553 0.620646 -1.104605 1.038123 -2.502223 0.304590 0.156071 0.923289 0.516240 -0.532173 0.682053 -0.981936 0.697611 2.216318 -0.841464 -0.940285 -1.857359 1.114172 0.952426 -2.212783 -0.385856 -0.609211 -0.038718 0.662895 0.432314 -1.498930 0.396391 -0.673981 -0.105684 -1.551054 1.294154 1.231810 -1.590970 0.831475 -0.781149 -0.568740 -0.988428 0.283644 1.032487 -1.270753 -1.238194 -0.787300 -0.150886 -0.318094 1.065459 2.060895 -1.436856 0.468574 -1.955265 0.943409 0.401978 0.664819 -1.819453 -2.482460 0.682961 1.105902 0.503532 -0.138358 -0.365157 1.128608 -0.812345 -0.603740 0.064377 0.942554 0.963119 0.132606 -0.729796 -0.430812 0.589226 -1.555901 -0.134117 0.845655 0.058216 0.415425 0.306000 0.713551 0.855609 0.097691 0.573808 -1.872501 -0.256772 -0.199580 -1.110595 0.596870 2.690105 0.838236 1.007971 1.293048 0.053161 0.016710 0.066973 0.608315 0.421352 0.368956 1.300058 0.954022 -1.555522 1.431064 -1.695958 -1.054261 0.719070 0.556348 0.824660 -0.308445 -0.418600 0.243176 -0.305731 0.727185 1.892422 -0.495264 0.264422 -0.593833 0.160929 0.521684 -0.529198 0.699859 -0.826632 -0.896831 0.815418 -0.821743 1.305229 -0.488431 -0.189561 0.368749 1.185791 -0.141574 -1.428215 1.062557 -0.214151 -1.115471 0.679315 0.546019 1.705823 1.089577 -0.957663 -1.398622 -1.305396 -0.438720 -0.887868 1.237183 -0.528375 0.612015 -0.501359 1.973144 1.211703 -1.059133 -0.104633 0.475748 0.721642 -0.557395 -1.164250 1.197740 -2.475277 2.468147 0.662190 0.477964 -0.110407 0.541141 -0.064609 -1.979337 -1.199508 -0.309529 0.165802 -0.003711 0.489605 0.379232 1.145144 -0.205687 -1.036423 -0.183702 -0.145424 -0.645903 1.363890 0.915525 0.144272 0.132284 -1.654092 -0.615545 -0.495936 -0.387022 0.143094 -0.813482 -0.040477 0.835110 0.939346 -1.741201 -0.160692 -0.990400 -1.222142 0.437129 -0.221139 0.737397 -0.499217 -0.743869 0.389770 -1.224326 -0.879382 0.278157 1.051862 -1.276500 -0.382706 0.717194 -0.105291 0.245148 -0.757180 0.478194 0.223471 -0.839987 -0.558210 1.474655 -0.024232 -1.007785 -0.583880 -0.332919 0.571702 -0.673786 -0.403437 0.682261 -1.437387 0.378174 0.658320 0.398301 0.192462 -0.283668 -0.129774 -0.155939 -0.600613 0.964344 0.606773 -0.523187 -0.759525 -0.432380 1.048972 -0.362674 0.693862 -0.394523 -0.204696 -1.544338 1.734151 0.146109 -0.414347 0.727994 1.023774 -0.291881 0.234860 1.191651 -0.128472 -0.085200 -0.878627 -0.026913 0.398970 -0.682414 0.066109 0.559698 1.305883 -0.102274 -0.906893 -0.015485 -0.014476 -0.547328 -0.834420 0.909196 -1.725402 -0.242918 2.130508 -0.507382 0.531276 0.418004 -0.097179 -0.635522 -0.887097 1.294045 -2.486928 -0.707993 0.000621 0.838865 1.280837 0.809748 -0.277738 -0.634845 0.031807 0.833623 -0.948983 -0.141729 0.423992 -0.221703 -0.237226 1.221686 0.338624 -0.751277 -0.452638 1.123619 0.166301 0.953815 -0.690000 -1.275665 0.544057 0.272836 0.550159 -0.112470 0.510006 -1.034844 0.214899 -0.348730 1.117186 -0.230650 1.731987 -1.589267 -1.909549 -0.298604 1.098268 -0.380368 -0.742120 0.148151 0.087365 -0.088106 -0.123924 -0.050271 -1.898666 -0.811304 -0.134319 -0.221718 0.187576 0.106288 -1.309091 0.459227 1.126972 -0.312457 2.038907 -0.930556 -1.022512 0.211168 -1.281613 0.889487 -2.272763 -0.482627 -1.771410 1.514921 -1.040291 0.612897 0.874352 -1.784771 -0.311732 0.161869 0.466945 -0.355403 0.240610 -0.280945 1.098282 -0.768265 -0.535086 1.019211 1.981743 0.265903 -0.259862 -0.932920 -1.059611 0.565457 0.257965 -0.774294 0.930123 1.120093 -1.631456 0.301924 0.713146 -0.058917 -1.059604 0.329350 -0.212672 0.664086 -2.373152 1.285515 0.333655 1.959690 0.765993 -0.759352 -1.287907 -1.315779 1.835755 -0.369093 -0.690535 0.605644 -1.376082 -0.995170 0.638590 -1.909159 1.891946 -0.201968 -1.035638 0.200789 1.061699 -1.261543 -0.010273 0.077140 -1.383515 0.824893 1.425139 0.427743 -1.145353 1.231160 0.346443 1.014318 2.042612 -0.849570 -1.818756 0.750951 0.026585 -0.586312 0.585927 1.029671 -0.702426 -0.447676 0.283036 -1.665507 0.712007 -1.372635 0.984811 1.513689 1.004798 0.239361 -2.045780 0.646978 0.320836 1.035381 -1.169639 0.343980 0.776049 -0.956681 0.290065 -0.213997 -2.404320 1.629670 0.110734 0.939226 1.051024 1.302244 -0.954590 -1.999449 -0.279892 0.652779 0.276343 -0.285859 -1.875052 -0.226997 0.660883 -0.654780 -0.020912 -0.875370 1.755099 -1.780747 -1.199835 2.000606 -0.647300 -0.558627 0.099833 1.076154 -0.404483 0.119215 0.619378 0.364418 -1.683545 -0.615374 0.065643 0.833052 -0.041371 -0.913335 0.875834 -0.416694 1.017775 -0.315250 -0.150194 -1.479421 1.796732 1.554734 -1.848097 -1.085457 1.743566 1.026981 0.004233 -0.315771 0.479383 0.738910 -0.065038 -0.441829 0.284636 -0.230968 -1.550625 1.801412 -1.125187 -0.271534 1.248654 -0.046400 -1.453171 -0.451501 0.727659 1.260117 0.281669 -0.147131 0.964484 -0.759638 0.862504 -1.283098 -0.765382 -0.026481 -0.041055 0.390260 -1.152772 0.265603 -1.708628 1.145452 -0.279613 -0.690616 0.943620 0.141929 -0.885116 -0.180612 0.379021 1.069468 -0.335387 -0.624862 0.572013 -2.002758 -0.465489 1.482196 -0.959179 0.220545 -2.596408 -1.182506 -0.051484 1.607780 -0.038143 0.884833 -0.249940 -0.215939 0.656249 -1.997046 -0.410626 0.592123 -0.630525 0.382561 -1.150513 -0.732207 -0.619062 -0.523637 1.379397 0.307528 -0.747634 0.437608 -0.668791 -1.032603 -1.262717 1.459173 2.195871 -1.015024 -0.568793 0.209002 0.506464 -0.365119 1.147608 -0.553536 -0.357573 0.688361 -0.031565 -0.533291 -0.798008 0.017621 -0.983870 0.219679 -0.797404 -0.064040 0.380876 0.208267 1.030601 -0.271824 0.335409 -0.711000 0.001121 2.275595 -0.881142 0.417900 -0.546715 0.185707 0.953139 -0.323287 1.285195 -0.962880 -0.986858 -0.160395 -0.574360 0.964893 0.138011 -2.126706 1.002753 -0.284774 1.112861 -0.275860 -0.507208 0.662973 -0.090174 -0.080739 0.864126 1.095005 -0.674997 1.474385 -1.737444 0.295209 -1.682727 1.257719 1.224131 0.318987 -0.132453 -1.820596 1.681112 -0.441671 0.137921 1.550756 -0.725365 0.033960 0.034716 1.024516 -0.798341 -0.927007 -0.013655 0.898696 1.431564 0.004100 0.624831 -0.414356 -1.172663 0.608245 1.305305 -0.098645 1.388245 -0.330476 -0.133143 -0.096578 -0.025440 -0.018152 2.784996 0.481098 -0.532766 2.618261 0.418083 -0.201583 -2.359325 -0.350634 -1.190197 -0.432137 -1.196599 2.073258 0.413348 1.168815 -1.021364 -0.556177 1.017857 -0.392719 -2.144733 0.057291 -0.385256 0.518795 0.220337 0.671909 -1.411172 1.381619 -0.080060 0.319819 -0.285313 0.340440 0.204994 -1.809187 -0.684391 -0.948346 1.139080 -1.278032 1.022991 1.143655 1.148914 0.687295 -1.836021 0.297753 0.104643 -0.970389 -1.622602 -1.446957 0.895942 -0.098379 1.702300 1.121532 0.328801 1.630700 -0.794678 0.439811 3.063771 1.093215 -0.160209 1.058948 0.928178 1.053815 0.743398 -0.657105 0.251625 -0.169161 1.388777 0.980544 1.289764 0.140729 1.253426 1.460113 -0.318798 0.469229 0.551793 -0.383256 -0.593436 1.685550 -0.140860 0.490501 0.071399 0.279305 0.279937 -0.174340 -0.868515 -2.298809 -1.839473 -0.254020 -1.176065 -0.811630 -1.877744 -1.185443 -0.433786 0.471011 0.629892 0.803287 -0.873224 -1.990620 -1.371549 1.721304 -1.480295 0.775420 -0.396447 -0.274094 -0.365167 1.037052 -1.746125 0.145511 0.059836 -1.477251 1.683006 1.006777 0.130746 0.015834 1.028738 -0.320365 0.594274 -0.524858 -1.244287 -0.370044 -2.149978 -0.538647 -0.938537 -0.684098 -0.565356 -0.447255 0.087784 1.300655 0.274254 -1.285971 0.095471 0.000156 -0.645404 -0.551986 1.510440 0.444055 -1.208749 -0.278926 -0.164184 0.212324 -1.879070 1.140828 -1.157330 -1.319623 0.466969 1.182247 -0.772989 -1.509369 0.986186 -1.344080 0.321667 0.129639 1.023755 0.095645 0.500737 0.355766 0.171344 -1.324466 0.062664 -0.922574 -1.153432 -1.286679 -0.407207 0.088604 -1.499072 0.841752 -0.932461 0.679411 0.295320 1.062752 -0.325410 -0.726410 -0.007316 0.342568 -2.245335 -0.588441 0.992538 0.485464 1.548851 -0.368431 0.320785 0.146567 0.024994 0.401740 0.233138 -0.746397 0.446993 0.285365 1.542148 0.502684 -0.057374 0.531175 -0.085609 -0.529436 -0.809518 0.941688 -0.338412 0.242138 -1.173497 -0.215405 -0.171727 -1.112485 -1.203562 -0.317525 1.621994 -0.951720 0.315684 0.276051 -1.236297 0.490972 -0.199392 0.322104 -0.336905 -0.176134 0.816615 -2.347864 0.808022 1.880779 -1.657182 -1.108915 0.331839 -0.276207 0.032046 0.940696 -0.709623 0.436475 0.264641 -0.783286 0.825059 -0.875471 0.369188 -1.223383 -0.313788 0.670461 0.813595 -0.445917 -1.203701 0.690885 -0.122063 -0.684497 -0.000740 0.507384 0.256553 -0.385003 -0.218541 0.783178 -0.042610 -1.016229 0.295973 -0.750107 0.354707 0.613166 -1.005051 0.741024 -0.477206 0.124885 -0.947398 0.323008 0.161118 -0.922825 -0.144658 -0.119276 0.322478 0.561182 0.348433 0.231725 -0.798408 -0.524496 0.068461 0.423649 0.201252 -2.205927 -0.910852 0.284084 0.000863 0.306446 0.684665 -0.908756 -0.650596 -0.014471 1.295077 0.229413 -0.323516 0.820609 -0.404730 -0.338837 0.676213 -0.479861 0.129383 0.088027 -1.306306 1.932624 -0.184781 0.357771 -0.205738 -1.423713 -0.465034 -0.855081 0.825227 0.920291 0.161491 0.182484 -1.219510 0.631728 0.787922 0.937773 -1.230561 -0.183121 -0.510876 -0.883615 -1.112975 0.696473 1.848677 0.663873 0.972852 -1.090871 0.788224 -0.480493 0.129007 0.575770 -0.952678 0.399450 0.278197 1.154694 -1.140902 -1.097273 -0.141878 0.795895 -1.455623 -0.448801 0.292306 -0.316697 0.160511 0.114393 -1.282352 0.067553 -0.458641 0.105589 1.390054 -0.970899 0.809145 -1.352281 0.533766 1.173900 -1.160960 -1.190562 -1.199043 0.140744 0.803913 -0.043001 -0.916965 0.858723 -0.898429 -0.717641 -0.070573 0.867314 -1.898875 1.999677 0.358882 -0.790758 0.373725 0.760489 0.418934 0.607028 -2.331077 -0.058198 0.346204 0.090147 0.418246 0.799516 -0.826228 -1.065501 1.167015 0.193856 -1.398330 0.059544 -0.841350 0.263817 0.949609 -0.804756 0.876065 1.016136 -1.245291 0.996082 -0.750178 -0.042151 0.331375 1.161378 0.253270 -0.319206 -0.113005 0.383163 -0.763174 -0.532932 -0.788695 0.405735 0.171114 -0.876287 -1.019494 0.268824 0.540389 -0.265292 1.684138 -0.279505 -2.061158 -0.885387 -0.149415 0.171550 1.811492 0.753267 0.086212 -1.312160 -0.823922 -1.115433 0.990460 0.083159 1.453047 -0.411978 1.201673 0.772083 -0.469956 -0.277371 -1.062696 -0.661597 1.361422 1.324456 -0.528414 0.719509 -0.324942 -1.158578 0.129646 -0.823910 -0.068579 -0.070241 0.011006 -0.468802 1.097399 0.250556 -0.325878 0.769410 -1.325264 -0.866404 0.338737 -0.737797 1.788107 0.211175 -0.710822 -0.428430 0.225735 -1.343495 1.838138 -2.067175 0.564790 -1.065048 0.238632 0.509829 0.737814 1.453677 -0.947240 0.418174 -0.202559 0.302126 -0.343208 -0.656268 1.038547 -1.244768 -0.810458 1.819018 -0.248950 -0.226259 0.373766 -1.526929 -1.545457 0.799304 0.467340 -0.767258 0.470042 -0.067456 -0.592922 2.792112 -1.021289 0.294812 -0.231073 0.858273 -1.440113 -0.016639 -0.391022 2.505823 -0.318697 -0.141141 0.057915 1.020550 0.116170 -0.879635 -0.412540 0.722466 0.895552 -1.318338 -0.257935 0.877665 0.528995 -0.652563 0.632502 -0.402571 2.072336 0.863357 -0.270865 -0.021407 -1.284506 1.081604 -0.303462 1.287114 -0.475324 1.257779 -0.503228 0.668357 0.040726 1.510426 0.125481 0.191842 -1.115345 -0.145258 -1.000483 -1.120870 0.258270 -1.216237 0.638499 -0.065109 0.933704 -1.292395 1.561072 1.026090 0.149627 0.143310 1.159405 0.333705 -0.759715 -0.849398 -0.461082 1.076931 -2.651414 -0.240268 2.248037 0.919154 -1.366037 0.695730 -0.324499 1.050267 0.114950 0.189827 -0.731746 0.035129 -0.438845 -0.336158 0.258357 1.595571 0.571897 -0.997070 -1.460171 -1.364127 0.416887 0.578500 0.816470 -1.272482 -0.709770 0.473793 -1.244881 0.963908 1.087817 -1.138917 -1.687060 0.369986 0.158158 -1.055289 0.723352 0.547425 -0.643679 -1.422377 0.059259 0.897533 0.882554 -0.385425 -1.080070 1.233252 -1.188232 1.009278 1.585259 -0.324083 0.282068 -0.205366 -1.015052 0.656361 -0.518909 -0.314338 0.270301 0.699838 -0.982313 -0.636913 -0.351652 0.189909 1.901142 1.215669 -0.065719 -0.395300 -0.626712 0.016450 -0.089416 -1.932053 0.690902 0.453191 -0.240285 0.278377 -1.142220 1.157896 -0.303150 0.257901 0.637712 0.924822 0.131420 0.561566 -0.962837 1.748716 -0.297318 -1.577709 1.406590 1.433992 -0.531075 -0.317362 0.492637 -1.072518 0.620450 -0.024866 1.458981 -0.929765 1.389169 0.508962 0.344906 0.744583 -0.346700 0.825340 0.560255 -0.478974 -0.224007 0.442423 1.289147 1.313311 -0.895666 1.512536 0.641708 -0.468467 0.722997 0.191075 0.716793 -0.885305 -1.314272 0.218197 -0.774254 0.922628 -1.695031 0.941023 -1.220426 0.641155 -0.054831 0.478279 -0.570706 0.620487 -0.940406 -0.615731 0.099456 0.066467 -1.858241 -0.236629 -0.582153 -0.470288 -0.399789 1.633210 -0.845606 1.299006 0.410288 -1.600512 0.816809 1.935832 0.275031 1.095513 -0.959598 -0.487597 1.041425 0.655591 1.850753 -0.569515 -2.485387 -1.499213 -0.525901 -0.032271 1.280384 0.003502 -1.276318 -1.236446 -0.822176 0.717164 -0.161953 -0.562726 1.110034 -0.693604 -0.057464 -0.092613 -0.056680 -0.115694 -0.114125 0.408820 -0.256812 -0.655581 2.386206 -2.258044 0.877803 1.056375 1.158523 1.600229 -1.683319 0.524628 -0.630597 0.029849 0.420090 -0.602548 -0.300118 -0.188968 0.835300 0.474608 -2.028235 0.657086 1.366283 -0.157805 -0.145003 -0.412562 0.264134 -0.430657 0.162247 -0.815409 0.885682 0.544435 -0.148491 -1.019589 0.326481 -0.297941 -1.251840 1.518290 -0.905632 -1.103064 1.131822 -0.685877 1.307459 -1.106731 0.310613 -0.337745 -1.699830 -0.696631 0.861739 -0.485650 -1.387777 -0.403511 1.104525 0.491090 -0.758015 -0.443620 -0.294465 -0.822609 -1.646505 1.206554 0.193619 -1.428815 0.913567 0.573351 -1.671818 1.128066 0.732445 0.362186 -0.357590 -0.620287 -0.422121 0.508973 -2.114670 0.468439 -0.677276 0.414715 -1.747452 0.267480 0.582385 0.211740 -0.881133 -1.504641 -1.929905 0.441455 1.008688 1.435229 -0.496385 0.248570 -0.783851 0.291087 -0.901972 -1.584909 0.365680 1.557704 -1.469630 0.418292 -0.600410 0.015984 -0.179032 1.252935 -0.149892 -0.612232 0.582804 -0.133554 -0.183913 -0.639197 0.093630 -0.470358 -0.851276 -0.581099 -0.428350 -1.783050 1.565308 -0.023397 0.831373 0.025658 0.065986 -1.422938 -1.030267 -1.677120 0.170600 0.894897 0.466747 0.747745 0.032407 -0.461410 -0.405373 -1.759842 -0.293235 0.157344 0.462086 -0.264076 -0.640565 0.983700 0.033060 -0.561565 -0.870536 1.786907 -0.378673 -0.817456 0.920737 -1.278414 -0.003927 0.368903 -0.697759 -0.068928 -1.013717 1.216159 -0.294997 -0.237169 0.791214 1.442078 0.875329 1.023033 1.729411 -0.222086 -1.495626 -0.872214 0.407369 -0.302741 -0.211326 -0.469294 -1.149222 0.640376 3.643376 0.920504 -0.236581 0.595164 -0.388220 -1.282942 0.083898 1.580270 -0.837463 1.892245 -0.943897 -0.025359 -0.010427 0.997574 -0.744497 -0.893215 0.996126 -0.292257 0.726220 0.526415 2.359843 0.160652 -0.251649 -2.800892 -1.723090 -1.191053 0.483211 -1.173410 -0.243437 0.864298 -0.911185 0.716001 0.414438 0.263763 -1.313507 0.579054 0.343082 -0.376387 0.663560 0.469256 0.298406 0.143496 0.604711 0.392999 0.705513 0.025152 -1.335130 -1.289983 0.560831 -0.201772 -0.209514 0.386922 0.793081 1.879979 -0.220812 -0.511795 0.224560 -0.789052 -0.584598 -0.394710 -1.613361 -0.137979 0.329061 1.568049 0.483621 1.328958 -1.857287 0.713580 -0.989652 0.229165 0.569300 -0.992101 -1.043569 1.197020 -0.188435 -0.693718 0.068008 -0.345118 0.167397 0.031539 -1.354023 0.529920 1.243444 1.215862 -2.052740 0.692765 -0.445094 1.458081 0.374703 -1.531108 0.076189 -0.434135 -0.353457 1.538513 -0.832459 -1.421140 1.448843 0.450995 1.102200 -0.219855 -1.360994 -1.328072 0.461840 -0.755571 1.757190 -1.172001 -0.672406 0.492940 0.716389 0.341882 -1.686393 -0.489779 -0.839927 1.650747 -0.952812 -0.130732 1.382645 -0.082491 -0.616951 0.523295 0.858636 0.445674 -0.671848 -0.799482 0.430503 1.119745 -0.288576 -0.140015 -0.451816 0.182282 0.020257 -2.367610 0.847894 0.508682 1.646953 -0.397985 0.359268 0.788096 -0.966771 0.286926 0.198125 -0.300672 -0.691205 -0.390465 0.236347 -0.392729 0.677419 0.467201 -1.078523 0.261323 -1.225767 0.579743 0.759963 -0.902226 0.395393 0.766686 0.031722 0.897548 -1.219678 1.645136 0.101149 -0.374508 0.284289 -0.185783 0.851066 0.520744 0.451563 0.384374 -0.586914 -1.233175 -1.235228 2.030708 -0.616079 -0.364060 1.327046 0.034672 0.448255 0.783261 0.667515 0.464545 1.325444 -0.880061 -0.001786 0.101636 0.138322 1.049036 -0.625550 0.236647 -0.226258 1.342512 -0.519929 0.703550 -1.742734 1.787988 0.230791 0.182445 0.708846 -0.314559 1.307129 -1.498402 0.110534 0.135202 1.078961 1.188643 -0.059475 0.638993 0.048904 -1.298256 0.139285 1.569630 0.114201 -0.327760 -0.944057 -0.006292 -1.474602 -0.043280 0.946315 1.572350 0.107703 -1.213862 1.241992 -0.636225 0.455062 -0.629483 -0.277805 -1.106920 0.663980 0.884072 -0.414538 1.201106 -1.493642 0.941166 -0.871743 -0.566705 1.011857 0.643894 -1.457741 0.000687 -1.336335 -0.029533 -1.110500 -0.272327 1.185652 1.149118 1.178804 0.303412 2.167087 1.390409 -1.451877 -0.373026 1.267044 -1.110005 1.085972 -1.518729 1.030739 -0.325763 0.276054 -0.262499 -0.603373 1.072252 -0.770573 1.407608 -0.955862 -0.543601 1.530334 -0.911281 0.809478 -0.868249 -2.329357 0.782408 0.894308 0.026667 -1.429629 0.663353 -0.526817 0.421985 0.691129 0.966571 -0.768207 0.472278 0.352268 -0.766855 0.418242 0.785707 0.064457 -0.438275 -0.186909 0.861601 -0.441527 0.669331 -1.370487 0.119982 -0.414381 -0.294840 -0.211062 1.758374 -2.129738 -0.901347 0.403672 1.134893 -0.370511 1.679421 -0.630167 -1.348692 0.045940 1.416933 -0.129059 2.249121 1.158864 -0.556728 0.165346 0.204037 -0.333487 1.149350 0.392400 -0.573864 0.185398 -0.245285 -2.029715 -1.324806 -1.287800 0.037144 -1.522291 -0.527129 -0.350635 -0.324593 0.122884 -0.959296 0.272009 -1.355893 0.898203 -0.973185 1.623770 1.428083 -1.009054 0.764365 -3.279358 0.648001 -0.758188 -0.604905 1.391690 0.883642 0.567599 -0.658209 -0.349999 -1.244735 -1.418460 -1.018070 0.649453 0.767785 0.407744 -0.661840 -0.403969 0.600744 -1.184572 -0.393084 -1.225433 0.574608 1.157874 -0.288199 0.293237 0.213794 -0.353568 -0.821006 -1.507143 -1.478264 0.329017 1.013750 -0.394708 0.685090 -0.447707 0.132159 -0.991525 -0.697107 -2.400500 0.698956 0.789782 -0.583531 0.053867 -0.393603 1.567325 -0.135517 -0.122611 -0.528943 -0.825390 -0.636827 -0.547823 -0.894158 1.212048 -0.233435 0.258251 1.542818 -0.426912 -1.276284 0.555990 0.339147 0.999854 -0.817325 -2.763994 0.572945 0.216873 0.411265 1.592237 -0.718452 -1.828944 0.161901 0.965704 1.357438 -1.536114 0.596387 1.842849 2.005375 -0.189069 -0.425892 0.863004 -1.371177 -0.958054 0.820101 0.109220 0.497585 -0.089704 -0.859190 1.320531 -2.010987 1.999592 -0.126080 -0.491810 0.171831 0.652697 0.896583 0.036308 -1.240831 -0.714267 0.943752 0.059719 0.948701 -3.042381 0.995048 0.124298 -0.506061 1.034665 -0.158255 -0.491183 -0.858458 -0.973156 0.710095 0.824686 -1.348807 -0.350467 -0.169370 1.221846 0.165156 0.608135 0.494730 -1.532794 -0.528955 0.084125 -0.010942 1.313491 0.424646 0.366765 0.265135 -0.727244 3.754014 -1.374568 0.617563 -1.344668 0.675515 0.329292 -0.776408 0.113909 0.600209 -1.918928 0.604397 1.368335 -0.072373 -0.071254 -0.841086 0.013314 0.353787 -2.165834 0.509046 -0.609885 1.908640 0.660908 0.028556 -0.819777 1.849751 0.210927 0.522133 -0.504474 0.287682 0.189185 -0.864771 -0.510909 1.583245 -1.325753 -0.868798 -0.491311 1.585924 -0.535205 -0.362454 0.375598 0.255094 -0.866553 0.350859 -0.190107 -0.165472 0.797287 -0.403591 2.103071 -1.004248 -0.104712 1.376290 0.434231 0.254764 -1.184963 0.356992 0.195788 -0.862838 -0.992862 1.319759 -0.083657 -1.052106 1.750423 -0.671079 0.001943 1.408757 0.077026 0.514348 -0.560807 -0.211000 -0.629291 0.527862 0.359518 -1.632125 