0.00000000000000003742 0.00000000000000005443 0.00000000000000003402 
-0.00000000000000005366 0.00000000000000016328 0.00000000000000006119 
-0.00000000000000010752 0.00000000000000005443 0.00000000000000012242 
0.00000000000000003008 0.00000000000000000000 0.00000000000000015640 
0.00000000000000002751 0.00000000000000005443 0.00000000000000004074 
0.00000000000000008909 0.00000000000000016328 0.00000000000000008833 
-0.00000000000000002319 0.00000000000000000000 0.00000000000000008152 
0.00000000000000013600 0.00000000000000005443 0.00000000000000014277 
-0.00000000000000013209 -0.00000000000000005443 -0.00000000000000000047 
-0.00000000000000002069 0.00000000000000021770 0.00000000000000004762 
0.00000000000000013714 0.00000000000000021770 0.00000000000000007830 
0.00000000000000000049 0.00000000000000021770 0.00000000000000017029 
0.00000000000000010037 0.00000000000000005443 0.00000000000000011929 
-0.00000000000000004697 0.00000000000000005443 0.00000000000000000680 
0.00000000000000005035 -0.00000000000000005443 0.00000000000000006803 
0.00000000000000007143 0.00000000000000016328 0.00000000000000006724 
0.00000000000000000676 0.00000000000000005443 0.00000000000000004040 
0.00000000000000001401 0.00000000000000010885 0.00000000000000017330 
-0.00000000000000005461 0.00000000000000005443 0.00000000000000006790 
0.00000000000000000787 0.00000000000000010885 0.00000000000000004700 
-0.00000000000000001933 0.00000000000000000000 0.00000000000000003342 
0.00000000000000009513 0.00000000000000016328 0.00000000000000016339 
0.00000000000000013749 0.00000000000000010885 0.00000000000000000444 
0.00000000000000008638 0.00000000000000016328 0.00000000000000015112 
-0.00000000000000000961 0.00000000000000000000 0.00000000000000010295 
0.00000000000000011746 0.00000000000000016328 0.00000000000000000315 
0.00000000000000015936 0.00000000000000005443 0.00000000000000007048 
0.00000000000000003912 0.00000000000000000000 0.00000000000000012196 
0.00000000000000001137 0.00000000000000016328 0.00000000000000004284 
0.00000000000000002373 0.00000000000000016328 0.00000000000000006717 
-0.00000000000000011286 0.00000000000000005443 0.00000000000000012034 
-0.00000000000000003630 0.00000000000000005443 0.00000000000000010341 
-0.00000000000000000677 0.00000000000000010885 0.00000000000000014441 
0.00000000000000000741 0.00000000000000005443 0.00000000000000002354 
-0.00000000000000008339 0.00000000000000005443 0.00000000000000005296 
-0.00000000000000000423 0.00000000000000010885 0.00000000000000005927 
0.00000000000000002711 -0.00000000000000010885 0.00000000000000007237 
0.00000000000000001447 0.00000000000000005443 0.00000000000000016905 
0.00000000000000006268 0.00000000000000016328 -0.00000000000000002067 
0.00000000000000004241 0.00000000000000010885 0.00000000000000002981 
0.00000000000000000571 0.00000000000000000000 0.00000000000000008927 
0.00000000000000004478 0.00000000000000016328 0.00000000000000000991 
0.00000000000000010284 0.00000000000000010885 0.00000000000000006380 
0.00000000000000009822 0.00000000000000016328 0.00000000000000007506 
-0.00000000000000006486 0.00000000000000000000 0.00000000000000000052 
0.00000000000000003848 0.00000000000000005443 0.00000000000000007049 
-0.00000000000000003398 0.00000000000000000000 0.00000000000000013419 
0.00000000000000008841 0.00000000000000005443 0.00000000000000003952 
0.00000000000000011807 -0.00000000000000005443 0.00000000000000001944 
0.00000000000000012117 0.00000000000000010885 0.00000000000000001121 
-0.00000000000000001908 0.00000000000000005443 0.00000000000000011533 
-0.00000000000000002721 0.00000000000000010885 0.00000000000000000956 
-0.00000000000000004080 0.00000000000000010885 0.00000000000000006357 
0.00000000000000000676 0.00000000000000010885 0.00000000000000009952 
0.00000000000000008160 0.00000000000000027213 -0.00000000000000002125 
0.00000000000000011029 0.00000000000000016328 0.00000000000000006496 
-0.00000000000000000821 0.00000000000000000000 -0.00000000000000010444 
0.00000000000000002339 0.00000000000000016328 -0.00000000000000004512 
0.00000000000000006122 0.00000000000000010885 0.00000000000000004232 
-0.00000000000000005972 0.00000000000000016328 0.00000000000000008387 
-0.00000000000000000523 -0.00000000000000005443 0.00000000000000000091 
0.00000000000000004583 0.00000000000000005443 0.00000000000000000392 
-0.00000000000000004091 0.00000000000000010885 0.00000000000000005645 
0.00000000000000004599 0.00000000000000005443 0.00000000000000004890 
0.00000000000000005087 0.00000000000000005443 0.00000000000000011179 
-0.00000000000000001019 0.00000000000000010885 0.00000000000000004118 
0.00000000000000000172 0.00000000000000000000 0.00000000000000010319 
0.00000000000000007819 0.00000000000000010885 0.00000000000000001702 
0.00000000000000005427 0.00000000000000005443 -0.00000000000000004421 
0.00000000000000006620 0.00000000000000010885 -0.00000000000000000086 
0.00000000000000004946 0.00000000000000010885 0.00000000000000008995 
0.00000000000000001031 0.00000000000000016328 -0.00000000000000000589 
-0.00000000000000010575 -0.00000000000000005443 -0.00000000000000014568 
0.00000000000000002043 0.00000000000000010885 0.00000000000000000074 
0.00000000000000005396 0.00000000000000016328 -0.00000000000000003219 
-0.00000000000000002441 0.00000000000000010885 0.00000000000000006858 
0.00000000000000002721 -0.00000000000000010885 -0.00000000000000000270 
-0.00000000000000006445 0.00000000000000016328 -0.00000000000000003262 
-0.00000000000000002978 0.00000000000000010885 0.00000000000000001150 
-0.00000000000000001223 0.00000000000000010885 0.00000000000000003272 
0.00000000000000008495 0.00000000000000000000 -0.00000000000000000791 
-0.00000000000000004553 0.00000000000000010885 0.00000000000000012971 
-0.00000000000000009709 0.00000000000000000000 0.00000000000000010915 
-0.00000000000000000678 0.00000000000000000000 0.00000000000000001101 
0.00000000000000002382 0.00000000000000010885 -0.00000000000000000679 
-0.00000000000000010103 0.00000000000000016328 0.00000000000000006146 
0.00000000000000001589 -0.00000000000000005443 0.00000000000000002735 
0.00000000000000006121 0.00000000000000016328 0.00000000000000007223 
-0.00000000000000012799 -0.00000000000000010885 -0.00000000000000009444 
0.00000000000000010556 0.00000000000000005443 -0.00000000000000004654 
0.00000000000000006141 0.00000000000000000000 0.00000000000000006380 
-0.00000000000000000339 0.00000000000000000000 0.00000000000000007648 
-0.00000000000000006798 0.00000000000000010885 0.00000000000000007133 
-0.00000000000000009701 0.00000000000000005443 -0.00000000000000000891 
-0.00000000000000006881 0.00000000000000000000 0.00000000000000001538 
-0.00000000000000000914 0.00000000000000005443 0.00000000000000002634 
-0.00000000000000013595 0.00000000000000010885 0.00000000000000012647 
0.00000000000000001040 0.00000000000000005443 0.00000000000000001545 
-0.00000000000000001223 -0.00000000000000005443 0.00000000000000005018 
0.00000000000000005781 0.00000000000000005443 0.00000000000000004205 
-0.00000000000000004219 0.00000000000000010885 0.00000000000000006707 
-0.00000000000000003386 0.00000000000000016328 0.00000000000000003477 
-0.00000000000000008463 0.00000000000000000000 0.00000000000000004161 
-0.00000000000000003385 0.00000000000000010885 -0.00000000000000005503 
-0.00000000000000003656 -0.00000000000000010885 -0.00000000000000005558 
-0.00000000000000009022 0.00000000000000010885 -0.00000000000000008697 
0.00000000000000003889 0.00000000000000010885 0.00000000000000005374 
-0.00000000000000001044 0.00000000000000005443 0.00000000000000000427 
-0.00000000000000004398 0.00000000000000000000 0.00000000000000007790 
-0.00000000000000011816 0.00000000000000000000 -0.00000000000000001925 
0.00000000079589234685 -0.00000000000000005443 0.00000000000000006426 
0.00000006784195348234 0.00000000000000000000 -0.00000000000000007818 
0.00000079362423724149 -0.00000000000000010885 0.00000000000000005386 
0.00000432227515901524 0.00000000000000000000 -0.00000000000000002787 
0.00001563377606704558 0.00000000000000000000 0.00000000000000004297 
0.00004379294148591313 0.00000000000000000000 -0.00000000000000001556 
0.00010298137371311919 -0.00000000000000005443 0.00000000000000009055 
0.00021321509961750494 0.00000000000000016328 -0.00000000000000003466 
0.00040071051517358481 0.00000000000000002721 0.00000000000000001242 
0.00069790225305714926 0.00000000000000000000 -0.00000000000000009644 
0.00114314320420277134 -0.00000000000000005443 -0.00000000000000006225 
0.00178013278439209470 0.00000000000000002721 -0.00000000000000007100 
0.00265712750026110426 0.00000000000000002721 0.00000000000000003932 
0.00382599017572430320 0.00000000000000005443 0.00000000000000001229 
0.00534113258897576243 -0.00000000000000013606 -0.00000000000000008619 
0.00725840207742854508 0.00000000000000002721 0.00000000000000000192 
0.00963395690500004967 0.00000000000000000000 -0.00000000000000001505 
0.01252316860689138729 -0.00000000000000002721 -0.00000000000000002157 
0.01597958268122158174 0.00000000000000000000 0.00000000000000000746 
0.02005396227413120888 0.00000000000000010885 -0.00000000000000009138 
0.02479343317029988891 -0.00000000000000001361 -0.00000000000000007628 
0.03024074262356118634 0.00000000000000000000 -0.00000000000000007133 
0.03643363943921403003 -0.00000000000000002721 -0.00000000000000012513 
0.04340437829345576703 0.00000000000000012246 -0.00000000000000007105 
0.05117934754952135901 0.00000000000000000000 -0.00000000000000002013 
0.05977881678019852929 0.00000000000000006803 -0.00000000000000011004 
0.06921679778932200711 0.00000000000000004082 -0.00000000000000015405 
0.07950101108569172792 0.00000000000000004082 -0.00000000000000007124 
0.09063294844021520247 0.00000000000000004082 0.00000000000000002207 
0.10260802128700988178 0.00000000000000016328 -0.00000000000000011367 
0.11541578424809789682 -0.00000000000000001361 -0.00000000000000007933 
0.12904022290799416206 0.00000000000000017688 -0.00000000000000010205 
0.14346009508155005419 0.00000000000000010205 -0.00000000000000009024 
0.15864931515307087451 0.00000000000000009525 -0.00000000000000012047 
0.17457737156944566626 -0.00000000000000000340 -0.00000000000000008355 
0.19120976820252472139 0.00000000000000011225 -0.00000000000000006285 
0.20850848101935173795 0.00000000000000000000 -0.00000000000000003441 
0.22643242228128090954 0.00000000000000007654 -0.00000000000000002232 
0.24493790530757328372 0.00000000000000005443 -0.00000000000000003889 
0.26397910366326671205 0.00000000000000015222 -0.00000000000000006729 
0.28350849944661943303 -0.00000000000000000319 -0.00000000000000010220 
0.30347731614350437201 0.00000000000000001786 -0.00000000000000003640 
0.32383593227336876508 -0.00000000000000006463 -0.00000000000000012551 
0.34453427276516540578 0.00000000000000007824 -0.00000000000000012498 
0.36552217566588329767 0.00000000000000000000 0.00000000000000000930 
0.38674973239495985533 -0.00000000000000002041 -0.00000000000000006453 
0.40816760031266358100 -0.00000000000000002041 -0.00000000000000001330 
0.42972728686875955040 0.00000000000000018369 -0.00000000000000010975 
0.45138140503980489493 0.00000000000000000680 -0.00000000000000003593 
0.47308390015067597334 0.00000000000000000000 -0.00000000000000006714 
0.49479024851051817135 0.00000000000000011565 0.00000000000000002906 
0.51645762857795640688 0.00000000000000004082 -0.00000000000000007821 
0.53804506560819154171 -0.00000000000000003402 -0.00000000000000007774 
0.55951355092893595433 0.00000000000000003402 -0.00000000000000009290 
0.58082613714654218739 0.00000000000000006803 0.00000000000000000441 
0.60194801070175851798 0.00000000000000015647 0.00000000000000000878 
0.62284654327991706424 0.00000000000000003402 0.00000000000000000033 
0.64349132363652383759 0.00000000000000012926 -0.00000000000000007220 
0.66385417142963298875 -0.00000000000000003402 -0.00000000000000010205 
0.68390913465825298179 0.00000000000000008844 -0.00000000000000011182 
0.70363247212248136719 0.00000000000000002041 0.00000000000000001039 
0.72300258838070230460 0.00000000000000004762 -0.00000000000000017003 
0.74199964078967128867 -0.00000000000000000680 -0.00000000000000013004 
0.76060455777460656002 0.00000000000000009525 -0.00000000000000013451 
0.77879771750232062999 0.00000000000000008164 -0.00000000000000001983 
0.79655760509013717741 0.00000000000000003402 -0.00000000000000006879 
0.81385965186934039473 -0.00000000000000002041 -0.00000000000000003951 
0.83067536989935397695 0.00000000000000021090 -0.00000000000000014850 
0.84697183050690194595 0.00000000000000010885 -0.00000000000000007137 
0.86271149116424250547 0.00000000000000008164 -0.00000000000000006891 
0.87785234576395465567 0.00000000000000013606 -0.00000000000000002955 
0.89234835550530033910 0.00000000000000002721 -0.00000000000000004276 
0.90615010818125341086 0.00000000000000012246 0.00000000000000000235 
0.91920565029280965064 0.00000000000000001361 -0.00000000000000011351 
0.93146143728761288116 -0.00000000000000002721 -0.00000000000000013871 
0.94286335091437900591 0.00000000000000008164 -0.00000000000000006256 
0.95335773813246893482 0.00000000000000010885 -0.00000000000000008088 
0.96289243243771094338 0.00000000000000004082 -0.00000000000000013237 
0.97141774192323948611 0.00000000000000000000 -0.00000000000000005184 
0.97888759721033413719 0.00000000000000004082 -0.00000000000000005509 
0.98526117309885929973 0.00000000000000009525 -0.00000000000000006526 
0.99050480342077174001 0.00000000000000004082 -0.00000000000000008010 
0.99459384719595578250 0.00000000000000000000 -0.00000000000000003877 
0.99751427835831030233 0.00000000000000006803 -0.00000000000000008142 
0.99926387138378092168 0.00000000000000001361 -0.00000000000000009254 
0.99985292730436592379 0.00000000000000002721 -0.00000000000000012380 
0.99930453505631477995 -0.00000000000000002721 -0.00000000000000002377 
0.99765439691701995883 0.00000000000000006123 -0.00000000000000004144 
0.99495026796260943591 0.00000000000000013606 0.00000000000000006123 
0.99125107123465139303 0.00000000000000002041 -0.00000000000000018528 
0.98662575517550488158 0.00000000000000001361 -0.00000000000000016647 
0.98115195986617720347 -0.00000000000000000680 -0.00000000000000013658 
0.97491455522266667888 0.00000000000000012926 0.00000000000000005654 
0.96800410876285725159 0.00000000000000005443 -0.00000000000000017046 
0.96051533374449882263 0.00000000000000001361 -0.00000000000000006284 
0.95254556106442500596 0.00000000000000010205 -0.00000000000000009750 
0.94419327078667503184 0.00000000000000010205 0.00000000000000000827 
0.93555671187630029539 0.00000000000000014287 -0.00000000000000010491 
0.92673263188857002426 0.00000000000000000000 -0.00000000000000006682 
0.91781513214662968636 0.00000000000000010885 -0.00000000000000006116 
0.90889465841573557903 0.00000000000000010885 -0.00000000000000002666 
0.90005713228190142861 0.00000000000000002721 -0.00000000000000018559 
0.89138322436458505837 -0.00000000000000002041 -0.00000000000000008092 
0.88294776710934685937 0.00000000000000012246 -0.00000000000000008735 
0.87481930217282943829 0.00000000000000014967 0.00000000000000004208 
0.86705975527385503732 0.00000000000000000000 -0.00000000000000008012 
0.85972422978009832573 0.00000000000000006123 -0.00000000000000011859 
0.85286090916658452432 -0.00000000000000000680 -0.00000000000000015338 
0.84651105775754398319 0.00000000000000013606 -0.00000000000000003205 
0.84070910878658511312 -0.00000000000000003402 -0.00000000000000009462 
0.83548282872499657348 -0.00000000000000005443 -0.00000000000000002926 
0.83085354698186020261 0.00000000000000004082 -0.00000000000000010362 
0.82683644042513293471 0.00000000000000002721 -0.00000000000000002330 
0.82344086266745186720 0.00000000000000005443 -0.00000000000000000742 
0.82067070866678681895 -0.00000000000000006803 -0.00000000000000002590 
0.81852480587772691312 0.00000000000000003402 -0.00000000000000009608 
0.81699732392625645794 0.00000000000000008164 0.00000000000000003176 
0.81607819554587412991 -0.00000000000000000680 -0.00000000000000011624 
0.81575354228618501828 -0.00000000000000002041 0.00000000000000000616 
0.81600609927073131100 -0.00000000000000000680 -0.00000000000000000539 
0.81681563402592749501 0.00000000000000010205 -0.00000000000000004984 
0.81815935511759474430 0.00000000000000000000 -0.00000000000000003948 
0.82001230700819660591 -0.00000000000000002721 -0.00000000000000009751 
0.82234774818102573946 0.00000000000000000000 -0.00000000000000003833 
0.82513751016371472691 0.00000000000000002721 0.00000000000000005317 
0.82835233562042220878 0.00000000000000002721 -0.00000000000000010836 
0.83196219416908756550 0.00000000000000002041 -0.00000000000000006616 
0.83593657501744900173 0.00000000000000002041 -0.00000000000000011017 
0.84024475590014702231 0.00000000000000006803 -0.00000000000000009221 
0.84485604814085579761 -0.00000000000000010545 -0.00000000000000009249 
0.84974001796022602395 0.00000000000000006803 0.00000000000000001373 
0.85486668440500535038 0.00000000000000005443 -0.00000000000000013408 
0.86020669448884579111 0.00000000000000014287 0.00000000000000000589 
0.86573147631396452084 0.00000000000000003402 -0.00000000000000008081 
0.87141337108800975830 -0.00000000000000001361 0.00000000000000002666 
0.87722574506525485827 0.00000000000000005443 -0.00000000000000009118 
0.88314308252856654757 0.00000000000000006803 -0.00000000000000006848 
0.88914106099075085332 -0.00000000000000000680 -0.00000000000000015601 
0.89519660262588784949 -0.00000000000000001361 -0.00000000000000007256 
0.90128774647196296943 0.00000000000000002721 -0.00000000000000011128 
0.90739297399495133511 0.00000000000000003402 -0.00000000000000002258 
0.91349005402846583657 0.00000000000000003061 -0.00000000000000003987 
0.91955474901779465924 0.00000000000000004762 -0.00000000000000008918 
0.92555963077353187174 -0.00000000000000005102 0.00000000000000002635 
0.93147315151236864672 0.00000000000000007143 -0.00000000000000004970 
0.93725904200156540114 -0.00000000000000001020 -0.00000000000000007872 
0.94287605684149267127 0.00000000000000000340 0.00000000000000005555 
0.94827805211457383283 0.00000000000000007824 -0.00000000000000009832 
0.95341435864530399424 0.00000000000000003742 -0.00000000000000001752 
0.95823040165983752736 0.00000000000000001701 -0.00000000000000004825 
0.96266851211022219648 -0.00000000000000002381 -0.00000000000000004291 
0.96666887431145687160 0.00000000000000007824 -0.00000000000000007804 
0.97017055726285772455 0.00000000000000012586 0.00000000000000000490 
0.97311258189183524880 -0.00000000000000001701 -0.00000000000000007822 
0.97543498273927653486 -0.00000000000000002551 -0.00000000000000009522 
0.97707986320342898878 -0.00000000000000010885 -0.00000000000000009579 
0.97799269808797206771 0.00000000000000007654 0.00000000000000002386 
0.97812412412661631222 0.00000000000000004592 -0.00000000000000019547 
0.97743195514609360064 0.00000000000000000340 -0.00000000000000005735 
0.97588309497692449224 0.00000000000000005102 -0.00000000000000015555 
0.97345514056308224404 0.00000000000000008844 -0.00000000000000002925 
0.97013756206874124377 -0.00000000000000002721 -0.00000000000000018532 
0.96593241453381406547 0.00000000000000000170 0.00000000000000006392 
0.96085458276290625079 -0.00000000000000005613 -0.00000000000000007119 
0.95493159245240410993 0.00000000000000014457 -0.00000000000000001312 
0.94820303991601195825 0.00000000000000003402 0.00000000000000005924 
0.94071970322129794262 0.00000000000000005273 -0.00000000000000006884 
0.93254240151641765166 0.00000000000000006803 -0.00000000000000008947 
0.92374066870098103799 0.00000000000000006463 -0.00000000000000000116 
0.91439130384702027587 -0.00000000000000004592 -0.00000000000000015773 
0.90457685503158946627 0.00000000000000004932 -0.00000000000000015707 
0.89438408635306676508 -0.00000000000000004592 -0.00000000000000016484 
0.88390247050084047586 0.00000000000000006123 -0.00000000000000005188 
0.87322274179126579963 0.00000000000000005698 -0.00000000000000014525 
0.86243553739372358358 -0.00000000000000002721 -0.00000000000000003602 
0.85163014776545375994 0.00000000000000001616 -0.00000000000000009454 
0.84089339122721096231 0.00000000000000009610 -0.00000000000000004173 
0.83030862221664580858 0.00000000000000003061 -0.00000000000000013378 
0.81995487807960332205 0.00000000000000002041 0.00000000000000000001 
0.80990616529492354125 -0.00000000000000003061 -0.00000000000000007446 
0.80023088274593145997 0.00000000000000003912 0.00000000000000002273 
0.79099137700611521495 0.00000000000000007313 -0.00000000000000012873 
0.78224362254212709278 0.00000000000000000255 0.00000000000000000103 
0.77403701819374681747 0.00000000000000007143 -0.00000000000000011554 
0.76641429020544538098 0.00000000000000004762 -0.00000000000000007321 
0.75941149139610841790 0.00000000000000004167 -0.00000000000000011290 
0.75305808570311150163 -0.00000000000000000850 -0.00000000000000006085 
0.74737710726881478873 -0.00000000000000000425 -0.00000000000000010716 
0.74238538340056459131 0.00000000000000006293 -0.00000000000000003433 
0.73809381108316773901 -0.00000000000000004082 -0.00000000000000008410 
0.73450767721431409196 -0.00000000000000000383 -0.00000000000000004199 
0.73162701333221813460 -0.00000000000000001913 -0.00000000000000002612 
0.72944697627932364448 0.00000000000000005060 -0.00000000000000004196 
0.72795824696929567477 0.00000000000000002976 -0.00000000000000009257 
0.72714744017391041986 0.00000000000000005570 0.00000000000000005126 
0.72699751900295794815 0.00000000000000012033 -0.00000000000000009426 
0.72748820849840367675 0.00000000000000018199 -0.00000000000000002717 
0.72859640349153342864 0.00000000000000004635 -0.00000000000000004613 
0.73029656656895292066 0.00000000000000007866 -0.00000000000000001361 
0.73256111265296020019 0.00000000000000011608 -0.00000000000000007417 
0.73536077731875049146 0.00000000000000009695 0.00000000000000004884 
0.73866496654173974257 -0.00000000000000000298 -0.00000000000000012895 
0.74244208609105089014 -0.00000000000000005570 -0.00000000000000006177 
0.74665984925916484283 0.00000000000000001233 -0.00000000000000013273 
0.75128556204316576661 0.00000000000000009142 -0.00000000000000005323 
0.75628638527096347932 0.00000000000000007228 -0.00000000000000010088 
0.76162957349805981977 0.00000000000000009291 -0.00000000000000005539 
0.76728269078898547750 0.00000000000000001722 -0.00000000000000006329 
0.77321380374499815158 0.00000000000000009907 -0.00000000000000012972 
0.77939165234873275523 0.00000000000000005783 -0.00000000000000011657 
0.78578579937012693613 0.00000000000000010354 -0.00000000000000003594 
0.79236675921906474240 0.00000000000000015265 -0.00000000000000007548 
0.79910610724175090702 0.00000000000000010609 0.00000000000000003085 
0.80597657054274796096 -0.00000000000000005570 -0.00000000000000004283 
0.81295210145479845920 0.00000000000000012310 -0.00000000000000005900 
0.82000791812798745628 0.00000000000000006761 -0.00000000000000007660 
0.82712029463005176666 0.00000000000000012416 0.00000000000000000418 
0.83426576861585954870 -0.00000000000000000361 -0.00000000000000013728 
0.84141993483124699615 0.00000000000000000298 -0.00000000000000004908 
0.84855615929415117993 -0.00000000000000003806 -0.00000000000000012433 
0.85564443932301981199 0.00000000000000008695 0.00000000000000005017 
0.86265053830789795164 0.00000000000000004263 -0.00000000000000015815 
0.86953545507102503187 0.00000000000000012033 -0.00000000000000008010 
0.87625523965915053104 0.00000000000000021515 -0.00000000000000003407 
0.88276113547302803575 0.00000000000000028403 -0.00000000000000006601 
0.88900000780288312985 0.00000000000000009843 -0.00000000000000003115 
0.89491500795895606579 0.00000000000000003901 -0.00000000000000004446 
0.90044641779216949562 0.00000000000000008993 -0.00000000000000006401 
0.90553261956543473765 0.00000000000000019060 0.00000000000000006109 
0.91011113937520693451 0.00000000000000004284 -0.00000000000000006038 
0.91411971750352094546 -0.00000000000000004826 -0.00000000000000001182 
0.91749736614926480360 0.00000000000000006038 -0.00000000000000004201 
0.92018544320165540640 0.00000000000000013075 0.00000000000000004339 
0.92212905064997297000 -0.00000000000000005878 -0.00000000000000009535 
0.92327890097438147787 0.00000000000000003508 -0.00000000000000008419 
0.92359333444688573866 -0.00000000000000005166 -0.00000000000000009745 
0.92304018346579730370 0.00000000000000006995 0.00000000000000007741 
0.92159829770690515627 0.00000000000000007670 -0.00000000000000007810 
0.91925863236240923371 -0.00000000000000001945 -0.00000000000000008703 
0.91602486493139423374 0.00000000000000006676 -0.00000000000000006326 
0.91191354964533077876 0.00000000000000001552 0.00000000000000003710 
0.90695384725933803072 -0.00000000000000001212 -0.00000000000000008412 
0.90118688529283408339 -0.00000000000000002509 -0.00000000000000003201 
0.89466481278353626738 0.00000000000000007473 -0.00000000000000007558 
0.88744961653063247908 0.00000000000000007946 0.00000000000000003928 
0.87961176444786970396 0.00000000000000000330 -0.00000000000000006945 
0.87122873741966566641 0.00000000000000009445 -0.00000000000000010179 
0.86238350501962113270 0.00000000000000016838 -0.00000000000000007963 
0.85316299341431112158 0.00000000000000005464 0.00000000000000003283 
0.84365658633009898981 0.00000000000000001488 -0.00000000000000010822 
0.83395469253537179988 0.00000000000000001637 -0.00000000000000003541 
0.82414740618384130233 -0.00000000000000009769 -0.00000000000000011452 
0.81432327977438601074 0.00000000000000016126 0.00000000000000006790 
0.80456822353023516037 -0.00000000000000002259 -0.00000000000000005982 
0.79496453974769665241 -0.00000000000000003019 0.00000000000000000860 
0.78559009613149399787 0.00000000000000005403 -0.00000000000000014287 
0.77651763830834330538 0.00000000000000010704 0.00000000000000003229 
0.76781423855912456222 0.00000000000000002410 -0.00000000000000008429 
0.75954087528493929860 -0.00000000000000003418 -0.00000000000000003326 
0.75175213576682575756 0.00000000000000004744 -0.00000000000000000169 
0.74449603333179847908 0.00000000000000010853 0.00000000000000006218 
0.73781392903685072415 0.00000000000000008533 -0.00000000000000014213 
0.73174054736634774887 0.00000000000000007522 -0.00000000000000007821 
0.72630407514834394167 0.00000000000000010206 -0.00000000000000003974 
0.72152633287709100340 0.00000000000000009655 0.00000000000000003995 
0.71742300783226298222 0.00000000000000006269 -0.00000000000000005768 
0.71400393876487278089 -0.00000000000000000838 0.00000000000000001448 
0.71127344243530321588 -0.00000000000000010740 -0.00000000000000006891 
0.70923067290491792480 0.00000000000000005393 0.00000000000000005927 
0.70787000516881104506 -0.00000000000000004364 -0.00000000000000016635 
0.70718143544728018224 -0.00000000000000000975 -0.00000000000000007203 
0.70715099120555890977 0.00000000000000001584 -0.00000000000000007028 
0.70776114472707973846 0.00000000000000007042 -0.00000000000000011795 
0.70899122481020537823 -0.00000000000000002903 -0.00000000000000011136 
0.71081782188025122160 0.00000000000000008258 -0.00000000000000000182 
0.71321518249857751570 0.00000000000000004148 -0.00000000000000018029 
0.71615558990179151166 0.00000000000000007853 0.00000000000000007511 
0.71960972781186893776 -0.00000000000000001737 -0.00000000000000015676 
0.72354702531915471297 0.00000000000000009342 0.00000000000000008875 
0.72793598115306978880 0.00000000000000007462 -0.00000000000000008594 
0.73274446611940724505 0.00000000000000000908 0.00000000000000002806 
0.73794000289878702858 0.00000000000000002711 -0.00000000000000012500 
0.74349002276936682065 -0.00000000000000005324 -0.00000000000000013769 
0.74936209914005924571 -0.00000000000000001883 0.00000000000000000000 
0.75552415806053696556 0.00000000000000007367 -0.00000000000000002007 
0.76194466611377598131 0.00000000000000010426 -0.00000000000000011610 
0.76859279629857690797 -0.00000000000000002781 -0.00000000000000013523 
0.77543857267632354535 0.00000000000000005184 -0.00000000000000016697 
0.78245299469113760438 0.00000000000000012898 0.00000000000000006440 
0.78960814217854846664 0.00000000000000007799 -0.00000000000000008343 
0.79687726215768117655 -0.00000000000000005458 -0.00000000000000005047 
0.80423483838662634948 -0.00000000000000008291 -0.00000000000000008787 
0.81165661078452466803 0.00000000000000018595 0.00000000000000007803 
0.81911926399448187208 0.00000000000000004956 -0.00000000000000003546 
0.82659952397868430296 0.00000000000000000643 -0.00000000000000005473 
0.83407291161473862129 0.00000000000000005816 -0.00000000000000000432 
0.84151247126958572675 0.00000000000000002761 -0.00000000000000002947 
0.84888767775688456219 -0.00000000000000005228 -0.00000000000000003329 
0.85616363480075552417 0.00000000000000005361 0.00000000000000000220 
0.86330061374256783502 -0.00000000000000003427 -0.00000000000000015480 
0.87025393679930507229 0.00000000000000007841 0.00000000000000003870 
0.87697417995392112910 0.00000000000000001092 -0.00000000000000010883 
0.88340765274078725255 0.00000000000000001115 -0.00000000000000010364 
0.88949710278534954710 0.00000000000000003007 0.00000000000000002094 
0.89518258961362207060 -0.00000000000000002201 -0.00000000000000003239 
0.90040247313375565419 -0.00000000000000003243 -0.00000000000000006186 
0.90509446589993969301 -0.00000000000000002762 0.00000000000000001451 
0.90919670372796546065 -0.00000000000000003551 -0.00000000000000002112 
0.91264879564152856517 -0.00000000000000001886 0.00000000000000011164 
0.91539282090238105472 -0.00000000000000010774 -0.00000000000000005367 
0.91737424759745556102 0.00000000000000005316 0.00000000000000000180 
0.91854275363492909889 0.00000000000000004797 0.00000000000000001185 
0.91885293685251911988 0.00000000000000001747 -0.00000000000000006514 
0.91826490615558864494 -0.00000000000000003534 -0.00000000000000005699 
0.91674475012770217930 -0.00000000000000008369 0.00000000000000007293 
0.91426488338185873950 -0.00000000000000004440 -0.00000000000000005228 
0.91080427406639841159 0.00000000000000007859 0.00000000000000008564 
0.90634855844547179693 -0.00000000000000008903 0.00000000000000001902 
0.90089005039293768018 -0.00000000000000002635 0.00000000000000008068 
0.89442765503105903235 0.00000000000000008174 -0.00000000000000002176 
0.88696669667496119693 0.00000000000000011283 0.00000000000000007427 
0.87851867177431364198 -0.00000000000000001769 -0.00000000000000010984 
0.86910093773676677653 -0.00000000000000011186 -0.00000000000000008532 
0.85873634843148594076 0.00000000000000005815 -0.00000000000000010519 
0.84745284685926369761 0.00000000000000003215 0.00000000000000010769 
0.83528302498670226051 0.00000000000000012102 -0.00000000000000003113 
0.82226366011903639919 -0.00000000000000004677 0.00000000000000000145 
0.80843523646717674325 0.00000000000000004327 -0.00000000000000000266 
0.79384145978215947537 0.00000000000000006415 -0.00000000000000004093 
0.77852877211220861131 -0.00000000000000005610 -0.00000000000000007080 
0.76254587290721198567 -0.00000000000000011467 0.00000000000000011061 
0.74594325187166554691 -0.00000000000000010186 -0.00000000000000005703 
0.72877273816532650574 0.00000000000000008516 0.00000000000000008461 
0.71108706978289126788 0.00000000000000004446 -0.00000000000000008857 
0.69293948621901202412 0.00000000000000007572 -0.00000000000000001136 
0.67438334684936673824 0.00000000000000003080 -0.00000000000000001642 
0.65547177683663460090 0.00000000000000002656 0.00000000000000003251 
0.63625734180458259903 -0.00000000000000003980 -0.00000000000000003509 
0.61679175201499836234 -0.00000000000000011396 0.00000000000000006315 
0.59712559633064443698 -0.00000000000000001348 -0.00000000000000007115 
0.57730810585146230540 0.00000000000000001838 0.00000000000000014706 
0.55738694676884259493 -0.00000000000000002720 -0.00000000000000007768 
0.53740804169127132095 0.00000000000000004443 -0.00000000000000000397 
0.51741541845093586005 0.00000000000000010052 -0.00000000000000005994 
0.49745108520153547005 0.00000000000000008710 0.00000000000000003695 
0.47755493045906638461 -0.00000000000000006074 -0.00000000000000009586 
0.45776464661603144535 -0.00000000000000001975 0.00000000000000000926 
0.43811567537176132614 -0.00000000000000002791 -0.00000000000000000998 
0.41864117346372348161 0.00000000000000001384 0.00000000000000005096 
0.39937199705335690858 0.00000000000000005371 -0.00000000000000007552 
0.38033811155886931843 0.00000000000000001827 -0.00000000000000003568 
0.36156430468601824524 -0.00000000000000002724 -0.00000000000000004364 
0.34307460320542088050 0.00000000000000009483 0.00000000000000000463 
0.32489082436890937000 0.00000000000000002233 -0.00000000000000013663 
0.30703262923616470026 -0.00000000000000003825 0.00000000000000008121 
0.28951758520740850100 -0.00000000000000005617 -0.00000000000000009017 
0.27236123638359460708 0.00000000000000014153 0.00000000000000008012 
0.25557718045333732704 0.00000000000000000038 0.00000000000000007823 
0.23917715088757746100 0.00000000000000000809 -0.00000000000000016833 
0.22317110330727574219 0.00000000000000002793 -0.00000000000000004193 
0.20756730497493419696 0.00000000000000010151 -0.00000000000000001921 
0.19237242644640431544 -0.00000000000000007660 -0.00000000000000007451 
0.17759163450427617459 -0.00000000000000007505 -0.00000000000000001192 
0.16322868557737196804 -0.00000000000000002287 -0.00000000000000011297 
0.14928601893181953075 -0.00000000000000000394 -0.00000000000000006463 
0.13576484899730753564 -0.00000000000000000059 -0.00000000000000004425 
0.12266525626699273377 -0.00000000000000006687 -0.00000000000000004289 
0.10998627628081387997 -0.00000000000000002279 0.00000000000064698401 
0.09772598626938169830 -0.00000000000000003652 0.00000000721421578735 
0.08588158909903538529 -0.00000000000000003277 0.00000020718689043713 
0.07444949421792643185 -0.00000000000000008900 0.00000166748981048415 
0.06342539535809463280 -0.00000000000000007186 0.00000750920347533920 
0.05280434479942337778 0.00000000000000005377 0.00002420548432109748 
0.04258082404814630267 -0.00000000000000000110 0.00006276019468279854 
0.03274881082531219678 -0.00000000000000002904 0.00013962196540027403 
0.02330184229939652810 0.00000000000000003311 0.00027726297502958947 
0.01423307453220998449 0.00000000000000000405 0.00050440346013840801 
0.00553533813856584619 -0.00000000000000008524 0.00085589772161623410 
-0.00279880981203535191 -0.00000000000000003475 0.00137231931715925946 
-0.01077703759895893947 -0.00000000000000004124 0.00209929552601582220 
-0.01840719428512988323 0.00000000000000010596 0.00308664663433904111 
-0.02569726869037021466 0.00000000000000002285 0.00438738614500812710 
-0.03265535179523083170 -0.00000000000000008484 0.00605663523165055669 
-0.03928960245407564500 -0.00000000000000005602 0.00815049983009733837 
-0.04560821628546097434 0.00000000000000006445 0.01072495259308839377 
-0.05161939759930726096 -0.00000000000000004427 0.01383475519205908111 
-0.05733133421383316414 -0.00000000000000006982 0.01753244961421255438 
-0.06275217501049706881 0.00000000000000007782 0.02186744050969896547 
-0.06789001007213474326 -0.00000000000000002356 0.02688518451623236188 
-0.07275285324791103125 0.00000000000000000593 0.03262649696465799026 
-0.07734862698845332285 -0.00000000000000006609 0.03912698152204210911 
-0.08168514929548884029 0.00000000000000000183 0.04641658418417807935 
-0.08577012263229165379 -0.00000000000000011014 0.05451926957809909158 
-0.08961112464414736078 -0.00000000000000004698 0.06345281474437007574 
-0.09321560054173866350 -0.00000000000000006103 0.07322871339009300040 
-0.09659085700471807534 -0.00000000000000002065 0.08385218197858826383 
-0.09974405746767381342 0.00000000000000001108 0.09532225788781739650 
-0.10268221865609396259 0.00000000000000003971 0.10763197916265428156 
-0.10541220824571856385 0.00000000000000002583 0.12076863504329368726 
-0.10794074352474586354 -0.00000000000000007830 0.13471407641353619344 
-0.11027439094465012193 -0.00000000000000004625 0.14944507552284311269 
-0.11241956645181247487 -0.00000000000000010521 0.16493372474415235462 
-0.11438253649869455086 -0.00000000000000004115 0.18114786469004073854 
-0.11616941963984121766 -0.00000000000000004069 0.19805153268280498158 
-0.11778618862453356375 0.00000000000000003662 0.21560542332456816839 
-0.11923867290438713851 -0.00000000000000006973 0.23376735371176046718 
-0.12053256148055233044 -0.00000000000000002288 0.25249272665921534964 
-0.12167340602140291894 0.00000000000000002679 0.27173498612181168355 
-0.12266662418765302001 0.00000000000000003508 0.29144605980932297706 
-0.12351750310771020258 0.00000000000000000064 0.31157678476946248924 
-0.12423233611762596329 -0.00000000000000008738 0.33207731245486349358 
-0.12481523913061857989 -0.00000000000000000935 0.35289749048430579803 
-0.12527084206432856361 0.00000000000000008291 0.37398721895167252871 
-0.12560395001826249461 0.00000000000000013181 0.39529677972460902646 
-0.12581925536213239836 0.00000000000000008589 0.41677713770706115159 
-0.12592134122092751847 0.00000000000000004932 0.43838021351549721905 
-0.12591468485369100572 0.00000000000000001361 0.46005912743853366598 
-0.12580366090691777470 -0.00000000000000000510 0.48176841491558192176 
-0.12559254452704504690 -0.00000000000000001191 0.50346421408439157030 
-0.12528551431979198516 -0.00000000000000001361 0.52510442621288055953 
-0.12488665514712796178 0.00000000000000007824 0.54664885005063257317 
-0.12439996075541043252 0.00000000000000010545 0.56805929131335863858 
-0.12382933623074697527 0.00000000000000000680 0.58929964865307049582 
-0.12317860027989380178 0.00000000000000006123 0.61033597757127078243 
-0.12245148733705253641 0.00000000000000000000 0.63113653380573897511 
-0.12165164949871520861 0.00000000000000005443 0.65167179776696071425 
-0.12078265829031645251 0.00000000000000003402 0.67191448162124756127 
-0.11984715155390589236 -0.00000000000000005443 0.69183952061734177441 
-0.11884889285163813266 0.00000000000000008164 0.71142404757256449965 
-0.11779180300833294592 0.00000000000000010885 0.73064724881762355135 
-0.11667914169434864813 0.00000000000000013606 0.74948973542571839523 
-0.11551409474720540638 0.00000000000000010885 0.76793238130347107884 
-0.11429977506244584640 0.00000000000000002721 0.78595496178871060433 
-0.11303922337184493796 -0.00000000000000002721 0.80353486497570669744 
-0.11173540891902426775 0.00000000000000014967 0.82064603961325799375 
-0.11039123004267374639 -0.00000000000000002721 0.83725826425671923126 
-0.10900951467763624059 0.00000000000000005443 0.85333676655920820409 
-0.10759302078406635106 0.00000000000000002721 0.86884218372085864068 
-0.10614443671474306508 0.00000000000000000000 0.88373083083081382938 
-0.10466638153040436210 0.00000000000000016328 0.89795522968141472386 
-0.10316140527271204508 0.00000000000000002721 0.91146484388411397326 
-0.10163198920410636272 0.00000000000000002721 0.92420696464131746328 
-0.10008054602344471085 0.00000000000000005443 0.93612769367682291399 
-0.09850942006588227218 -0.00000000000000005443 0.94717297433528802042 
-0.09692088749500513134 0.00000000000000016328 0.95728962779410764483 
-0.09531715649472723151 0.00000000000000010885 0.96642637462901348488 
-0.09370036746796653326 0.00000000000000005443 0.97453503086433690417 
-0.09207259324857747229 0.00000000000000005443 0.98157218858542760742 
-0.09043583933249434159 0.00000000000000005443 0.98750119715775130924 
-0.08879204413348558422 -0.00000000000000010885 0.99229410010398133579 
-0.08714307926838828211 0.00000000000000005443 0.99593329727547452723 
-0.08549074987614185828 0.00000000000000000000 0.99841280243666541416 
-0.08383679497441691442 0.00000000000000016328 0.99973903893691762335 
-0.08218288785710241295 0.00000000000000010885 0.99993116698633932593 
-0.08053063653541274458 0.00000000000000010885 0.99902097020321722898 
-0.07888158422487487331 0.00000000000000005443 0.99705235058626406897 
-0.07723720987998392018 0.00000000000000000000 0.99408049309104007385 
-0.07559892877785438781 -0.00000000000000010885 0.99017076609269283338 
-0.07396809315176064437 -0.00000000000000005443 0.98539742418652076505 
-0.07234599287504550613 0.00000000000000000000 0.97984217656068328672 
-0.07073385619548830383 0.00000000000000005443 0.97359267876061927893 
-0.06913285051985257335 0.00000000000000000000 0.96674099895389198345 
-0.06754408324800072194 0.00000000000000000000 0.95938210246927257963 
-0.06596860265564163939 0.00000000000000000000 0.95161239091478611041 
-0.06440739882449210418 -0.00000000000000010885 0.94352832492298621681 
-0.06286140461836103865 -0.00000000000000005443 0.93522515276303475051 
-0.06133149670343756438 0.00000000000000000000 0.92679576084746617681 
-0.05981849661083978725 -0.00000000000000005443 0.91832965663064514139 
-0.05832317183929487669 0.00000000000000000000 0.90991208958095459725 
-0.05684623699565564264 0.00000000000000000000 0.90162331180906696293 
-0.05538835497081508880 0.00000000000000005443 0.89353797652442745747 
-0.05395013814845607547 -0.00000000000000010885 0.88572466972832841758 
-0.05253214964398283254 -0.00000000000000021770 0.87824556838092826538 
-0.05113490457088872704 0.00000000000000000000 0.87115621664144060610 
-0.04975887133176874755 0.00000000000000010885 0.86450541061332220050 
-0.04840447293113393779 0.00000000000000000000 0.85833518126769714485 
-0.04707208830716901743 -0.00000000000000005443 0.85268086480868021670 
-0.04576205367956018982 0.00000000000000010885 0.84757124962742103058 
-0.04447466391053495061 0.00000000000000010885 0.84302878911555778618 
-0.04321017387627361372 0.00000000000000000000 0.83906986992610843590 
-0.04196879984588886697 -0.00000000000000010885 0.83570512573835364911 
-0.04075072086521874110 0.00000000000000010885 0.83293978716574024190 
-0.03955608014273287454 -0.00000000000000010885 0.83077405910974821968 
-0.03838498643492583434 0.00000000000000000000 0.82920351758020127697 
-0.03723751542864209979 -0.00000000000000010885 0.82821951875007504551 
-0.03611371111786906840 0.00000000000000000000 0.82780961377080020114 
-0.03501358717261984776 -0.00000000000000010885 0.82795796362628160114 
-0.03393770135961264589 -0.00000000000000010885 0.82864574903744936396 
-0.03288624122010635337 0.00000000000000000000 0.82985157113397567397 
-0.03185825737448456929 0.00000000000000000000 0.83155183927820242040 
-0.03085365977043025634 -0.00000000000000010885 0.83372114305275868418 
-0.02987233446938955192 0.00000000000000000000 0.83633260600408376728 
-0.02891414493425062751 0.00000000000000000000 0.83935821926687703698 
-0.02797893329499307608 0.00000000000000000000 0.84276915367845084415 
-0.02706652159083953665 0.00000000000000010885 0.84653604942714044679 
-0.02617671298754583459 -0.00000000000000005443 0.85062928266626103291 
-0.02530929296859657854 0.00000000000000000000 0.85501920886619398043 
-0.02446403049917185088 0.00000000000000000000 0.85967638297411230752 
-0.02364067916188261967 0.00000000000000016328 0.86457175670607411266 
-0.02283897826336729608 0.00000000000000000000 0.86967685351245682668 
-0.02205865391096542907 0.00000000000000005443 0.87496392193783145697 
-0.02129942005878084424 -0.00000000000000010885 0.88040606824334954883 
-0.02056097952255908981 -0.00000000000000005443 0.88597736927650316829 
-0.01984302496289817863 0.00000000000000000000 0.89165296666267146453 
-0.01914410667050201950 0.00000000000000000000 0.89740914345735001145 
-0.01846482074208177088 0.00000000000000010885 0.90322337723244339180 
-0.01780512217758786070 0.00000000000000000000 0.90907421410316069377 
-0.01716466817014717511 0.00000000000000000000 0.91494059625344037467 
-0.01654311039656721979 0.00000000000000005443 0.92080070894428778239 
-0.01594009579558390566 0.00000000000000000000 0.92663068890659372467 
-0.01535526731407501483 0.00000000000000000000 0.93240344229880445237 
-0.01478826462141246377 0.00000000000000000000 0.93808771798453083335 
-0.01423872479219904716 0.00000000000000000000 0.94364750792639462418 
-0.01370628295768392367 0.00000000000000000000 0.94904179471246286059 
-0.01319057292622637968 0.00000000000000000000 0.95422463142762248278 
-0.01269122777321426108 0.00000000000000000000 0.95914551710054918310 
-0.01220788040090360800 0.00000000000000000000 0.96375001850260910707 
-0.01174016406868662842 0.00000000000000000000 0.96798058355330929281 
-0.01128771289433764743 0.00000000000000005443 0.97177749097167809289 
-0.01085016232682282054 0.00000000000000000000 0.97507988353771080092 
-0.01042714959129644944 -0.00000000000000005443 0.97782683719606444672 
-0.01001831410693221000 0.00000000000000010885 0.97995842451651604676 
-0.00962329787826722571 0.00000000000000005443 0.98141677162458462735 
-0.00924174586076050714 0.00000000000000000000 0.98214736234555133354 
-0.00887330630128317817 0.00000000000000000000 0.98210083023273453406 
-0.00851763105428077726 0.00000000000000010885 0.98123497514124724539 
-0.00817437587435502176 -0.00000000000000005443 0.97951667745676129773 
-0.00784320068602811435 -0.00000000000000005443 0.97692350243121139908 
-0.00752376983145992828 0.00000000000000005443 0.97344488142503771133 
-0.00721575229689161695 -0.00000000000000010885 0.96908282460960126770 
-0.00691882191859612399 0.00000000000000005443 0.96385216681677843287 
-0.00663265756911371202 0.00000000000000000000 0.95778037954320116576 
-0.00635694332455015269 0.00000000000000000000 0.95090700147253559571 
-0.00609136861371594503 0.00000000000000000000 0.94328275033167985342 
-0.00583562834987254048 0.00000000000000010885 0.93496838286359185144 
-0.00558942304585028499 0.00000000000000005443 0.92603336907439770531 
-0.00535245891329569172 0.00000000000000000000 0.91655444316454404152 
-0.00512444794678795171 0.00000000000000000000 0.90661408780939878316 
-0.00490510799356269275 0.00000000000000010885 0.89629900156528086175 
-0.00469416280956298088 0.00000000000000000000 0.88569859177451315535 
-0.00449134210252552166 0.00000000000000010885 0.87490352788627823166 
-0.00429638156279592894 0.00000000000000000000 0.86400438292093961756 
-0.00410902288255042721 0.00000000000000000000 0.85309038410026527544 
-0.00392901376408841263 0.00000000000000000000 0.84224828757927849843 
-0.00375610791783761088 0.00000000000000000000 0.83156138682019098418 
-0.00359006505070343747 -0.00000000000000005443 0.82110865947205557980 
-0.00343065084536945059 -0.00000000000000005443 0.81096405365502355345 
-0.00327763693114346399 -0.00000000000000010885 0.80119591126555078642 
-0.00313080084692069893 -0.00000000000000010885 0.79186652327305950827 
-0.00298992599681877471 0.00000000000000010885 0.78303180991403997790 
-0.00285480159902092717 -0.00000000000000010885 0.77474111714591464839 
-0.00272522262834201277 0.00000000000000000000 0.76703711963782994498 
-0.00260098975301621769 0.00000000000000000000 0.75995581988729288270 
-0.00248190926618305392 0.00000000000000000000 0.75352663270103459325 
-0.00236779301253183449 0.00000000000000000000 0.74777254421020522557 
-0.00225845831054295862 0.00000000000000000000 0.74271033475285141989 
-0.00215372787074892243 0.00000000000000005443 0.73835085530435884404 
-0.00205342971041576295 -0.00000000000000005443 0.73469934762788990934 
-0.00195739706503187489 0.00000000000000005443 0.73175579891550079914 
-0.00186546829696591704 0.00000000000000010885 0.72951532236504512685 
-0.00177748680164811963 0.00000000000000000000 0.72796855586121578252 
-0.00169330091159922212 -0.00000000000000010885 0.72710207167833529329 
-0.00161276379862757458 0.00000000000000010885 0.72689879087887221409 
-0.00153573337448609563 -0.00000000000000010885 0.72733839682968615126 
-0.00146292690619397058 0.00000000000000005443 0.72839774298536219543 
-0.00139386295783062368 -0.00000000000000005443 0.73005125078503640967 
-0.00132783104314072647 0.00000000000000000000 0.73227129416866643119 
-0.00126471109613516012 -0.00000000000000010885 0.73502856783554493258 
-0.00120438707033909036 0.00000000000000000000 0.73829243693860413522 
-0.00114674684581123911 0.00000000000000005443 0.74203126643072447877 
-0.00109168213581477898 0.00000000000000005443 0.74621272875316169149 
-0.00103908839333364156 0.00000000000000005443 0.75080408898155881481 
-0.00098886471762290630 0.00000000000000000000 0.75577246692290900310 
-0.00094091376096287467 0.00000000000000000000 0.76108507598895802637 
-0.00089514163577836074 -0.00000000000000010885 0.76670943896006049645 
-0.00085145782226975740 -0.00000000000000005443 0.77261358100091170886 
-0.00080977507669540533 -0.00000000000000016328 0.77876620049865241668 
-0.00077000934042732803 -0.00000000000000016328 0.78513681846743454962 
-0.00073207964990150106 -0.00000000000000005443 0.79169590740464190759 
-0.00069590804756102605 0.00000000000000000000 0.79841500059548786705 
-0.00066141949389670392 0.00000000000000010885 0.80526678294763798238 
-0.00062713333360312666 0.00000000000000005443 0.81222516447765669145 
-0.00059446692212898123 0.00000000000000005443 0.81926532092052106737 
-0.00056334925030422558 -0.00000000000000005443 0.82636348385367341951 
-0.00053371210402347938 0.00000000000000000000 0.83349614839330776750 
-0.00050548997238177343 0.00000000000000010885 0.84063886672774146280 
-0.00047861995778178607 -0.00000000000000010885 0.84776496233047604623 
-0.00045304168803382756 0.00000000000000000000 0.85484439002260870222 
-0.00042869723047021606 0.00000000000000000000 0.86184287077966181823 
-0.00040553100808257334 -0.00000000000000010885 0.86872136112935660623 
-0.00038348971769145915 -0.00000000000000010885 0.87543586898223124670 
-0.00036252225015122433 -0.00000000000000005443 0.88193759580026953593 
-0.00034257961258974637 -0.00000000000000010885 0.88817336517205403013 
-0.00032361485267488530 -0.00000000000000005443 0.89408628698327718975 
-0.00030558298490449817 0.00000000000000005443 0.89961660197740078715 
-0.00028844091890202229 -0.00000000000000027213 0.90470265166674257440 
-0.00027214738970716019 0.00000000000000000000 0.90928192179337374856 
-0.00025666289004204560 0.00000000000000000000 0.91329211272049271031 
-0.00024194960453177055 -0.00000000000000016328 0.91667220361663925843 
-0.00022797134585762253 -0.00000000000000005443 0.91936363352578820418 
-0.00021469349281966993 0.00000000000000000000 0.92131194113038639149 
-0.00020208293027691750 0.00000000000000005443 0.92246877804631011166 
-0.00019010799094309466 0.00000000000000005443 0.92279394052068908216 
-0.00017873839900154221 0.00000000000000000000 0.92225716344337371755 
-0.00016794521551456897 0.00000000000000010885 0.92083952763572340938 
-0.00015770078558702475 0.00000000000000005443 0.91853440925979823461 
-0.00014797868725804236 0.00000000000000010885 0.91534795520060663332 
-0.00013875368208049035 0.00000000000000000000 0.91129910565443794646 
-0.00013000166735643138 0.00000000000000000000 0.90641920911323425880 
-0.00012169962999113237 0.00000000000000000000 0.90075128882360155913 
-0.00011382560192970336 -0.00000000000000005443 0.89434902627836909694 
-0.00010635861713909204 -0.00000000000000010885 0.88727552845936730197 
-0.00009927867009954998 -0.00000000000000010885 0.87960194302173344560 
-0.00009256667576649884 0.00000000000000000000 0.87140598064874785766 
-0.00008620443096789501 -0.00000000000000005443 0.86277039736798910585 
-0.00008017457719686051 0.00000000000000000000 0.85378148242040607929 
-0.00007446056476507425 0.00000000000000000000 0.84452758983892095568 
-0.00006904661827794195 0.00000000000000016328 0.83509774459722119211 
-0.00006391770339598746 0.00000000000000000000 0.82558034728980200789 
-0.00005905949484371749 -0.00000000000000005443 0.81606199496762921175 
-0.00005445834563407103 -0.00000000000000010885 0.80662643007724876831 
-0.00005010125746596525 0.00000000000000000000 0.79735362448007796043 
-0.00004597585226618690 0.00000000000000000000 0.78831900127001253153 
-0.00004207034483679518 -0.00000000000000016328 0.77959279354115529337 
-0.00003837351657293194 -0.00000000000000010885 0.77123953634442277139 
-0.00003487469022099962 0.00000000000000000000 0.76331768576091429956 
-0.00003156370564033632 0.00000000000000000000 0.75587935725315258395 
-0.00002843089653536730 -0.00000000000000021770 0.74897017417131528383 
-0.00002546706813079972 -0.00000000000000010885 0.74262921642882939732 
-0.00002266347575090760 -0.00000000000000016328 0.73688905886027056269 
-0.00002001180427987977 -0.00000000000000016328 0.73177588857771125319 
-0.00001750414846665339 0.00000000000000000000 0.72730969069683715222 
-0.00001513299404920018 0.00000000000000005443 0.72350449206327926976 
-0.00001289119966656401 -0.00000000000000005443 0.72036865302955366275 
-0.00001077197953286859 0.00000000000000005443 0.71790519787560069798 
-0.00000876888684258370 0.00000000000000000000 0.71611217509778757329 
-0.00000687579788587144 -0.00000000000000005443 0.71498303948364716476 
-0.00000508689684040068 0.00000000000000000000 0.71450704861814828828 
-0.00000339666122320160 -0.00000000000000005443 0.71466966721145874786 
-0.00000179984796878229 -0.00000000000000005443 0.71545297338115265706 
-0.00000029148011765472 -0.00000000000000010885 0.71683606174998404370 
0.00000000000000002452 -0.00000000000000005443 0.71879543892302388830 
0.00000000000000002688 0.00000000000000005443 0.72130540757683991870 
0.00000000000000006733 0.00000000000000000000 0.72433843602252157012 
-0.00000000000000002157 -0.00000000000000010885 0.72786551068948701637 
-0.00000000000000001937 0.00000000000000000000 0.73185646951558147588 
0.00000000000000008038 0.00000000000000005443 0.73628031471971466804 
0.00000000000000008019 -0.00000000000000010885 0.74110550387597651234 
0.00000000000000000683 0.00000000000000000000 0.74630021860353235041 
0.00000000000000015685 -0.00000000000000005443 0.75183261053598515744 
0.00000000000000002463 0.00000000000000010885 0.75767102453924339844 
0.00000000000000008694 0.00000000000000005443 0.76378419941055919473 
0.00000000000000004076 -0.00000000000000005443 0.77014144651590976665 
0.00000000000000018538 0.00000000000000010885 0.77671280701105982480 
0.00000000000000022091 -0.00000000000000005443 0.78346918844637003509 
0.00000000000000011866 -0.00000000000000010885 0.79038248167960412083 
0.00000000000000004298 0.00000000000000005443 0.79742565911754759167 
0.00000000000000011668 -0.00000000000000010885 0.80457285537900025130 
0.00000000000000005595 -0.00000000000000005443 0.81179942885919265105 
0.00000000000000003166 -0.00000000000000010885 0.81908190212294829102 
0.00000000000000012869 -0.00000000000000010885 0.82639741464053784181 
0.00000000000000000654 -0.00000000000000010885 0.83372263918801525762 
0.00000000000000014495 0.00000000000000010885 0.84103249535305812934 
0.00000000000000006349 0.00000000000000005443 0.84829893221052732333 
0.00000000000000008883 0.00000000000000005443 0.85548994390029697854 
0.00000000000000006481 -0.00000000000000010885 0.86256890271514274904 
0.00000000000000011193 0.00000000000000005443 0.86949423854635743414 
0.00000000000000010988 -0.00000000000000010885 0.87621945570040682405 
0.00000000000000007506 0.00000000000000005443 0.88269345384425390577 
0.00000000000000000549 0.00000000000000005443 0.88886110570687848487 
0.00000000000000017016 0.00000000000000005443 0.89466403743654687730 
0.00000000000000006773 -0.00000000000000010885 0.90004155605705049581 
0.00000000000000000343 0.00000000000000010885 0.90493167063076607182 
0.00000000000000003264 0.00000000000000000000 0.90927215825775598024 
0.00000000000000000162 -0.00000000000000005443 0.91300163196330630377 
0.00000000000000001594 -0.00000000000000005443 0.91606057414261954364 
0.00000000000000002003 0.00000000000000005443 0.91839230602667587533 
0.00000000000000011285 -0.00000000000000010885 0.91994387024572044087 
0.00000000000000005840 0.00000000000000000000 0.92066680975287473743 
-0.00000000000000004245 0.00000000000000010885 0.92051783197698267003 
0.00000000000000010377 0.00000000000000000000 0.91945935201651174395 
0.00000000000000011657 0.00000000000000005443 0.91745991293136008871 
-0.00000000000000000515 0.00000000000000010885 0.91449448473978534047 
0.00000000000000008680 -0.00000000000000010885 0.91054464661217504595 
0.00000000000000002822 0.00000000000000010885 0.90559865901789604603 
0.00000000000000004221 0.00000000000000010885 0.89965143428260507807 
0.00000000000000011080 0.00000000000000000000 0.89270441521323495859 
0.00000000000000007321 0.00000000000000005443 0.88476537221042761416 
-0.00000000000000002233 -0.00000000000000010885 0.87584812967660929939 
0.00000000000000007448 0.00000000000000000000 0.86597223260262523592 
-0.00000000000000000576 0.00000000000000021770 0.85516256403332424618 
0.00000000000000003596 -0.00000000000000016328 0.84344892372427238136 
0.00000000000000001692 -0.00000000000000010885 0.83086557775436697959 
0.00000000000000002182 0.00000000000000000000 0.81745078819351657540 
0.00000000000000003842 0.00000000000000010885 0.80324633117654520298 
0.00000000000000008364 0.00000000000000000000 0.78829701093475290641 
0.00000000000000003130 -0.00000000000000005443 0.77265017651101441931 
0.00000000000000012194 0.00000000000000010885 0.75635524705443446525 
0.00000000000000003004 0.00000000000000010885 0.73946325077389074565 
-0.00000000000000008163 0.00000000000000021770 0.72202638184019451995 
0.00000000000000003257 0.00000000000000000000 0.70409757877481993216 
-0.00000000000000000038 0.00000000000000000000 0.68573012715717041043 
0.00000000000000003476 0.00000000000000016328 0.66697728882772966408 
0.00000000000000000759 0.00000000000000000000 0.64789195916476560733 
-0.00000000000000000511 -0.00000000000000010885 0.62852635346932561600 
0.00000000000000003621 -0.00000000000000005443 0.60893172300754827564 
-0.00000000000000003766 -0.00000000000000005443 0.58915810083009001463 
0.00000000000000005412 -0.00000000000000005443 0.56925407711410802580 
-0.00000000000000000863 -0.00000000000000010885 0.54926660345143896169 
0.00000000000000003443 0.00000000000000005443 0.52924082523448967574 
0.00000000000000008609 0.00000000000000016328 0.50921994106571011329 
-0.00000000000000002086 0.00000000000000005443 0.48924508793385279581 
-0.00000000000000003779 -0.00000000000000005443 0.46935525075695128105 
-0.00000000000000000818 0.00000000000000000000 0.44958719478439485018 
-0.00000000000000002397 0.00000000000000005443 0.42997541927502536119 
0.00000000000000001889 0.00000000000000005443 0.41055213082128272362 
0.00000000000000011476 -0.00000000000000005443 0.39134723466766330180 
0.00000000000000002605 -0.00000000000000005443 0.37238891543386093419 
0.00000000000000003949 0.00000000000000000000 0.35370274381745953063 
0.00000000000000001263 0.00000000000000000000 0.33531094405010003490 
0.00000000000000009676 -0.00000000000000005443 0.31723443587641275698 
0.00000000000000003737 -0.00000000000000016328 0.29949200716191337612 
-0.00000000000000002135 0.00000000000000016328 0.28210037967202938880 
0.00000000000000001691 -0.00000000000000005443 0.26507428215271078287 
0.00000000000000008611 0.00000000000000000000 0.24842652944426374395 
0.00000000000000002278 0.00000000000000000000 0.23216810644293059407 
-0.00000000000000002962 0.00000000000000000000 0.21630825580962842469 
-0.00000000000000003426 0.00000000000000010885 0.20085456841090834623 
0.00000000000000006043 0.00000000000000005443 0.18581307556260662217 
0.00000000000000002603 0.00000000000000000000 0.17118834223090581559 
-0.00000000000000001152 0.00000000000000010885 0.15698356042789485265 
-0.00000000000000005826 0.00000000000000005443 0.14320064211857502778 
-0.00000000000000005200 -0.00000000000000010885 0.12984031103310553212 
-0.00000000000000003544 -0.00000000000000005443 0.11690219285154873630 
0.00000000000000009490 0.00000000002093990340 0.10438490329810963531 
0.00000000000000000634 0.00000001685809489237 0.09228613374770266997 
0.00000000000000002427 0.00000033637969817342 0.08060273400943288036 
-0.00000000000000002492 0.00000233452272655705 0.06933079200918086660 
0.00000000000000001233 0.00000969992217196768 0.05846571014691294421 
0.00000000000000001697 0.00002972451214074111 0.04800227815358773520 
-0.00000000000000001502 0.00007443807999702786 0.03793474231769253247 
-0.00000000000000002679 0.00016145899115810057 0.02825687099257714191 
0.00000000000000003420 0.00031450230598703934 0.01896201633299895994 
0.00000000000000003184 0.00056353446499303212 0.01004317224277587531 
0.00000000000000002308 0.00094459560159650049 0.00149302854533666252 
0.00000000000000003981 0.00149933032190562683 -0.00669597858458444856 
0.00000000000000001987 0.00227427861243645205 -0.01453161986664597456 
0.00000000000000002336 0.00331998287162338238 -0.02202182975636677448 
0.00000000000000008474 0.00468996683619568328 -0.02917466678345997239 
-0.00000000000000001425 0.00643963887555818511 -0.03599827727350571327 
0.00000000000000007353 0.00862516688883794604 -0.04250086232731711822 
-0.00000000000000004940 0.01130236571019875395 -0.04869064792250935025 
-0.00000000000000000573 0.01452563113401381459 -0.05457585799406246274 
0.00000000000000000444 0.01834694786145852838 -0.06016469034486814083 
-0.00000000000000000094 0.02281499215507443862 -0.06546529523320461508 
0.00000000000000010894 0.02797434397242616264 -0.07048575648163243890 
0.00000000000000001982 0.03386481795742126572 -0.07523407495076532558 
0.00000000000000004502 0.04052091796060417611 -0.07971815422161455944 
0.00000000000000003870 0.04797141575536714719 -0.08394578833157452513 
-0.00000000000000001651 0.05623905130102214295 -0.08792465141147423613 
-0.00000000000000000612 0.06534034923954748497 -0.09166228907434720297 
0.00000000000000004059 0.07528554424960144653 -0.09516611141053542278 
-0.00000000000000012178 0.08607860635975184138 -0.09844338744834248145 
-0.00000000000000014838 0.09771735627948310854 -0.10150124094457867174 
-0.00000000000000000901 0.11019366017736297036 -0.10434664737489610098 
0.00000000000000007121 0.12349369305844515310 -0.10698643199971340223 
0.00000000000000007856 0.13759825990848478794 -0.10942726888770011595 
0.00000000000000001635 0.15248316402617387300 -0.11167568078513756546 
0.00000000000000009861 0.16811961240666528639 -0.11373803972595807055 
-0.00000000000000002692 0.18447464862576989919 -0.11562056828379962958 
0.00000000000000010259 0.20151160436532497555 -0.11732934137396620888 
0.00000000000000011011 0.21919056148254037475 -0.11887028851969391741 
0.00000000000000001657 0.23746881733076682930 -0.12024919650354722045 
0.00000000000000003387 0.25630134686190703119 -0.12147171233108891575 
0.00000000000000001826 0.27564125586162846471 -0.12254334644011495581 
0.00000000000000003353 0.29544022047153517541 -0.12346947609473322982 
-0.00000000000000009625 0.31564890892481123341 -0.12425534890933571941 
0.00000000000000001451 0.33621738215387758641 -0.12490637462169779104 
-0.00000000000000007193 0.35709547061325158657 -0.12542836848485627854 
0.00000000000000001468 0.37823312529324049081 -0.12582502912931592398 
0.00000000000000009462 0.39958074147740951787 -0.12610112595342345965 
0.00000000000000004369 0.42108945431764160938 -0.12626131651187361138 
0.00000000000000010858 0.44271140576498874131 -0.12631014996929204597 
0.00000000000000002996 0.46439998280347094539 -0.12625207044005867796 
0.00000000000000004469 0.48611002728933155881 -0.12609142019669503099 
-0.00000000000000001233 0.50779801800253476785 -0.12583244273258717416 
-0.00000000000000004077 0.52942222577342090695 -0.12547928566799546046 
-0.00000000000000001283 0.55094284275873950385 -0.12503600349121760105 
0.00000000000000011564 0.57232208711120913236 -0.12450656012944008588 
-0.00000000000000002227 0.59352428441893456679 -0.12389483134621570581 
0.00000000000000008264 0.61451592738903904056 -0.12320460696468732431 
0.00000000000000011695 0.63526571531728914799 -0.12243959291761652430 
0.00000000000000002637 0.65574457492582094442 -0.12160341312699536609 
0.00000000000000002686 0.67592566416756183489 -0.12069961121753564059 
0.00000000000000001185 0.69578436059115855716 -0.11973079735371487675 
0.00000000000000002671 0.71529822862933212235 -0.11870070759555996498 
0.00000000000000001559 0.73444681064551187166 -0.11761323539675064276 
0.00000000000000006644 0.75321087456788327064 -0.11647161314653226016 
0.00000000000000009503 0.77157118431356686017 -0.11527899945408573434 
0.00000000000000000577 0.78950713507410208436 -0.11403848000597438528 
0.00000000000000006400 0.80699550176760881381 -0.11275306831488229875 
0.00000000000000001438 0.82400944649710516909 -0.11142570636974166720 
0.00000000000000004918 0.84051785685898050549 -0.11005926519745985737 
0.00000000000000012595 0.85648503513269513832 -0.10865654534647285756 
0.00000000000000007770 0.87187072354942007912 -0.10722027730226862952 
0.00000000000000000608 0.88663042882965803493 -0.10575312184486505840 
0.00000000000000003951 0.90071599670284019368 -0.10425767035799553273 
0.00000000000000010356 0.91407638158047943566 -0.10273644509945864534 
0.00000000000000003611 0.92665855592237189597 -0.10119189944173698215 
0.00000000000000002223 0.93840850654590091118 -0.09962641809159353268 
-0.00000000000000002003 0.94927226998480851439 -0.09804231729691802177 
-0.00000000000000004686 0.95919696590058167729 -0.09644184504862157725 
0.00000000000000004326 0.96813185570368520683 -0.09482718128489159293 
0.00000000000000015068 0.97602973349238486556 -0.09320043810459222033 
0.00000000000000010603 0.98284879124155932750 -0.09156365999607962713 
0.00000000000000005063 0.98855463986725733427 -0.08991882408715247410 
0.00000000000000011020 0.99312218111682182276 -0.08826784042132548858 
0.00000000000000013502 0.99653714303365981131 -0.08661255226506862914 
0.00000000000000002378 0.99879718037474762848 -0.08495473645011787645 
0.00000000000000004421 0.99991250468886772040 -0.08329610375443666226 
0.00000000000000007942 0.99990605251267172804 -0.08163829932489118091 
0.00000000000000005208 0.99881322890800605663 -0.07998290314419428948 
0.00000000000000004211 0.99668128102428921178 -0.07833143054419089424 
0.00000000000000010970 0.99356836544521931476 -0.07668533276708781876 
0.00000000000000009279 0.98954237607385941988 -0.07504599757578078734 
0.00000000000000013763 0.98467959802603899355 -0.07341474991400538663 
0.00000000000000004987 0.97906324883420825511 -0.07179285261664135331 
-0.00000000000000000515 0.97278196227956847952 -0.07018150717010594730 
0.00000000000000013843 0.96592826317391233815 -0.06858185452243671654 
0.00000000000000017472 0.95859707399917304382 -0.06699497594231172692 
0.00000000000000009304 0.95088428691171056339 -0.06542189392597247410 
0.00000000000000008353 0.94288542752959314530 -0.06386357315071669594 
0.00000000000000008738 0.93469443034350951915 -0.06232092147338966215 
0.00000000000000002004 0.92640253964723773272 -0.06079479097206091226 
0.00000000000000011516 0.91809734463513703595 -0.05928597902887942223 
0.00000000000000006607 0.90986195278207260273 -0.05779522945191078315 
0.00000000000000009654 0.90177430179432560564 -0.05632323363361427943 
0.00000000000000001242 0.89390660726545145831 -0.05487063174346896305 
0.00000000000000002402 0.88632494064120670441 -0.05343801395216273703 
0.00000000000000012017 0.87908893013634936686 -0.05202592168465229594 
-0.00000000000000002503 0.87225157579251577644 -0.05063484889934035532 
0.00000000000000009076 0.86585916885844571578 -0.04926524339056110452 
0.00000000000000002697 0.85995130505055383807 -0.04791750811153065726 
0.00000000000000002026 0.85456098095488719490 -0.04659200251490436956 
0.00000000000000006936 0.84971476280637803224 -0.04528904390808044522 
0.00000000000000005035 0.84543301707792961608 -0.04400890882040098262 
0.00000000000000016271 0.84173019268511550806 -0.04275183437943782389 
0.00000000000000008103 0.83861514512187929071 -0.04151801969357668542 
0.00000000000000011128 0.83609149345333522163 -0.04030762723818000909 
0.00000000000000011648 0.83415800177298393692 -0.03912078424265956478 
-0.00000000000000001622 0.83280897745729920434 -0.03795758407586839051 
0.00000000000000003324 0.83203467929870755793 -0.03681808762730082174 
0.00000000000000011406 0.83182172935026799099 -0.03570232468167305190 
0.00000000000000003806 0.83215352305705458935 -0.03461029528455860510 
0.00000000000000003922 0.83301063296855737406 -0.03354254415882700763 
0.00000000000000006672 0.83437120201419345822 -0.03249924637729610655 
0.00000000000000010751 0.83621132297347866569 -0.03147944066124161444 
0.00000000000000005104 0.83850540137867113355 -0.03048302562165331603 
-0.00000000000000011430 0.84122649964766393893 -0.02950987653799354640 
0.00000000000000010677 0.84434666075682929254 -0.02855984663742919955 
0.00000000000000005847 0.84783721022686819868 -0.02763276835135380569 
0.00000000000000012390 0.85166903560989881683 -0.02672845454777235050 
0.00000000000000015444 0.85581284303421123472 -0.02584669973824866435 
0.00000000000000007969 0.86023939068608312741 -0.02498728125822338025 
0.00000000000000011041 0.86491969938801727125 -0.02414996041962682097 
0.00000000000000010026 0.86982524067226896225 -0.02333448363482741594 
0.00000000000000009651 0.87492810295033895951 -0.02254058351106267080 
0.00000000000000010620 0.88020113654611054077 -0.02176797991460944354 
0.00000000000000012384 0.88561807849544449400 -0.02101638100405946175 
0.00000000000000000541 0.89115365812127056433 -0.02028548423216313540 
0.00000000000000006741 0.89678368447339462666 -0.01957497731580652711 
0.00000000000000000455 0.90248511660720698302 -0.01888340600787314846 
0.00000000000000008303 0.90823608379966003223 -0.01821136225963438868 
0.00000000000000003460 0.91401557497178165246 -0.01755879730438834538 
0.00000000000000004984 0.91980253620454710539 -0.01692536493376126799 
-0.00000000000000002664 0.92557462531288825502 -0.01631071377456465299 
0.00000000000000005923 0.93130694145022119290 -0.01571448805341978464 
0.00000000000000006602 0.93697093314568524747 -0.01513632832939937507 
0.00000000000000009012 0.94253359789353596820 -0.01457587219489506550 
0.00000000000000003514 0.94795702202813880710 -0.01403275494497205518 
0.00000000000000013690 0.95319826519008776788 -0.01350661021554636770 
0.00000000000000006574 0.95820956446102922843 -0.01299707059076234128 
0.00000000000000007767 0.96293881542762072012 -0.01250376818000892634 
0.00000000000000014856 0.96733027803124327360 -0.01202633516505761425 
0.00000000000000009174 0.97132545171670026107 -0.01156440431784695570 
0.00000000000000004313 0.97486406527988234139 -0.01111760948948084873 
0.00000000000000006530 0.97788513052248737800 -0.01068558607104401481 
0.00000000000000011878 0.98032801428103921726 -0.01026797142686421138 
0.00000000000000005502 0.98213349246948389304 -0.00986440530089054829 
0.00000000000000012616 0.98324485713163556344 -0.00947453019686826138 
0.00000000000000001742 0.98360941864641404653 -0.00909799173302506051 
0.00000000000000004922 0.98318043379830533102 -0.00873443897199523492 
0.00000000000000015260 0.98191911414351062959 -0.00838352472672233492 
0.00000000000000006436 0.97979643566864416115 -0.00804490584310007736 
0.00000000000000008816 0.97679458356204418301 -0.00771824346011633702 
0.00000000000000008621 0.97290794882738595994 -0.00740320324826839512 
0.00000000000000010563 0.96814365232874999290 -0.00709945562703570912 
-0.00000000000000007862 0.96252161214566678282 -0.00680667596217960063 
0.00000000000000011384 0.95607419623726541680 -0.00652454474365683507 
0.00000000000000023531 0.94884551788091286983 -0.00625274774492147467 
0.00000000000000006922 0.94089043895072899115 -0.00599097616438828105 
0.00000000000000006335 0.93227334803002792629 -0.00573892674982573112 
0.00000000000000002811 0.92306677832219885538 -0.00549630190644060084 
0.00000000000000013790 0.91334992565969674860 -0.00526280978940139432 
0.00000000000000009123 0.90320712061970398477 -0.00503816438154569123 
0.00000000000000010476 0.89272630159521437765 -0.00482208555699697918 
-0.00000000000000002914 0.88199752819951315885 -0.00461429913140829796 
0.00000000000000007793 0.87111156700015401899 -0.00441453689953821057 
0.00000000000000013994 0.86015857456209976473 -0.00422253666083960248 
0.00000000000000009119 0.84922689630951830875 -0.00403804223373889579 
0.00000000000000009170 0.83840199389971781230 -0.00386080345926047893 
0.00000000000000017634 0.82776550869364506902 -0.00369057619463026426 
0.00000000000000013196 0.81739446451762509671 -0.00352712229748478783 
0.00000000000000007461 0.80736060922370533888 -0.00337020960128336412 
-0.00000000000000002201 0.79772989153421280939 -0.00321961188251222068 
0.00000000000000010788 0.78856206724976363187 -0.00307510882024213334 
0.00000000000000013726 0.77991042705118107659 -0.00293648594858827820 
0.00000000000000002684 0.77182163677294401971 -0.00280353460259892551 
0.00000000000000018424 0.76433568010662367165 -0.00267605185808256858 
0.00000000000000012088 0.75748589314647252202 -0.00255384046586222416 
0.00000000000000006933 0.75129907995806854970 -0.00243670878092415834 
0.00000000000000015335 0.74579569838089454503 -0.00232447068691804537 
0.00000000000000002949 0.74099010551775779110 -0.00221694551643444480 
0.00000000000000000975 0.73689085277375598881 -0.00211395796747758510 
0.00000000000000001051 0.73350102084578883144 -0.00201533801652516078 
0.00000000000000012544 0.73081858569605662179 -0.00192092082855404916 
0.00000000000000004448 0.72883680723988386596 -0.00183054666438985710 
0.00000000000000006728 0.72754463321431317446 -0.00174406078572089088 
0.00000000000000006639 0.72692711144804855738 -0.00166131335810005653 
0.00000000000000006664 0.72696580450798098383 -0.00158215935224437763 
0.00000000000000010270 0.72763920143857108158 -0.00150645844391851286 
0.00000000000000002617 0.72892312202656395215 -0.00143492962859978154 
0.00000000000000011218 0.73079110970627592092 -0.00136709316272622225 
-0.00000000000000000295 0.73321480986363529730 -0.00130224021585862316 
-0.00000000000000002654 0.73616433089586363891 -0.00124025234094051352 
0.00000000000000008673 0.73960858593532752270 -0.00118101507329212724 
0.00000000000000012879 0.74351561364925800035 -0.00112441783746647069 
0.00000000000000010677 0.74785287698140434642 -0.00107035385383483770 
-0.00000000000000004125 0.75258753910787379304 -0.00101872004509634731 
0.00000000000000014593 0.75768671623875083476 -0.00096941694288855051 
-0.00000000000000009198 0.76311770721146643393 -0.00092234859466967518 
0.00000000000000014022 0.76884820009363585847 -0.00087742247102550234 
-0.00000000000000001818 0.77484645624480896764 -0.00083454937354510085 
-0.00000000000000000613 0.78108147248109005556 -0.00079364334339800233 
0.00000000000000017565 0.78752312214681485791 -0.00075462157073472958 
0.00000000000000001668 0.79414227602638576275 -0.00071740430502105555 
0.00000000000000010924 0.80091090412990106895 -0.00068191476641048861 
0.00000000000000015957 0.80780215946126499027 -0.00064750599626309214 
0.00000000000000008336 0.81479044413391210622 -0.00061387643936176091 
0.00000000000000001088 0.82185139675677065796 -0.00058183788624376965 
-0.00000000000000000013 0.82896146685424731970 -0.00055132045691329865 
0.00000000000000014756 0.83609691379763284580 -0.00052225702945939872 
0.00000000000000001246 0.84323253409539600245 -0.00049458314897577620 
0.00000000000000003256 0.85034041301857188344 -0.00046823693846385651 
0.00000000000000007064 0.85738888350893494028 -0.00044315901173626760 
0.00000000000000003670 0.86434179075349337751 -0.00041929238833854327 
0.00000000000000002521 0.87115810084823497306 -0.00039658241049944003 
0.00000000000000009862 0.87779185093272993345 -0.00037497666211503859 
-0.00000000000000003885 0.88419241150670135898 -0.00035442488976608535 
0.00000000000000001515 0.89030501572224363116 -0.00033487892577107806 
0.00000000000000003434 0.89607150242339328461 -0.00031629261326257703 
-0.00000000000000001256 0.90143121733887199287 -0.00029862173328102769 
0.00000000000000009284 0.90632201838550019435 -0.00028182393387058292 
0.00000000000000019816 0.91068133517408167421 -0.00026585866116190360 
-0.00000000000000001128 0.91444723851585418828 -0.00025068709242305156 
0.00000000000000000000 0.91755948946018361934 -0.00023627207105556225 
-0.00000000000000001374 0.91996069367743904532 -0.00022257804351550386 
0.00000000000000000122 0.92159790562862953234 -0.00020957099812844729 
0.00000000000000013664 0.92242459981596192087 -0.00019721840577782720 
-0.00000000000000002132 0.92240265620328509844 -0.00018548916242990305 
-0.00000000000000000551 0.92150410566685247993 -0.00017435353347148100 
-0.00000000000000004606 0.91971248810972561216 -0.00016378309982480291 
-0.00000000000000002343 0.91702375347514064607 -0.00015375070580634750 
-0.00000000000000006992 0.91344669063871264392 -0.00014423040869710632 
-0.00000000000000000375 0.90900290629378444063 -0.00013519742999037283 
0.00000000000000004098 0.90372639967812262718 -0.00012662810827747669 
-0.00000000000000003609 0.89766279268085724663 -0.00011849985374011433 
0.00000000000000009797 0.89086828117553407136 -0.00011079110420845629 
-0.00000000000000006007 0.88340837443880704249 -0.00010348128275264777 
0.00000000000000005251 0.87535648686285927322 -0.00009655075676682896 
0.00000000000000006247 0.86679244110766673348 -0.00008998079850817546 
-0.00000000000000008220 0.85780093532078827145 -0.00008375354705901093 
-0.00000000000000002721 0.84847001979130098892 -0.00007785197166649204 
0.00000000000000003536 0.83888962092386620828 -0.00007225983642982249 
0.00000000000000007300 0.82915014309137780035 -0.00006696166629461230 
-0.00000000000000006436 0.81934117200556577654 -0.00006194271431699173 
-0.00000000000000010885 0.80955029689890878331 -0.00005718893016308279 
0.00000000000000001181 0.79986206313376950749 -0.00005268692980807038 
-0.00000000000000013249 0.79035706188952581375 -0.00004842396639389069 
0.00000000000000004097 0.78111115933122898802 -0.00004438790221935777 
0.00000000000000007844 0.77219486411253712710 -0.00004056718181869798 
0.00000000000000000550 0.76367282917123469055 -0.00003695080609937429 
0.00000000000000005289 0.75560348148553535541 -0.00003352830750659959 
0.00000000000000003072 0.74803877171468524665 -0.00003028972617616860 
0.00000000000000013257 0.74102403438616981646 -0.00002722558704883100 
-0.00000000000000005733 0.73459794845195691693 -0.00002432687790892398 
-0.00000000000000008862 0.72879258755734821484 -0.00002158502832184750 
-0.00000000000000002169 0.72363354919109024177 -0.00001899188943446099 
-0.00000000000000007956 0.71914015196148517450 -0.00001653971461173305 
0.00000000000000002378 0.71532569052212613414 -0.00001422114087916556 
-0.00000000000000005704 0.71219773810929076774 -0.00001202917114361604 
0.00000000000000010204 0.70975848721266898700 -0.00000995715716214864 
-0.00000000000000003912 0.70800511954858280639 -0.00000799878323518408 
0.00000000000000006634 0.70693019721141081568 -0.00000614805059564720 
0.00000000000000005106 0.70652206762013991526 -0.00000439926246700786 
-0.00000000000000007828 0.70676527563241542396 -0.00000274700976898938 
-0.00000000000000010998 0.70764097695136118915 -0.00000118615744291498 
0.00000000000000001973 0.70912734768724861034 0.00000000000000005443 
0.00000000000000004472 0.71119998564615460879 0.00000000000000000000 
0.00000000000000001630 0.71383229959292726630 -0.00000000000000005443 
-0.00000000000000002924 0.71699588337010733419 0.00000000000000005443 
0.00000000000000006770 0.72066087234385844962 -0.00000000000000005443 
0.00000000000000000327 0.72479628018993225158 0.00000000000000016328 
0.00000000000000000093 0.72937031452602540949 0.00000000000000010885 
-0.00000000000000004974 0.73435067034150369736 0.00000000000000000000 
0.00000000000000010239 0.73970480057209264668 0.00000000000000000000 
-0.00000000000000003683 0.74540016351727911292 0.00000000000000010885 
0.00000000000000007924 0.75140444710376608217 -0.00000000000000016328 
-0.00000000000000002480 0.75768577026181094247 0.00000000000000010885 
0.00000000000000000000 0.76421286190529158500 0.00000000000000016328 
0.00000000000000006789 0.77095521819371681804 -0.00000000000000005443 
0.00000000000000008489 0.77788323890810273653 0.00000000000000016328 
-0.00000000000000006712 0.78496834389559988487 0.00000000000000010885 
-0.00000000000000005506 0.79218307063293491588 -0.00000000000000005443 
-0.00000000000000003675 0.79950115402899180062 0.00000000000000005443 
-0.00000000000000003731 0.80689758697276159349 0.00000000000000016328 
0.00000000000000007854 0.81434855957853047315 0.00000000000000010885 
0.00000000000000007959 0.82183091066513136447 0.00000000000000000000 
-0.00000000000000014555 0.82932104281225615949 0.00000000000000000000 
0.00000000000000005703 0.83679363445439303160 0.00000000000000005443 
-0.00000000000000009415 0.84422042109449879632 0.00000000000000005443 
0.00000000000000003667 0.85156920938625746409 0.00000000000000010885 
-0.00000000000000001512 0.85880320870745474604 0.00000000000000016328 
0.00000000000000000000 0.86588070908537817516 0.00000000000000005443 
-0.00000000000000000942 0.87275509649936944268 0.00000000000000021770 
0.00000000000000013336 0.87937517232859951921 0.00000000000000000000 
-0.00000000000000002449 0.88568572958175229015 0.00000000000000005443 
-0.00000000000000004207 0.89162833181610512412 0.00000000000000005443 
-0.00000000000000002446 0.89714223919601820967 0.00000000000000005443 
0.00000000000000003901 0.90216542830443147150 0.00000000000000005443 
-0.00000000000000005792 0.90663565684132307876 0.00000000000000005443 
0.00000000000000004228 0.91049153026537277267 -0.00000000000000005443 
-0.00000000000000005443 0.91367353405054485549 0.00000000000000010885 
0.00000000000000002427 0.91612500202383972958 -0.00000000000000005443 
-0.00000000000000005157 0.91779299786221790747 0.00000000000000010885 
0.00000000000000006947 0.91862909301210438073 0.00000000000000010885 
-0.00000000000000000004 0.91859002990093507890 0.00000000000000010885 
0.00000000000000012097 0.91763826425241279416 0.00000000000000010885 
0.00000000000000002731 0.91574238456172429856 0.00000000000000005443 
0.00000000000000012117 0.91287741033694669301 0.00000000000000010885 
0.00000000000000000924 0.90902497359702671975 0.00000000000000016328 
0.00000000000000014249 0.90417339038095612125 0.00000000000000010885 
-0.00000000000000001521 0.89831763072364878564 0.00000000000000000000 
-0.00000000000000006664 0.89145919675365836721 0.00000000000000000000 
0.00000000000000002998 0.88360591933026055855 0.00000000000000010885 
0.00000000000000002109 0.87477168402571536809 -0.00000000000000005443 
-0.00000000000000006392 0.86497609733314695379 0.00000000000000000000 
0.00000000000000000036 0.85424410379787063530 0.00000000000000010885 
0.00000000000000005481 0.84260556438174927241 0.00000000000000005443 
0.00000000000000005172 0.83009480582272654470 0.00000000000000000000 
-0.00000000000000006084 0.81675015008607221301 0.00000000000000010885 
0.00000000000000001811 0.80261343225589765193 0.00000000000000005443 
-0.00000000000000005175 0.78772951441579508458 0.00000000000000005443 
0.00000000000000001547 0.77214580224195927816 0.00000000000000005443 
0.00000000000000000265 0.75591177020235100770 0.00000000000000000000 
0.00000000000000015740 0.73907850043884293356 0.00000000000000016328 
-0.00000000000000005180 0.72169823961977053184 0.00000000000000005443 
0.00000000000000016328 0.70382397729862422597 0.00000000000000000000 
-0.00000000000000006412 0.68550904860872974300 0.00000000000000000000 
-0.00000000000000006933 0.66680676346924516729 0.00000000000000005443 
0.00000000000000001563 0.64777006387822821942 0.00000000000000010885 
-0.00000000000000001232 0.62845121032570527841 0.00000000000000005443 
-0.00000000000000009061 0.60890149787406888660 0.00000000000000005443 
0.00000000000000005698 0.58917100202401273545 -0.00000000000000010885 
-0.00000000000000000894 0.56930835410996993851 0.00000000000000005443 
-0.00000000000000000981 0.54936054564731717775 0.00000000000000000000 
0.00000000000000001214 0.52937276078160278026 0.00000000000000005443 
-0.00000000000000003612 0.50938823576450764641 0.00000000000000005443 
-0.00000000000000005290 0.48944814419868787336 -0.00000000000000005443 
0.00000000000000009749 0.46959150665047344475 0.00000000000000010885 
-0.00000000000000014245 0.44985512312193753903 0.00000000000000000000 
-0.00000000000000003607 0.43027352679849706352 0.00000000000000005443 
0.00000000000000003497 0.41087895744138552834 0.00000000000000005443 
-0.00000000000000000883 0.39170135277266598939 0.00000000000000000000 
-0.00000000000000012648 0.37276921091657583274 0.00000000000000010885 
0.00000000000000004078 0.35410755487564193889 0.00000000000000010885 
0.00000000000000001842 0.33573893782753877479 0.00000000000000005443 
-0.00000000000000001755 0.31768430979983880436 0.00000000000000010885 
-0.00000000000000019082 0.29996248854249185634 0.00000000000000010885 
0.00000000000000008402 0.28259022535428046652 0.00000000000000005443 
-0.00000000000000010280 0.26558227820689644938 0.00000000000000000000 
-0.00000000000000007322 0.24895149089817847354 0.00000000000000005443 
-0.00000000000000008428 0.23270887704900630744 0.00000000000000005443 
0.00000000000000004432 0.21686370784324998651 0.00000000000000000000 
-0.00000000000000006687 0.20142360249588234233 0.00000000000000000000 
-0.00000000000000002636 0.18639462051978394896 0.00000000000000000000 
-0.00000000000000007323 0.17178135494606136535 -0.00000000000000016328 
-0.00000000000000004831 0.15758702573508351352 0.00000000000000000000 
-0.00000000000000009735 0.14381357269532768495 0.00000000000000010885 
-0.00000000000000003355 0.13046174730399104358 0.00000000000000010885 
-0.00000000000000004442 0.11753120289679921950 0.00000000000000010885 
-0.00000000000000005912 0.10502058276420213334 0.00000000017198660834 
-0.00000000000000004436 0.09292760575698419401 0.00000003528810604748 
-0.00000000000000000633 0.08124914906608379783 0.00000052533669550611 
-0.00000000000000010901 0.06998132789902766770 0.00000320464301407703 
-0.00000000000000003178 0.05911957182880835798 0.00001238172287969563 
-0.00000000000000002103 0.04865869764030408134 0.00003621306772669808 
-0.00000000000000000632 0.03859297854447905907 0.00008778859822224417 
-0.00000000000000008611 0.02891620967175681858 0.00018591676695276543 
-0.00000000000000006073 0.01962176979318411285 0.00035556163104860601 
-0.00000000000000003758 0.01070267925149296501 0.00062792859304673578 
-0.00000000000000008579 0.00215165411404973994 0.00104022468207117555 
-0.00000000000000013392 -0.00603884341386864195 0.00163513700786712649 
0.00000000000000006067 -0.01387655825381744167 0.00246008236573780521 
-0.00000000000000008164 -0.02136939931515056609 0.00356628425473899018 
-0.00000000000000001475 -0.02852539985312895279 0.00500773262562753761 
-0.00000000000000014235 -0.03535268121049225942 0.00684007790838637563 
-0.00000000000000011304 -0.04185941981668844097 0.00911950535249635326 
-0.00000000000000006070 -0.04805381730913643040 0.01190162924731810908 
-0.00000000000000002822 -0.05394407363317725579 0.01524043976172668666 
-0.00000000000000006280 -0.05953836297158422719 0.01918732837005114947 
-0.00000000000000000625 -0.06484481235046758718 0.02379021140285192404 
0.00000000000000002206 -0.06987148276595984975 0.02909276536254898696 
-0.00000000000000004908 -0.07462635267505197956 0.03513378238507966489 
-0.00000000000000014760 -0.07911730369419418818 0.04194664966187048455 
-0.00000000000000008370 -0.08335210835065760826 0.04955895277169062446 
-0.00000000000000004803 -0.08733841973402092784 0.05799219968983477386 
0.00000000000000007102 -0.09108376289838199247 0.06726165970253149273 
-0.00000000000000007184 -0.09459552786986334671 0.07737630950451147849 
-0.00000000000000002007 -0.09788096411859478763 0.08833887733680395593 
-0.00000000000000012454 -0.10094717635948434464 0.10014597506638085733 
0.00000000000000000516 -0.10380112155165779897 0.11278830755536324582 
-0.00000000000000001763 -0.10644960697235399116 0.12625094845336368166 
0.00000000000000000890 -0.10889928924723624171 0.14051367161387984250 
-0.00000000000000013476 -0.11115667422544199539 0.15555132763078072244 
0.00000000000000004131 -0.11322811759417295008 0.17133425546518271654 
-0.00000000000000005157 -0.11511982613417943988 0.18782871974307349672 
0.00000000000000001241 -0.11683785952404285302 0.20499736501194859573 
-0.00000000000000011352 -0.11838813260767556967 0.22279967901763800264 
-0.00000000000000000711 -0.11977641804589503338 0.24119245787257689861 
-0.00000000000000008911 -0.12100834927923492801 0.26013026681064044254 
-0.00000000000000006423 -0.12208942373532555292 0.27956589104218876329 
-0.00000000000000006610 -0.12302500622015169474 0.29945077202075509604 
0.00000000000000003825 -0.12382033243827959834 0.31973542519778014315 
-0.00000000000000006745 -0.12448108565468278541 0.34036983606484100262 
0.00000000000000005151 -0.12501248466165942874 0.36130383195734783186 
-0.00000000000000004479 -0.12541851938353984486 0.38248742771527022288 
-0.00000000000000005749 -0.12570394940380777427 0.40387114386254963083 
-0.00000000000000005810 -0.12587342298155912435 0.42540629647638672495 
-0.00000000000000009409 -0.12593148049658475784 0.44704525837077990769 
-0.00000000000000001731 -0.12588255778008053398 0.46874169161676021433 
-0.00000000000000001206 -0.12573098931335505157 0.49045075176668312400 
-0.00000000000000008043 -0.12548101128035488161 0.51212926444433815032 
-0.00000000000000005261 -0.12513676446300095457 0.53373587520953258423 
-0.00000000000000006789 -0.12470229697125390089 0.55523117380854514202 
-0.00000000000000005500 -0.12418156680248317036 0.57657779408394760345 
-0.00000000000000006531 -0.12357844422712553623 0.59774049094233894230 
-0.00000000000000000125 -0.12289671399979604227 0.61868619587017392725 
-0.00000000000000009828 -0.12214007739694944521 0.63938405254959196355 
-0.00000000000000000082 -0.12131215408391694821 0.65980543416144665780 
-0.00000000000000006786 -0.12041648381564598602 0.67992394397486510815 
0.00000000000000002672 -0.11945511952972286129 0.69971540079380589727 
-0.00000000000000015589 -0.11843293244463555525 0.71915779411546065791 
0.00000000000000002205 -0.11735322700859114609 0.73823099171461925572 
-0.00000000000000006091 -0.11621923324428949653 0.75691586797754706328 
-0.00000000000000004861 -0.11503410771208706642 0.77519302146345980820 
-0.00000000000000004246 -0.11380093435460714169 0.79304141670101202521 
0.00000000000000001581 -0.11252272523269317428 0.81043717550988880749 
-0.00000000000000004822 -0.11120242116283671208 0.82735264682266962399 
-0.00000000000000004154 -0.10984289226631432923 0.84375581489709305938 
-0.00000000000000011908 -0.10844693844028198415 0.85961005777147958540 
-0.00000000000000005923 -0.10701728976099551816 0.87487423585015067218 
0.00000000000000002515 -0.10555660682916184756 0.88950307064324651840 
0.00000000000000000658 -0.10406748106719054814 0.90344776278307514783 
-0.00000000000000001639 -0.10255243497782323692 0.91665679402554500754 
0.00000000000000001817 -0.10101392237325736156 0.92907685809398388166 
0.00000000000000000361 -0.09945432858349190219 0.94065386844767917562 
0.00000000000000004987 -0.09787597065217473746 0.95133399622647329963 
-0.00000000000000004284 -0.09628109752776733976 0.96106470054821879767 
0.00000000000000003756 -0.09467189025734093488 0.96979582065093217214 
-0.00000000000000002382 -0.09305046218980816963 0.97748107055015742706 
-0.00000000000000012089 -0.09141885919485516487 0.98407996553379217808 
0.00000000000000002032 -0.08977905990331143393 0.98955983364888655540 
0.00000000000000008322 -0.08813297597414321283 0.99389763203371073175 
-0.00000000000000014167 -0.08648245239271826201 0.99708140091185726295 
-0.00000000000000000549 -0.08482926780445271264 0.99911127111547382018 
-0.00000000000000003068 -0.08317513488741976047 1.00000000000000000000 
-0.00000000000000007483 -0.08152170076698163348 0.99977305102960511984 
0.00000000000000001453 -0.07987054747500511864 0.99846825854992338201 
0.00000000000000006181 -0.07822319245572706414 0.99613513483591675790 
-0.00000000000000000867 -0.07658108911987360212 0.99283388419533857849 
0.00000000000000002330 -0.07494562744818392130 0.98863419091736515210 
0.00000000000000008797 -0.07331813464506352351 0.98361384589505262976 
0.00000000000000007382 -0.07169987584268544545 0.97785727214305473431 
-0.00000000000000012712 -0.07009205485548375414 0.97145400318836550024 
0.00000000000000020868 -0.06849581498462015139 0.96449716119030681760 
-0.00000000000000003542 -0.06691223987168086473 0.95708197420532692412 
0.00000000000000004588 -0.06534235440055073674 0.94930436465323841944 
0.00000000000000003467 -0.06378712564613651936 0.94125963404187196204 
0.00000000000000005250 -0.06224746386835256634 0.93304126254844121924 
-0.00000000000000001478 -0.06072422354955694934 0.92473983624696509676 
0.00000000000000001454 -0.05921820447341791249 0.91644210966547601238 
-0.00000000000000008954 -0.05773015284301246525 0.90823020696741507685 
0.00000000000000002534 -0.05626076243580239999 0.90018096136243186400 
-0.00000000000000003729 -0.05481067579299595677 0.89236538932629638765 
-0.00000000000000000712 -0.05338048544069466661 0.88484829379821172690 
-0.00000000000000000831 -0.05197073514013060558 0.87768798866897101973 
0.00000000000000003640 -0.05058192116423142204 0.87093613551390713923 
-0.00000000000000000731 -0.04921449359769599491 0.86463768259839157704 
0.00000000000000013333 -0.04786885765772950357 0.85883089563018699675 
-0.00000000000000005024 -0.04654537503257445002 0.85354746949459137095 
0.00000000000000003886 -0.04524436523496417478 0.84881271023138404885 
-0.00000000000000000408 -0.04396610696765226173 0.84464577674799112827 
0.00000000000000008222 -0.04271083949818350184 0.84105997216685846052 
0.00000000000000006756 -0.04147876404012763168 0.83806307523752265887 
0.00000000000000004261 -0.04027004513803703750 0.83565770287097651536 
-0.00000000000000010719 -0.03908481205345957360 0.83384169554598264185 
0.00000000000000005597 -0.03792316014940645685 0.83260851806874103254 
-0.00000000000000012645 -0.03678515227075505184 0.83194766891757354621 
0.00000000000000001374 -0.03567082011815726067 0.83184509215553825712 
-0.00000000000000003828 -0.03458016561311642867 0.83228358663195955991 
-0.00000000000000005663 -0.03351429541790862388 0.83324320790751082999 
0.00000000000000002337 -0.03247223501932382239 0.83470165901808901499 
0.00000000000000009074 -0.03145361784332609267 0.83663466683385390166 
-0.00000000000000007797 -0.03045834412723721213 0.83901634136701985778 
0.00000000000000012465 -0.02948629073975806217 0.84181951593243575793 
-0.00000000000000008032 -0.02853731246001952118 0.84501606656721250932 
0.00000000000000016703 -0.02761124323400314037 0.84857720956931181888 
0.00000000000000002549 -0.02670789740690506647 0.85247377642068089543 
0.00000000000000011221 -0.02582707093012986260 0.85667646571950517576 
0.00000000000000007348 -0.02496854254172369003 0.86115607206032851462 
0.00000000000000004410 -0.02413207491916377970 0.86588369207245863279 
-0.00000000000000006639 -0.02331741580353949642 0.87083090805880436491 
-0.00000000000000008930 -0.02252429909426908322 0.87596994987192078330 
-0.00000000000000014693 -0.02175244591360444776 0.88127383582441398691 
-0.00000000000000004947 -0.02100156564028484926 0.88671649355999171416 
-0.00000000000000003375 -0.02027135691179820717 0.89227286191221832912 
0.00000000000000001086 -0.01956122042619092699 0.89791897485336258367 
0.00000000000000002103 -0.01887002012934969192 0.90363202789245522517 
-0.00000000000000002381 -0.01819860989694293066 0.90939036583945243031 
0.00000000000000004274 -0.01754665061881581153 0.91517305769386669834 
0.00000000000000009741 -0.01691379718612210856 0.92095889613011405750 
-0.00000000000000002943 -0.01629969928884828292 0.92672512542218565823 
0.00000000000000004767 -0.01570400218122978281 0.93244619377925797021 
-0.00000000000000009196 -0.01512634741519690296 0.93809271303557884014 
-0.00000000000000008039 -0.01456637354204666501 0.94363072407406323183 
0.00000000000000009035 -0.01402371678261250983 0.94902130640263493433 
0.00000000000000003580 -0.01349801166625221906 0.95422052926122591376 
0.00000000000000003475 -0.01298889163904164146 0.95917971496703180456 
0.00000000000000002033 -0.01249598964160299544 0.96384596928835997165 
-0.00000000000000006365 -0.01201893865705276447 0.96816292561556616114 
-0.00000000000000007847 -0.01155737222959216104 0.97207164733183737404 
-0.00000000000000009047 -0.01111092495430709808 0.97551163433835585970 
-0.00000000000000000985 -0.01067923293877557668 0.97842188382279315917 
0.00000000000000002444 -0.01026193423711845888 0.98074196106582245402 
-0.00000000000000000564 -0.00985866925715324187 0.98241304277592900185 
0.00000000000000002483 -0.00946908114133933679 0.98337893614708238310 
0.00000000000000007034 -0.00909281612222061913 0.98358733135248621604 
-0.00000000000000001978 -0.00872952385309610709 0.98299153185831855684 
0.00000000000000013890 -0.00837885771465868984 0.98155240258335063608 
0.00000000000000007496 -0.00804047509835862859 0.97924021197976307551 
0.00000000000000001241 -0.00771403766725575757 0.97603616303397888743 
-0.00000000000000004023 -0.00739921159513447745 0.97193350211703732899 
0.00000000000000003345 -0.00709566778465601459 0.96693816196846993360 
-0.00000000000000005019 -0.00680308206532990317 0.96106894185906177608 
-0.00000000000000005805 -0.00652113537208095541 0.95435725896038525740 
-0.00000000000000013536 -0.00624951390519142697 0.94684652400423352514 
-0.00000000000000001711 -0.00598790927239093839 0.93859120450534883062 
-0.00000000000000001663 -0.00573601861385942581 0.92965564256332244852 
0.00000000000000010571 -0.00549354471090862922 0.92011269344641255508 
0.00000000000000006982 -0.00526019607908601635 0.91004224725792048911 
0.00000000000000000376 -0.00503568704644821643 0.89952969011814132294 
0.00000000000000001319 -0.00481973781772960293 0.88866435431005919021 
0.00000000000000013279 -0.00461207452512260585 0.87753799936378340529 
-0.00000000000000008743 -0.00441242926637440414 0.86624335854853073968 
0.00000000000000008013 -0.00422054013088248720 0.85487277802090522183 
0.00000000000000005799 -0.00403615121446799542 0.84351696915755514095 
0.00000000000000002587 -0.00385901262347527465 0.83226388851103050293 
0.00000000000000005675 -0.00368888046884170880 0.82119775444034659451 
0.00000000000000007902 -0.00352551685075416831 0.81039820480718671725 
-0.00000000000000011441 -0.00336868983449853301 0.79993959618665000377 
0.00000000000000003644 -0.00321817341808470873 0.78989044178636691473 
-0.00000000000000004406 -0.00307374749221282642 0.78031298265277748705 
0.00000000000000004145 -0.00293519779312812054 0.77126288471178794381 
0.00000000000000008247 -0.00280231584889356969 0.76278905268138275098 
0.00000000000000004700 -0.00267489891958418722 0.75493355084290347801 
0.00000000000000005445 -0.00255274993189941830 0.74773162000330850585 
0.00000000000000004593 -0.00243567740865745664 0.74121177966308626761 
-0.00000000000000000599 -0.00232349539362738597 0.73539600436767948999 
0.00000000000000010476 -0.00221602337212815090 0.73029996341290492889 
0.00000000000000004052 -0.00211308618781140458 0.72593331345040645886 
0.00000000000000007940 -0.00201451395601979838 0.72230003405627396518 
-0.00000000000000003617 -0.00192014197410115216 0.71939879694818931188 
0.00000000000000004472 -0.00182981062903484707 0.71722336023226951340 
-0.00000000000000000952 -0.00174336530271339209 0.71576297980323533299 
0.00000000000000015429 -0.00166065627520155896 0.71500283078785997759 
0.00000000000000001020 -0.00158153862628295904 0.71492443269306971132 
-0.00000000000000006936 -0.00150587213558199431 0.71550607268117161208 
0.00000000000000002484 -0.00143492962859960113 0.71672322213328676366 
-0.00000000000000009592 -0.00136709316272589157 0.71854894236865263224 
0.00000000000000004767 -0.00130224021585861774 0.72095427605496820167 
0.00000000000000001423 -0.00124025234094037062 0.72390862146829548784 
0.00000000000000001203 -0.00118101507329199172 0.72738008733697234742 
0.00000000000000003430 -0.00112441783746631825 0.73133582653066209200 
-0.00000000000000006134 -0.00107035385383466249 0.73574234733249077589 
0.00000000000000007909 -0.00101872004509615650 0.74056580145956796279 
0.00000000000000007421 -0.00096941694288830993 0.74577224837626410192 
0.00000000000000011196 -0.00092234859466944132 0.75132789577716885265 
0.00000000000000001591 -0.00087742247102530230 0.75719931640500603987 
-0.00000000000000002450 -0.00083454937354493020 0.76335364161548691087 
0.00000000000000006243 -0.00079364334339800298 0.76975873230899238830 
0.00000000000000005172 -0.00075462157073471852 0.77638332802107001829 
0.00000000000000001385 -0.00071740430502101446 0.78319717510298603180 
-0.00000000000000004630 -0.00068191476641043657 0.79017113503307923050 
-0.00000000000000012368 -0.00064750599626291119 0.79727727398234216061 
0.00000000000000000612 -0.00061387643936174551 0.80448893479543559515 
0.00000000000000001853 -0.00058183788624357948 0.81178077589535935221 
0.00000000000000006501 -0.00055132045691317700 0.81912855953770913331 
0.00000000000000006438 -0.00052225702945924747 0.82650835750417550596 
0.00000000000000005534 -0.00049458314897559753 0.83389534252958763538 
-0.00000000000000000510 -0.00046823693846377031 0.84126250033209171164 
-0.00000000000000001367 -0.00044315901173606767 0.84857948744070221814 
0.00000000000000008609 -0.00041929238833847329 0.85581176373753242714 
0.00000000000000006518 -0.00039658241049938734 0.86292005958121220655 
0.00000000000000005257 -0.00037497666211485248 0.86986018937122477901 
0.00000000000000011474 -0.00035442488976598999 0.87658319147409147210 
0.00000000000000004032 -0.00033487892577093841 0.88303575459375638346 
0.00000000000000008373 -0.00031629261326248829 0.88916087978698654659 
0.00000000000000000160 -0.00029862173328090019 0.89489872292886729621 
-0.00000000000000002860 -0.00028182393387049618 0.90018756259733523351 
0.00000000000000002633 -0.00026585866116176266 0.90496484158332701764 
0.00000000000000003461 -0.00025068709242290449 0.90916823541238078743 
-0.00000000000000000379 -0.00023627207105551511 0.91273670753491709107 
0.00000000000000010867 -0.00022257804351542764 0.91561151760162251545 
0.00000000000000005467 -0.00020957099812841435 0.91773717268739951614 
0.00000000000000009777 -0.00019721840577770891 0.91906251989245146827 
0.00000000000000008181 -0.00018548916242975194 0.91954229905512852028 
0.00000000000000003915 -0.00017435353347139941 0.91913897944222011649 
-0.00000000000000000803 -0.00016378309982470138 0.91782454234858201758 
-0.00000000000000002006 -0.00015375070580603929 0.91558198514497424192 
0.00000000000000000205 -0.00014423040869704557 0.91240642182791631409 
0.00000000000000001806 -0.00013519742999041305 0.90830572675868470611 
0.00000000000000007072 -0.00012662810827757101 0.90330071826466573626 
0.00000000000000002318 -0.00011849985374001117 0.89742491215173714192 
-0.00000000000000005754 -0.00011079110420836025 0.89072389597331713684 
0.00000000000000000426 -0.00010348128275260786 0.88325438632827391050 
-0.00000000000000001885 -0.00009655075676666478 0.87508303605039583495 
0.00000000000000007492 -0.00008998079850807772 0.86628505789244047985 
-0.00000000000000000254 -0.00008375354705898790 0.85694272773898927387 
-0.00000000000000000311 -0.00007785197166645900 0.84714382468658977476 
0.00000000000000001379 -0.00007225983642979549 0.83698005840127442934 
0.00000000000000008773 -0.00006696166629450831 0.82654552666697367336 
-0.00000000000000003500 -0.00006194271431668128 0.81593523845625948177 
0.00000000000000006962 -0.00005718893016298475 0.80524373052704856235 
0.00000000000000001842 -0.00005268692980786595 0.79456379870395310583 
-0.00000000000000001371 -0.00004842396639384646 0.78398535878410346989 
0.00000000000000002946 -0.00004438790221936531 0.77359444649285968865 
0.00000000000000014967 -0.00004056718181856695 0.76347236113504446386 
0.00000000000000000323 -0.00003695080609923615 0.75369495353730753262 
0.00000000000000012325 -0.00003352830750659833 0.74433205552732206733 
-0.00000000000000002680 -0.00003028972617636044 0.73544704549958250794 
-0.00000000000000002583 -0.00002722558704882518 0.72709654251906385980 
-0.00000000000000001264 -0.00002432687790882465 0.71933021985084311112 
-0.00000000000000004245 -0.00002158502832194260 0.71219072771188607351 
0.00000000000000006668 -0.00001899188943449633 0.70571371435711838238 
0.00000000000000005041 -0.00001653971461165246 0.69992793427463684264 
0.00000000000000009329 -0.00001422114087913219 0.69485543221723300444 
0.00000000000000005064 -0.00001202917114353653 0.69051179198659218272 
0.00000000000000007005 -0.00000995715716197560 0.68690643926485828175 
-0.00000000000000006895 -0.00000799878323516943 0.68404298831314391816 
-0.00000000000000012060 -0.00000614805059560501 0.68191962299054353913 
-0.00000000000000004226 -0.00000439926246690825 0.68052950325780514618 
0.00000000000000003438 -0.00000274700976883571 0.67986118908917381187 
-0.00000000000000001458 -0.00000118615744268689 0.67989907450062880834 
0.00000000000000005782 -0.00000000000000003894 0.68062382519329733821 
0.00000000000000005688 0.00000000000000010637 0.68201281409137315404 
0.00000000000000001246 -0.00000000000000012096 0.68404054981173734173 
-0.00000000000000015423 0.00000000000000001976 0.68667909382784053651 
-0.00000000000000008240 0.00000000000000001606 0.68989846277588595669 
0.00000000000000000982 0.00000000000000004019 0.69366701299167798922 
-0.00000000000000003404 -0.00000000000000004807 0.69795180495829134415 
0.00000000000000000713 -0.00000000000000000054 0.70271894588596017783 
-0.00000000000000003510 0.00000000000000000225 0.70793390913571141443 
-0.00000000000000004055 0.00000000000000009581 0.71356182963755054871 
-0.00000000000000011157 -0.00000000000000009198 0.71956777484370748610 
-0.00000000000000000913 0.00000000000000006591 0.72591699109932783518 
-0.00000000000000001756 0.00000000000000003809 0.73257512560940107882 
0.00000000000000003049 0.00000000000000008345 0.73950842443430153672 
-0.00000000000000000100 -0.00000000000000001786 0.74668390715996668661 
0.00000000000000007152 0.00000000000000010709 0.75406951906552821541 
-0.00000000000000010262 0.00000000000000002113 0.76163426175420623210 
0.00000000000000002705 0.00000000000000003367 0.76934830332562886834 
-0.00000000000000014048 -0.00000000000000007239 0.77718306925246660732 
-0.00000000000000004435 0.00000000000000000266 0.78511131518370824711 
-0.00000000000000007855 -0.00000000000000007001 0.79310717572613664839 
-0.00000000000000011851 -0.00000000000000012296 0.80114603378342885698 
0.00000000000000003274 0.00000000000000003915 0.80920384307835668825 
0.00000000000000008493 0.00000000000000000285 0.81725596990473203807 
-0.00000000000000005169 0.00000000000000003551 0.82527589606775286768 
-0.00000000000000003812 0.00000000000000002001 0.83323403124513917284 
0.00000000000000002053 -0.00000000000000000618 0.84109678057127923445 
-0.00000000000000002161 0.00000000000000006998 0.84882593928312877196 
-0.00000000000000003750 -0.00000000000000006001 0.85637843448216988129 
0.00000000000000000137 -0.00000000000000002175 0.86370639925848324836 
0.00000000000000006189 0.00000000000000006536 0.87075754243728309412 
0.00000000000000006646 0.00000000000000007171 0.87747576475016331177 
-0.00000000000000000832 0.00000000000000004803 0.88380196670807320558 
0.00000000000000008862 0.00000000000000001699 0.88967499283452011749 
-0.00000000000000002734 -0.00000000000000005093 0.89503265963922196136 
0.00000000000000010694 -0.00000000000000015789 0.89981281957769732038 
-0.00000000000000002257 -0.00000000000000000862 0.90395441935005571565 
-0.00000000000000008672 -0.00000000000000001009 0.90739851757660228149 
-0.00000000000000006944 0.00000000000000002641 0.91008923366812377598 
0.00000000000000004850 -0.00000000000000006958 0.91197460624924986394 
-0.00000000000000006432 -0.00000000000000000291 0.91300734557061502539 
0.00000000000000002577 0.00000000000000006551 0.91314546982197586367 
-0.00000000000000002848 -0.00000000000000002510 0.91235282006091444895 
0.00000000000000002528 0.00000000000000006306 0.91059945257484831149 
-0.00000000000000005354 -0.00000000000000001497 0.90786191090672963000 
0.00000000000000001159 -0.00000000000000001102 0.90412338252987289877 
0.00000000000000003613 -0.00000000000000001086 0.89937374730328878414 
0.00000000000000011047 0.00000000000000005762 0.89360952643372959514 
0.00000000000000002159 0.00000000000000004956 0.88683374177712903652 
0.00000000000000009577 -0.00000000000000009353 0.87905569599422250793 
0.00000000000000001894 -0.00000000000000012753 0.87029068439561207970 
-0.00000000000000008604 0.00000000000000000949 0.86055964933010287155 
-0.00000000000000018737 0.00000000000000002868 0.84988878774226028767 
-0.00000000000000009192 0.00000000000000003663 0.83830912210144103991 
0.00000000000000002204 -0.00000000000000013425 0.82585604433035408878 
0.00000000000000000910 0.00000000000000000065 0.81256884167649612305 
-0.00000000000000000088 0.00000000000000003152 0.79849021270930142791 
-0.00000000000000002706 0.00000000000000001210 0.78366578081923099486 
-0.00000000000000013918 0.00000000000000001606 0.76814361176730472369 
-0.00000000000000000144 -0.00000000000000011122 0.75197374100538016961 
0.00000000000000002059 -0.00000000000000005683 0.73520771567557963166 
-0.00000000000000007670 -0.00000000000000002986 0.71789815541485768602 
0.00000000000000001157 0.00000000000000000241 0.70009833534795107290 
-0.00000000000000002516 -0.00000000000000004500 0.68186179395631507649 
-0.00000000000000000715 0.00000000000000002849 0.66324196786727274144 
-0.00000000000000004620 0.00000000000000001143 0.64429185501963870397 
0.00000000000000000102 -0.00000000000000008164 0.62506370713109737913 
-0.00000000000000014220 -0.00000000000000005196 0.60560875191877738821 
-0.00000000000000006483 -0.00000000000000002505 0.58597694510686060276 
-0.00000000000000004791 0.00000000000000005220 0.56621675189190756594 
0.00000000000000000102 -0.00000000000000008357 0.54637495722544349164 
0.00000000000000003068 -0.00000000000000000417 0.52649650401126235622 
-0.00000000000000003461 -0.00000000000000008808 0.50662435809859829305 
-0.00000000000000012433 -0.00000000000000005320 0.48679939877827371753 
-0.00000000000000018672 -0.00000000000000007833 0.46706033335352137303 
-0.00000000000000005314 0.00000000000000002713 0.44744363425676120238 
-0.00000000000000001311 -0.00000000000000002297 0.42798349711454009014 
-0.00000000000000011820 -0.00000000000000005428 0.40871295128754309145 
-0.00000000000000001610 -0.00000000000000005044 0.38966066764100193431 
0.00000000000000001131 0.00000000000000002532 0.37085365736331438180 
-0.00000000000000003467 0.00000000000000002333 0.35231695493277553899 
-0.00000000000000007526 0.00000000000000008164 0.33407336483399585614 
-0.00000000000000004703 -0.00000000000000011230 0.31614351099724913308 
-0.00000000000000009475 -0.00000000000000002157 0.29854589600234165969 
0.00000000000000001286 -0.00000000000000002721 0.28129696863830883080 
-0.00000000000000011489 -0.00000000000000013781 0.26441119848616645438 
-0.00000000000000003045 -0.00000000000000016120 0.24790115627247261143 
-0.00000000000000003982 0.00000000000000000011 0.23177759882502438349 
0.00000000000000000002 -0.00000000000000008678 0.21604955754732044215 
0.00000000000000002646 -0.00000000000000005256 0.20072442941424228913 
-0.00000000000000011038 -0.00000000000000005432 0.18580806957678694391 
-0.00000000000000002684 -0.00000000000000008489 0.17130488474772634366 
-0.00000000000000000280 -0.00000000000000005280 0.15721792662207986768 
-0.00000000000000005608 -0.00000000000000002556 0.14354898466566945459 
0.00000000000000001410 -0.00000000000000010561 0.13029867768129990702 
0.00000000000000011537 0.00000000000000005142 0.11746654363490298401 
0.00000000017198633513 -0.00000000000000005739 0.10505112729300818131 
0.00000003528810602597 -0.00000000000000010727 0.09305006528797027388 
0.00000052533669544285 -0.00000000000000010583 0.08146016828833632650 
0.00000320464301416043 0.00000000000000003006 0.07027750000852700518 
0.00001238172287956455 -0.00000000000000005017 0.05949745284460087463 
0.00003621306772665619 -0.00000000000000002718 0.04911481997130324323 
0.00008778859822210643 0.00000000000000000273 0.03912386377994453435 
0.00018591676695261779 -0.00000000000000005570 0.02951838057697733081 
0.00035556163104842207 -0.00000000000000008424 0.02029176149961627040 
0.00062792859304663614 -0.00000000000000000129 0.01143704963756305391 
0.00104022468207090601 -0.00000000000000002845 0.00294699337906767847 
0.00163513700786710198 0.00000000000000005808 -0.00518590397468277151 
0.00246008236573783817 0.00000000000000000121 -0.01296933826030160358 
0.00356628425473882191 -0.00000000000000011004 -0.02041116208199074411 
0.00500773262562755062 -0.00000000000000010885 -0.02751934591760837878 
0.00684007790838648579 0.00000000000000000224 -0.03430194258418267639 
0.00911950535249625438 -0.00000000000000010659 -0.04076705493443206346 
0.01190162924731816632 -0.00000000000000015997 -0.04692280664649003952 
0.01524043976172655655 -0.00000000000000019043 -0.05277731596176069018 
0.01918732837005088579 -0.00000000000000002719 -0.05833867222043773171 
0.02379021140285175404 0.00000000000000000100 -0.06361491504055050150 
0.02909276536254874063 -0.00000000000000008063 -0.06861401598429134330 
0.03513378238507961632 -0.00000000000000013605 -0.07334386255464983573 
0.04194664966187022087 -0.00000000000000013414 -0.07781224436590768179 
0.04955895277169045793 0.00000000000000002723 -0.08202684133316016923 
0.05799219968983476692 0.00000000000000002896 -0.08599521372861994306 
0.06726165970253146498 -0.00000000000000008164 -0.08972479395587777684 
0.07737630950451128420 -0.00000000000000013769 -0.09322287989743267833 
0.08833887733680392818 -0.00000000000000013843 -0.09649662969555340697 
0.10014597506638074631 -0.00000000000000002565 -0.09955305783178874934 
0.11278830755536321806 -0.00000000000000008163 -0.10239903237610621656 
0.12625094845336370941 0.00000000000000005514 -0.10504127328263419827 
0.14051367161387970373 0.00000000000000000138 -0.10748635161521921666 
0.15555132763078061142 -0.00000000000000002785 -0.10974068959241713161 
0.17133425546518238347 -0.00000000000000002721 -0.11181056134806396929 
0.18782871974307330243 -0.00000000000000002721 -0.11370209431013747481 
0.20499736501194845695 -0.00000000000000008163 -0.11542127110718344851 
0.22279967901763766958 -0.00000000000000005330 -0.11697393191810755153 
0.24119245787257687086 -0.00000000000000002561 -0.11836577718754720534 
0.26013026681064044254 -0.00000000000000016376 -0.11960237063534201463 
0.27956589104218870778 -0.00000000000000005394 -0.12068914249475994060 
0.29945077202075487399 0.00000000000000011067 -0.12163224763600530287 
0.31973542519777986559 -0.00000000000000005356 -0.12243651113290526800 
0.34036983606484094711 -0.00000000000000010845 -0.12310640160873236038 
0.36130383195734777635 0.00000000000000000150 -0.12364685442525687187 
0.38248742771527000084 -0.00000000000000013571 -0.12406268898761776964 
0.40387114386254963083 -0.00000000000000008099 -0.12435861231085339196 
0.42540629647638661393 0.00000000000000000060 -0.12453922251117754971 
0.44704525837077979666 -0.00000000000000002721 -0.12460901219763868830 
0.46874169161676010331 -0.00000000000000008164 -0.12457237174373195221 
0.49045075176668284644 -0.00000000000000008098 -0.12443359242220690397 
0.51212926444433815032 -0.00000000000000010866 -0.12419686938969562440 
0.53373587520953236218 0.00000000000000002755 -0.12386630451091898419 
0.55523117380854491998 -0.00000000000000016328 -0.12344590901508906144 
0.57657779408394738141 -0.00000000000000005408 -0.12293960597973176141 
0.59774049094233883128 -0.00000000000000005451 -0.12235123263951866446 
0.61868619587017370520 -0.00000000000000008170 -0.12168454251981372649 
0.63938405254959174151 0.00000000000000002729 -0.12094291922791104710 
0.65980543416144643576 -0.00000000000000005446 -0.12012913849150762269 
0.67992394397486499713 -0.00000000000000002036 -0.11924789555858160417 
0.69971540079380578625 -0.00000000000000009525 -0.11830262287263552945 
0.71915779411546043587 -0.00000000000000010701 -0.11729667753074747572 
0.73823099171461925572 -0.00000000000000000817 -0.11623334244006551519 
0.75691586797754695226 -0.00000000000000008188 -0.11511582733888946206 
0.77519302146345958615 -0.00000000000000006478 -0.11394726969163530839 
0.79304141670101191419 -0.00000000000000004217 -0.11273073546741151085 
0.81043717550988858545 -0.00000000000000003762 -0.11146921981226379228 
0.82735264682266962399 0.00000000000000003652 -0.11016564762532229937 
0.84375581489709305938 -0.00000000000000000365 -0.10882287404918755680 
0.85961005777147947438 -0.00000000000000006178 -0.10744368488486411017 
0.87487423585015033911 -0.00000000000000002521 -0.10603079694145088607 
0.88950307064324629636 -0.00000000000000020239 -0.10458685833062067450 
0.90344776278307492579 -0.00000000000000002926 -0.10311444871565830783 
0.91665679402554478550 -0.00000000000000000944 -0.10161607952452056391 
0.92907685809398343757 -0.00000000000000003660 -0.10009419413601021442 
0.94065386844767939767 -0.00000000000000007527 -0.09855116804774328998 
0.95133399622647329963 -0.00000000000000002132 -0.09698930903414128279 
0.96106469868191046757 -0.00000000000000005904 -0.09541085730219453498 
0.96979576661235744606 -0.00000000000000006803 -0.09381798565224286346 
0.97748069924521208129 0.00000000000000004942 -0.09221279965048895244 
0.98407854975641551043 -0.00000000000000004250 -0.09059733781943277164 
0.98955592419958893213 0.00000000000000000622 -0.08897357185186087480 
0.99388882981070847400 0.00000000000000003404 -0.08734340685348886135 
0.99706418631458360036 0.00000000000000000745 -0.08570868161880031144 
0.99908090234887636516 -0.00000000000000009315 -0.08407116894409456809 
0.99995048231670891070 0.00000000000000001084 -0.08243257598121907226 
0.99969717260203538878 0.00000000000000006659 -0.08079454463494532834 
0.99835768473334562945 -0.00000000000000010542 -0.07915865200644497945 
0.99598055043890776350 0.00000000000000006388 -0.07752641088483393228 
0.99262517252235482612 0.00000000000000007562 -0.07589927028828467870 
0.98836063840495336219 0.00000000000000005360 -0.07427861605576062398 
0.98326436183179855011 -0.00000000000000010627 -0.07266577149000225111 
0.97742061401781299423 0.00000000000000000681 -0.07106199805199153730 
0.97091899948208337801 -0.00000000000000005870 -0.06946849610674592224 
0.96385292478912687475 -0.00000000000000002380 -0.06788640571994097872 
0.95631810097709935015 0.00000000000000007919 -0.06631680750453088080 
0.94841111303421310463 0.00000000000000013412 -0.06476072351624165280 
0.94022808268437563228 0.00000000000000001464 -0.06321911819652696607 
0.93186344415934918572 0.00000000000000002930 -0.06169289936133511010 
0.92340884668835887528 -0.00000000000000002039 -0.06018291923380494901 
0.91495219218962242635 0.00000000000000000109 -0.05868997551880894559 
0.90657681212110730051 -0.00000000000000000109 -0.05721481251708911836 
0.89836078362814231202 0.00000000000000001817 -0.05575812227657258452 
0.89037638197976221033 0.00000000000000007598 -0.05432054577833002329 
0.88268966376588531286 0.00000000000000000804 -0.05290267415452620803 
0.87536017337693960982 0.00000000000000012562 -0.05150504993562830813 
