-0.00000000000000013268 0.00000000000000005443 0.00000000000000010886 
-0.00000000000000008654 0.00000000000000005443 0.00000000000000011567 
0.00000000000000002424 0.00000000000000010886 0.00000000000000023133 
0.00000000000000003460 0.00000000000000005443 0.00000000000000011567 
-0.00000000000000001568 0.00000000000000000000 0.00000000000000008845 
-0.00000000000000010626 0.00000000000000010886 0.00000000000000010546 
-0.00000000000000006926 0.00000000000000005443 0.00000000000000017010 
-0.00000000000000004917 -0.00000000000000010886 0.00000000000000012928 
-0.00000000000000007240 0.00000000000000005443 0.00000000000000000000 
-0.00000000000000005953 0.00000000000000000000 0.00000000000000010206 
-0.00000000000000006506 0.00000000000000010886 0.00000000000000006464 
-0.00000000000000005518 0.00000000000000005443 0.00000000000000014969 
-0.00000000000000014118 -0.00000000000000005443 0.00000000000000014288 
-0.00000000000000001425 0.00000000000000010886 0.00000000000000020072 
-0.00000000000000011758 0.00000000000000000000 0.00000000000000016329 
-0.00000000000000016712 0.00000000000000000000 0.00000000000000001021 
0.00000000000000005209 -0.00000000000000021773 -0.00000000000000009526 
-0.00000000000000003891 0.00000000000000010886 0.00000000000000016670 
0.00000000000000002700 0.00000000000000010886 0.00000000000000012587 
0.00000000000000003700 0.00000000000000016329 0.00000000000000012928 
-0.00000000000000012885 0.00000000000000000000 0.00000000000000011907 
-0.00000000000000007527 0.00000000000000010886 0.00000000000000013268 
-0.00000000000000005996 0.00000000000000000000 0.00000000000000007825 
-0.00000000000000003062 0.00000000000000010886 0.00000000000000008505 
-0.00000000000000012715 0.00000000000000005443 0.00000000000000002381 
-0.00000000000000003530 0.00000000000000000000 0.00000000000000014628 
-0.00000000000000006761 0.00000000000000000000 0.00000000000000007144 
-0.00000000000000014033 0.00000000000000005443 0.00000000000000011737 
-0.00000000000000008122 -0.00000000000000010886 0.00000000000000005953 
0.00000000000000009696 0.00000000000000010886 0.00000000000000004593 
-0.00000000000000003827 0.00000000000000010886 0.00000000000000014118 
-0.00000000000000008888 0.00000000000000010886 0.00000000000000001701 
0.00000000000000002509 -0.00000000000000016329 0.00000000000000007569 
-0.00000000000000005953 0.00000000000000010886 0.00000000000000013268 
0.00000000000000001531 0.00000000000000005443 0.00000000000000010376 
0.00000000000000013693 0.00000000000000005443 0.00000000000000005783 
-0.00000000000000008250 0.00000000000000010886 0.00000000000000009781 
-0.00000000000000008845 0.00000000000000010886 0.00000000000000004784 
-0.00000000000000005443 0.00000000000000005443 0.00000000000000009834 
0.00000000000000000510 0.00000000000000005443 0.00000000000000004311 
-0.00000000000000014714 0.00000000000000005443 0.00000000000000001340 
-0.00000000000000009355 0.00000000000000000000 0.00000000000000009547 
-0.00000000000000008250 0.00000000000000000000 0.00000000000000007782 
-0.00000000000000007995 0.00000000000000010886 0.00000000000000014714 
-0.00000000000000013863 -0.00000000000000010886 0.00000000000000009526 
0.00000000000000001871 0.00000000000000005443 0.00000000000000024324 
0.00000000000000000936 0.00000000000000010886 0.00000000000000010546 
-0.00000000000000012247 0.00000000000000005443 0.00000000000000007825 
-0.00000000000000006209 0.00000000000000000000 0.00000000000000005273 
-0.00000000000000005613 -0.00000000000000010886 0.00000000000000014458 
0.00000000000000001616 0.00000000000000005443 0.00000000000000006804 
0.00000000000000004082 0.00000000000000016329 0.00000000000000014884 
-0.00000000000000011056 0.00000000000000000000 0.00000000000000017265 
-0.00000000000000009185 0.00000000000000010886 0.00000000000000012247 
-0.00000000000000010121 0.00000000000000016329 0.00000000000000009015 
0.00000000000000000680 0.00000000000000010886 0.00000000000000014458 
-0.00000000000000002977 0.00000000000000016329 -0.00000000000000004423 
-0.00000000000000000936 0.00000000000000000000 0.00000000000000003572 
-0.00000000000000008250 0.00000000000000005443 0.00000000000000014118 
-0.00000000000000016329 0.00000000000000000000 0.00000000000000003062 
-0.00000000000000011907 0.00000000000000000000 0.00000000000000011907 
0.00000000000000003997 0.00000000000000010886 0.00000000000000001191 
-0.00000000000000004252 -0.00000000000000005443 0.00000000000000010206 
-0.00000000000000004423 -0.00000000000000005443 0.00000000000000007314 
-0.00000000000000001361 0.00000000000000000000 0.00000000000000003402 
-0.00000000000000005953 0.00000000000000000000 0.00000000000000005783 
-0.00000000000000005018 0.00000000000000000000 0.00000000000000015139 
0.00000000000000005358 0.00000000000000000000 0.00000000000000001361 
-0.00000000000000011397 0.00000000000000005443 0.00000000000000003742 
-0.00000000000000009611 0.00000000000000005443 0.00000000000000000340 
-0.00000000000000014203 0.00000000000000000000 0.00000000000000004763 
-0.00000000000000001616 0.00000000000000000000 0.00000000000000007059 
-0.00000000000000008080 0.00000000000000005443 0.00000000000000008335 
-0.00000000000000002551 -0.00000000000000010886 0.00000000000000005443 
-0.00000000000000016159 0.00000000000000010886 0.00000000000000009526 
-0.00000000000000010461 0.00000000000000000000 0.00000000000000003147 
-0.00000000000000012502 0.00000000000000005443 -0.00000000000000001786 
-0.00000000000000001191 0.00000000000000005443 0.00000000000000013438 
-0.00000000000000017350 0.00000000000000000000 0.00000000000000007825 
0.00000000000000004593 0.00000000000000000000 0.00000000000000007654 
-0.00000000000000006294 0.00000000000000005443 0.00000000000000002551 
-0.00000000000000008675 -0.00000000000000005443 0.00000000000000009270 
-0.00000000000000004933 0.00000000000000016329 0.00000000000000003912 
0.00000000000000000680 0.00000000000000000000 0.00000000000000010716 
-0.00000000000000008505 0.00000000000000000000 0.00000000000000014373 
-0.00000000000000016500 0.00000000000000005443 0.00000000000000006124 
-0.00000000000000017350 0.00000000000000005443 0.00000000000000008505 
0.00000000000000001191 -0.00000000000000010886 0.00000000000000007995 
-0.00000000000000011056 -0.00000000000000010886 0.00000000000000000936 
-0.00000000000000013778 0.00000000000000000000 0.00000000000000002892 
-0.00000000000000013098 -0.00000000000000010886 0.00000000000000006889 
-0.00000000000000014458 0.00000000000000005443 -0.00000000000000000595 
-0.00000000000000016840 0.00000000000000005443 0.00000000000000010461 
-0.00000000000000005783 0.00000000000000000000 0.00000000000000004125 
-0.00000000000000006464 0.00000000000000010886 0.00000000000000000085 
-0.00000000000000013608 -0.00000000000000005443 0.00000000000000006209 
-0.00000000000000011227 -0.00000000000000005443 0.00000000000000013480 
-0.00000000000000015989 -0.00000000000000005443 0.00000000000000017988 
-0.00000000000000008335 0.00000000000000010886 0.00000000000000002466 
-0.00000000000000000170 -0.00000000000000005443 0.00000000000000007527 
-0.00000000000000010716 -0.00000000000000010886 0.00000000000000007017 
-0.00000000000000008165 0.00000000000000010886 0.00000000000000003827 
-0.00000000000000014118 0.00000000000000005443 0.00000000000000000978 
-0.00000000000000007314 0.00000000000000000000 0.00000000000000006932 
-0.00000000000000007995 0.00000000000000000000 0.00000000000000003870 
-0.00000000000000007484 0.00000000000000005443 0.00000000000000001914 
0.00000000000064696552 0.00000000000000000000 0.00000000000000006294 
0.00000000721498044190 0.00000000000000000000 0.00000000000000002892 
0.00000020720885734346 0.00000000000000005443 0.00000000000000006187 
0.00000166766660539187 0.00000000000000005443 0.00000000000000009696 
0.00000750999963557300 -0.00000000000000005443 0.00000000000000005805 
0.00002420805069798204 0.00000000000000000000 0.00000000000000003827 
0.00006276684880806523 -0.00000000000000005443 0.00000000000000006549 
0.00013963676876468193 0.00000000000000000000 -0.00000000000000003785 
0.00027729237172858780 0.00000000000000000000 0.00000000000000004508 
0.00050445693931884799 -0.00000000000000010886 0.00000000000000011822 
0.00085598846783873294 -0.00000000000000016329 0.00000000000000012205 
0.00137246481678036871 0.00000000000000005443 0.00000000000000007229 
0.00209951810300643398 0.00000000000000005443 0.00000000000000002275 
0.00308697389484634006 -0.00000000000000005443 -0.00000000000000003317 
0.00438785131591564424 -0.00000000000000005443 -0.00000000000000008633 
0.00605727738404236975 -0.00000000000000010886 0.00000000000000002849 
0.00815136398366796133 0.00000000000000000000 0.00000000000000005528 
0.01072608970201058276 -0.00000000000000005443 -0.00000000000000010036 
0.01383622201659107792 0.00000000000000005443 -0.00000000000000001701 
0.01753430848535569506 -0.00000000000000010886 0.00000000000000010376 
0.02186975899656385183 0.00000000000000000000 0.00000000000000002126 
0.02688803500745144334 0.00000000000000000000 -0.00000000000000003232 
0.03262995617629390471 -0.00000000000000010886 0.00000000000000004252 
0.03913112994502188080 0.00000000000000000000 0.00000000000000000850 
0.04642150548444162056 0.00000000000000000000 0.00000000000000009696 
0.05452504996242628355 -0.00000000000000010886 0.00000000000000007314 
0.06345954230434466825 -0.00000000000000005443 0.00000000000000006124 
0.07323647743591457648 -0.00000000000000005443 -0.00000000000000000850 
0.08386107237353025712 -0.00000000000000005443 0.00000000000000006464 
0.09533236439309125676 -0.00000000000000010886 0.00000000000000001021 
0.10764339080133292215 -0.00000000000000005443 -0.00000000000000003572 
0.12078143949079660213 -0.00000000000000016329 0.00000000000000000170 
0.13472835942102984186 -0.00000000000000005443 0.00000000000000001191 
0.14946092037878122571 -0.00000000000000010886 0.00000000000000003062 
0.16495121177809299318 -0.00000000000000005443 -0.00000000000000000680 
0.18116707082185515287 0.00000000000000000000 0.00000000000000004082 
0.19807253101943611551 -0.00000000000000002722 0.00000000000000001701 
0.21562828280561879835 0.00000000000000000000 0.00000000000000001701 
0.23379213880440846696 -0.00000000000000010886 -0.00000000000000003402 
0.25251949710223836609 -0.00000000000000005443 -0.00000000000000006464 
0.27176379671790118486 -0.00000000000000010886 0.00000000000000001361 
0.29147696026432462491 -0.00000000000000002722 0.00000000000000007144 
0.31160981957673927756 -0.00000000000000005443 -0.00000000000000002722 
0.33211252082260517282 0.00000000000000005443 0.00000000000000006124 
0.35293490630331553204 0.00000000000000008165 0.00000000000000000000 
0.37402687080093066641 -0.00000000000000010886 0.00000000000000008845 
0.39533869091175022348 -0.00000000000000002722 -0.00000000000000006804 
0.41682132634079294142 -0.00000000000000013608 -0.00000000000000001021 
0.43842669260692912481 0.00000000000000000000 -0.00000000000000003062 
0.46010790502837262128 -0.00000000000000010886 -0.00000000000000002041 
0.48181949422417208462 0.00000000000000002722 -0.00000000000000011227 
0.50351759368164028530 -0.00000000000000004082 -0.00000000000000005443 
0.52516010020519321433 0.00000000000000001361 -0.00000000000000005443 
0.54670680828209317070 -0.00000000000000002722 -0.00000000000000005443 
0.56811951957851691830 -0.00000000000000004082 0.00000000000000002722 
0.58936212891884476317 -0.00000000000000001361 -0.00000000000000006124 
0.61040068820562698448 0.00000000000000010886 0.00000000000000000000 
0.63120344981097031845 0.00000000000000002722 0.00000000000000006804 
0.65174089101555698900 0.00000000000000005443 -0.00000000000000008845 
0.67198572109251697437 0.00000000000000001361 -0.00000000000000002041 
0.69191287263311207489 0.00000000000000004763 -0.00000000000000005443 
0.71149947603017893449 -0.00000000000000014969 0.00000000000000000680 
0.73072471540766448239 0.00000000000000004763 0.00000000000000004082 
0.74956919978306446595 0.00000000000000003402 -0.00000000000000002041 
0.76801380103516470044 0.00000000000000006464 -0.00000000000000002041 
0.78603829235748212678 0.00000000000000003742 0.00000000000000010886 
0.80362005944686809578 -0.00000000000000005103 -0.00000000000000006804 
0.82073304829004734007 -0.00000000000000001871 0.00000000000000002722 
0.83734703423815770584 0.00000000000000001531 0.00000000000000008165 
0.85342724125759195086 0.00000000000000000436 -0.00000000000000008165 
0.86893430237505919767 -0.00000000000000003742 -0.00000000000000013608 
0.88382452804802658086 -0.00000000000000000850 -0.00000000000000007484 
0.89805043503497661295 0.00000000000000000850 -0.00000000000000002041 
0.91156148158926131320 -0.00000000000000007654 -0.00000000000000003402 
0.92430495332485618221 -0.00000000000000002722 -0.00000000000000007484 
0.93622694625101554600 0.00000000000000002381 -0.00000000000000002722 
0.94727339798106136026 -0.00000000000000000340 -0.00000000000000004082 
0.95739112403318271660 -0.00000000000000007484 -0.00000000000000000680 
0.96652882274982054867 0.00000000000000003402 -0.00000000000000008845 
0.97463802636111707134 -0.00000000000000012247 -0.00000000000000001361 
0.98167413183311069691 0.00000000000000001361 -0.00000000000000000680 
0.98759786330364862650 -0.00000000000000003402 -0.00000000000000001361 
0.99237709003550966802 0.00000000000000006124 -0.00000000000000015649 
0.99598865279393278271 0.00000000000000000680 -0.00000000000000007484 
0.99841994950428392119 0.00000000000000002041 0.00000000000000005443 
0.99967013699701423590 0.00000000000000010886 -0.00000000000000010206 
0.99975088245715804103 0.00000000000000000000 -0.00000000000000014288 
0.99868665219990460091 0.00000000000000009526 -0.00000000000000011567 
0.99651456185350117956 0.00000000000000008845 0.00000000000000009526 
0.99328383516306362200 -0.00000000000000004763 -0.00000000000000006124 
0.98905493179408598969 -0.00000000000000004082 0.00000000000000004082 
0.98389841037144831759 0.00000000000000000000 -0.00000000000000004763 
0.97789359362605476900 0.00000000000000007484 -0.00000000000000002722 
0.97112709956051035398 -0.00000000000000000680 -0.00000000000000004082 
0.96369129723640178931 0.00000000000000004763 -0.00000000000000017690 
0.95568273907671419387 -0.00000000000000005443 -0.00000000000000005443 
0.94720061417510370561 0.00000000000000010206 -0.00000000000000006124 
0.93834525952584746378 0.00000000000000010886 -0.00000000000000005443 
0.92921675870088948912 0.00000000000000002041 -0.00000000000000013608 
0.91991365055300777787 -0.00000000000000002041 0.00000000000000006124 
0.91053176417603254311 0.00000000000000002722 -0.00000000000000000680 
0.90116319069491079841 0.00000000000000000000 -0.00000000000000002722 
0.89189539752951318974 0.00000000000000002722 -0.00000000000000016329 
0.88281048657823768533 -0.00000000000000002722 -0.00000000000000006124 
0.87398459427576413727 0.00000000000000013608 0.00000000000000004763 
0.86548742865076855324 0.00000000000000001361 0.00000000000000004763 
0.85738193628947967362 0.00000000000000004082 0.00000000000000000680 
0.84972409043866037326 0.00000000000000012247 -0.00000000000000006804 
0.84256279029322422858 0.00000000000000021773 -0.00000000000000004082 
0.83593986074572279588 0.00000000000000000000 -0.00000000000000002722 
0.82989014146588480081 0.00000000000000001361 -0.00000000000000012928 
0.82444165407032377058 -0.00000000000000002722 -0.00000000000000014969 
0.81961583628186962525 0.00000000000000009526 -0.00000000000000001361 
0.81542783231603155336 -0.00000000000000005443 -0.00000000000000003402 
0.81188682922529431529 -0.00000000000000005443 -0.00000000000000017690 
0.80899642954182593435 0.00000000000000008845 -0.00000000000000000680 
0.80675505125226398828 0.00000000000000000680 -0.00000000000000006804 
0.80515634688583304079 -0.00000000000000008845 -0.00000000000000002381 
0.80418963427478551420 0.00000000000000008845 -0.00000000000000006464 
0.80384033233382590211 0.00000000000000006124 -0.00000000000000001021 
0.80409039598615772437 0.00000000000000000000 -0.00000000000000000340 
0.80491874512479510972 0.00000000000000010206 0.00000000000000004082 
0.80630168322840489736 0.00000000000000003402 -0.00000000000000010206 
0.80821330194330187613 0.00000000000000009526 -0.00000000000000006124 
0.81062586859165364217 0.00000000000000010886 -0.00000000000000002041 
0.81351019416662773143 -0.00000000000000001361 -0.00000000000000003742 
0.81683597992591361336 0.00000000000000011567 -0.00000000000000011907 
0.82057214119482846382 0.00000000000000009526 0.00000000000000002722 
0.82468710743923545614 0.00000000000000014288 -0.00000000000000011567 
0.82914909806775771717 0.00000000000000002722 0.00000000000000003402 
0.83392637377394629450 0.00000000000000002041 -0.00000000000000010886 
0.83898746353437492207 0.00000000000000007484 -0.00000000000000001361 
0.84430136764064322996 0.00000000000000010206 0.00000000000000001701 
0.84983773736484080619 0.00000000000000004763 0.00000000000000000000 
0.85556703204214834546 0.00000000000000008165 -0.00000000000000009866 
0.86146065450402065089 0.00000000000000005443 -0.00000000000000011567 
0.86749106591390900967 0.00000000000000005443 0.00000000000000006124 
0.87363188114779899429 0.00000000000000007484 -0.00000000000000001361 
0.87985794592692556648 -0.00000000000000003402 -0.00000000000000005783 
0.88614539429027916473 0.00000000000000002041 0.00000000000000001021 
0.89247158442398533129 0.00000000000000002041 -0.00000000000000007144 
0.89881454641602442912 -0.00000000000000008165 -0.00000000000000006124 
0.90515189333905543556 -0.00000000000000008165 -0.00000000000000008165 
0.91145952921673878411 -0.00000000000000003402 -0.00000000000000009526 
0.91771042603860597531 -0.00000000000000001361 -0.00000000000000008165 
0.92387363363855701248 0.00000000000000009526 -0.00000000000000002892 
0.92991360711231807468 0.00000000000000008165 -0.00000000000000004593 
0.93578988067680834995 0.00000000000000002722 -0.00000000000000001191 
0.94145707902994690830 -0.00000000000000010886 0.00000000000000002551 
0.94686523300541147741 0.00000000000000002722 -0.00000000000000012077 
0.95196035217983043797 -0.00000000000000001361 -0.00000000000000001021 
0.95668520035608628493 0.00000000000000006804 -0.00000000000000014628 
0.96098021838513181248 0.00000000000000000000 0.00000000000000010036 
0.96478454094914078976 -0.00000000000000006804 0.00000000000000003572 
0.96803705844653331614 -0.00000000000000002722 0.00000000000000002381 
0.97067748103941842164 0.00000000000000002041 -0.00000000000000003062 
0.97264737120002642268 0.00000000000000007484 -0.00000000000000008420 
0.97389121847912873964 -0.00000000000000004082 -0.00000000000000006634 
0.97435790128431976065 -0.00000000000000010886 -0.00000000000000004763 
0.97400256879707802771 0.00000000000000002722 -0.00000000000000005273 
0.97278859958854480006 0.00000000000000001021 -0.00000000000000011652 
0.97068935979373083267 0.00000000000000001361 -0.00000000000000003700 
0.96768959625711958861 -0.00000000000000005443 -0.00000000000000006761 
0.96378638270420491363 -0.00000000000000001361 0.00000000000000000808 
0.95898959559651064666 0.00000000000000004763 0.00000000000000000595 
0.95332193637873563485 0.00000000000000013608 -0.00000000000000009079 
0.94681854273115795273 0.00000000000000002381 -0.00000000000000003168 
0.93952624671487761088 -0.00000000000000017010 -0.00000000000000006292 
0.93150254513052688221 0.00000000000000002381 0.00000000000000009207 
0.92281434919741012202 0.00000000000000005783 -0.00000000000000004763 
0.91353657851151848224 -0.00000000000000004423 -0.00000000000000011886 
0.90375065947896193741 0.00000000000000002041 -0.00000000000000004380 
0.89354298205308890779 0.00000000000000010886 -0.00000000000000007739 
0.88300336138454504908 0.00000000000000006124 -0.00000000000000003317 
0.87222354347930819429 -0.00000000000000001361 -0.00000000000000010504 
0.86129578654822791517 0.00000000000000000680 -0.00000000000000002126 
0.85031154269725761630 0.00000000000000010206 -0.00000000000000004508 
0.83936025812942582913 0.00000000000000014288 -0.00000000000000000085 
0.82852830421381917780 -0.00000000000000002041 -0.00000000000000005868 
0.81789804667467058685 0.00000000000000001021 0.00000000000000000340 
0.80754705577604235511 -0.00000000000000002041 0.00000000000000002637 
0.79754745670647775313 0.00000000000000003402 -0.00000000000000007059 
0.78796541636536787667 -0.00000000000000001191 -0.00000000000000013948 
0.77886076036763562946 0.00000000000000007995 -0.00000000000000010376 
0.77028671225699629765 0.00000000000000003402 0.00000000000000004593 
0.76228974558831497088 -0.00000000000000009866 0.00000000000000000170 
0.75490953864354526370 -0.00000000000000003062 -0.00000000000000003402 
0.74817902102223321492 0.00000000000000009526 -0.00000000000000016329 
0.74212450113835415344 0.00000000000000004082 -0.00000000000000007314 
0.73676586370632979328 0.00000000000000004593 -0.00000000000000013948 
0.73211682656098608923 0.00000000000000007825 -0.00000000000000003912 
0.72818524658459560239 0.00000000000000001361 -0.00000000000000005103 
0.72497346506962823121 0.00000000000000005103 -0.00000000000000004763 
0.72247868349398236543 0.00000000000000006464 -0.00000000000000003742 
0.72069336139661266394 0.00000000000000002381 -0.00000000000000011567 
0.71960562879038825201 0.00000000000000009866 -0.00000000000000002381 
0.71919970631449858800 0.00000000000000001701 0.00000000000000005443 
0.71945632709341622579 -0.00000000000000003912 -0.00000000000000009866 
0.72035315501916186154 -0.00000000000000003742 -0.00000000000000007484 
0.72186519489733780297 -0.00000000000000006464 -0.00000000000000014288 
0.72396519058648856060 0.00000000000000008505 0.00000000000000004082 
0.72662400790863379552 -0.00000000000000004423 -0.00000000000000009866 
0.72981099971184015818 0.00000000000000000340 -0.00000000000000003062 
0.73349435102083582194 0.00000000000000007144 -0.00000000000000009866 
0.73764140271750444633 0.00000000000000007484 -0.00000000000000007484 
0.74221895264945592086 -0.00000000000000002722 0.00000000000000001701 
0.74719353347239458873 0.00000000000000000340 -0.00000000000000007825 
0.75253166689215644780 -0.00000000000000007825 -0.00000000000000014628 
0.75820009428698020848 -0.00000000000000003402 -0.00000000000000008505 
0.76416598396223078815 0.00000000000000012247 -0.00000000000000016329 
0.77039711552106904247 0.00000000000000009866 -0.00000000000000007144 
0.77686204202833775145 0.00000000000000008165 -0.00000000000000009866 
0.78353023080416317470 0.00000000000000007484 0.00000000000000009526 
0.79037218381149876301 0.00000000000000009526 -0.00000000000000013948 
0.79735953870102393992 -0.00000000000000009866 0.00000000000000000340 
0.80446515165037590922 0.00000000000000010546 -0.00000000000000017690 
0.81166316238951319306 0.00000000000000017690 0.00000000000000004082 
0.81892898035333572260 -0.00000000000000001021 -0.00000000000000006124 
0.82623885771324179217 0.00000000000000004082 -0.00000000000000005443 
0.83356888676944373984 0.00000000000000006804 -0.00000000000000012247 
0.84089372560370911902 0.00000000000000006804 -0.00000000000000015649 
0.84818534801847156324 0.00000000000000002722 -0.00000000000000010206 
0.85541200074611922766 0.00000000000000000680 -0.00000000000000009526 
0.86253746633761907425 0.00000000000000012247 -0.00000000000000012247 
0.86952067017113643388 0.00000000000000004763 -0.00000000000000006124 
0.87631562897420334224 0.00000000000000010886 -0.00000000000000012928 
0.88287171157828203683 0.00000000000000000680 -0.00000000000000004763 
0.88913416670414369136 0.00000000000000006124 -0.00000000000000008165 
0.89504486455242304732 0.00000000000000000000 0.00000000000000000000 
0.90054319660641690692 -0.00000000000000000680 -0.00000000000000012928 
0.90556707960494842169 0.00000000000000006124 -0.00000000000000001361 
0.91005401377685835040 -0.00000000000000001361 -0.00000000000000010206 
0.91394215113400256723 0.00000000000000005443 0.00000000000000005443 
0.91717133614365087269 0.00000000000000004763 -0.00000000000000001361 
0.91968409510291282416 0.00000000000000009526 -0.00000000000000007484 
0.92142670671606519139 0.00000000000000016329 -0.00000000000000012247 
0.92235070464009882851 0.00000000000000012247 -0.00000000000000007825 
0.92241473501558635117 0.00000000000000004082 -0.00000000000000008505 
0.92158642111400324026 0.00000000000000007484 -0.00000000000000009185 
0.91984398531982747294 0.00000000000000002722 -0.00000000000000012928 
0.91717748475189520008 0.00000000000000004082 -0.00000000000000011907 
0.91358959376505177730 0.00000000000000007484 0.00000000000000001361 
0.90909592069302724848 0.00000000000000001361 -0.00000000000000008845 
0.90372488275621576381 0.00000000000000009526 0.00000000000000000680 
0.89751718628025989322 0.00000000000000006124 0.00000000000000010206 
0.89052497261319618627 -0.00000000000000005443 -0.00000000000000010206 
0.88281069604980222376 0.00000000000000007484 -0.00000000000000009526 
0.87444580075994027268 0.00000000000000005443 -0.00000000000000004082 
0.86550926079769419097 0.00000000000000001361 -0.00000000000000001361 
0.85608604198996118839 -0.00000000000000001361 0.00000000000000000000 
0.84626553781591895564 0.00000000000000004763 -0.00000000000000009526 
0.83614002400100029266 0.00000000000000015649 -0.00000000000000002722 
0.82580316897843264456 0.00000000000000009526 -0.00000000000000008165 
0.81534862998567692038 0.00000000000000004082 0.00000000000000000000 
0.80486875761269571772 -0.00000000000000006804 -0.00000000000000005443 
0.79445342526406925732 0.00000000000000009526 -0.00000000000000004082 
0.78418899432900734947 0.00000000000000008845 -0.00000000000000014969 
0.77415742091227757182 0.00000000000000004763 -0.00000000000000005443 
0.76443550576740471048 -0.00000000000000005443 -0.00000000000000008165 
0.75509428556682678391 0.00000000000000004763 -0.00000000000000004082 
0.74619856079949498096 0.00000000000000001361 -0.00000000000000006804 
0.73780655335052114374 0.00000000000000002041 -0.00000000000000006804 
0.72996968512924209627 -0.00000000000000007484 -0.00000000000000006804 
0.72273246790806244810 0.00000000000000008165 -0.00000000000000012247 
0.71613249375130150209 0.00000000000000004082 0.00000000000000000000 
0.71020051498973990611 0.00000000000000004763 -0.00000000000000009526 
0.70496060257478920796 -0.00000000000000012928 -0.00000000000000012247 
0.70043037177272016169 0.00000000000000008165 -0.00000000000000014969 
0.69662126448554617664 0.00000000000000004423 -0.00000000000000005443 
0.69353887796740887328 0.00000000000000000340 -0.00000000000000001361 
0.69118333030524692351 -0.00000000000000001701 -0.00000000000000009526 
0.68954965371662169105 0.00000000000000005443 -0.00000000000000009526 
0.68862820745713548831 -0.00000000000000003742 -0.00000000000000014969 
0.68840510290048995135 0.00000000000000000680 -0.00000000000000010886 
0.68886263413568060709 0.00000000000000007144 -0.00000000000000002722 
0.68997970820138976311 0.00000000000000003062 -0.00000000000000017690 
0.69173226983403757195 0.00000000000000000340 -0.00000000000000001361 
0.69409371633267979984 0.00000000000000003742 -0.00000000000000016329 
0.69703529883309756077 -0.00000000000000001701 -0.00000000000000009526 
0.70052650692925777509 0.00000000000000013608 0.00000000000000002722 
0.70453543417898445433 0.00000000000000006464 -0.00000000000000005443 
0.70902912257985650779 0.00000000000000003742 -0.00000000000000006804 
0.71397388460008037736 -0.00000000000000007825 -0.00000000000000014969 
0.71933560179745137386 0.00000000000000003912 -0.00000000000000010886 
0.72507999945848677914 -0.00000000000000004593 -0.00000000000000012247 
0.73117289704103283210 0.00000000000000001871 -0.00000000000000009526 
0.73758043450925492301 -0.00000000000000001531 -0.00000000000000004082 
0.74426927491247962809 0.00000000000000003232 -0.00000000000000009526 
0.75120678378167637934 0.00000000000000002551 0.00000000000000001361 
0.75836118610238389959 0.00000000000000011056 -0.00000000000000008165 
0.76570170177372376408 -0.00000000000000004933 -0.00000000000000006804 
0.77319866058278985399 0.00000000000000006634 -0.00000000000000005443 
0.78082359781527910236 -0.00000000000000006464 -0.00000000000000004082 
0.78854933168960694712 -0.00000000000000006209 -0.00000000000000017690 
0.79635002118334730081 -0.00000000000000008250 -0.00000000000000013608 
0.80420110225168739415 -0.00000000000000005868 -0.00000000000000019051 
0.81207873599032820433 0.00000000000000003997 -0.00000000000000005443 
0.81995872013096204878 0.00000000000000009228 -0.00000000000000004082 
0.82781519741142273183 -0.00000000000000007144 -0.00000000000000006804 
0.83561943297360607996 0.00000000000000013650 -0.00000000000000013608 
0.84333882459358666672 0.00000000000000005124 -0.00000000000000010886 
0.85093623040986099415 0.00000000000000002520 -0.00000000000000001361 
0.85836964304447926910 -0.00000000000000002344 0.00000000000000000000 
0.86559220116856283589 0.00000000000000000558 -0.00000000000000013608 
0.87255250530079675464 0.00000000000000004933 0.00000000000000004082 
0.87919519049148320278 0.00000000000000012077 -0.00000000000000002722 
0.88546170181193872839 -0.00000000000000001573 -0.00000000000000013608 
0.89129121710865255590 0.00000000000000009058 -0.00000000000000006804 
0.89662166364290185605 0.00000000000000004890 -0.00000000000000008165 
0.90139077975504200424 0.00000000000000002211 -0.00000000000000010886 
0.90553717861341487261 -0.00000000000000005060 -0.00000000000000004082 
0.90900137772205258369 0.00000000000000003870 -0.00000000000000010886 
0.91172676465478674768 -0.00000000000000000213 0.00000000000000005443 
0.91366047609421852105 0.00000000000000002296 -0.00000000000000009526 
0.91475417343858156372 -0.00000000000000003657 0.00000000000000000000 
0.91496470384488570726 0.00000000000000010376 -0.00000000000000010206 
0.91425464051827798340 0.00000000000000003572 0.00000000000000002041 
0.91259270030156958153 0.00000000000000003912 -0.00000000000000001361 
0.90995404016834402494 0.00000000000000005103 0.00000000000000004082 
0.90632043710673093617 0.00000000000000002551 -0.00000000000000010206 
0.90168035814476032996 0.00000000000000001701 0.00000000000000000000 
0.89602892896872043949 0.00000000000000005188 -0.00000000000000009526 
0.88936781078523707844 0.00000000000000002126 -0.00000000000000001361 
0.88170499583989880854 0.00000000000000005018 -0.00000000000000002041 
0.87305453239329322557 -0.00000000000000000765 -0.00000000000000014288 
0.86343619002974525412 -0.00000000000000006634 -0.00000000000000001361 
0.85287507599127698743 -0.00000000000000003317 -0.00000000000000008165 
0.84140121284093949416 -0.00000000000000007569 -0.00000000000000011907 
0.82904908721215342382 0.00000000000000001701 -0.00000000000000005783 
0.81585717873503582620 0.00000000000000002637 -0.00000000000000014288 
0.80186747748270070790 -0.00000000000000007739 -0.00000000000000009526 
0.78712499748084718831 0.00000000000000008930 -0.00000000000000014628 
0.77167729299850240654 0.00000000000000000000 -0.00000000000000006804 
0.75557398350807314369 -0.00000000000000004338 -0.00000000000000004423 
0.73886629238634438099 -0.00000000000000005783 0.00000000000000007144 
0.72160660363868955880 -0.00000000000000009951 -0.00000000000000002381 
0.70384804017721269709 -0.00000000000000000510 -0.00000000000000001361 
0.68564406647783149307 0.00000000000000001701 -0.00000000000000002892 
0.66704811778697870039 -0.00000000000000006634 -0.00000000000000010546 
0.64811325744922543279 0.00000000000000004593 -0.00000000000000008165 
0.62889186338452196523 -0.00000000000000004508 0.00000000000000000000 
0.60943534425836254353 -0.00000000000000007144 -0.00000000000000003742 
0.58979388545929900545 -0.00000000000000012162 0.00000000000000000680 
0.57001622462420553639 0.00000000000000003147 -0.00000000000000011227 
0.55014945613024179849 -0.00000000000000002977 0.00000000000000000680 
0.53023886370067585538 0.00000000000000002551 -0.00000000000000006124 
0.51032778004642531666 -0.00000000000000007484 -0.00000000000000005443 
0.49045747228283975705 -0.00000000000000006379 -0.00000000000000002722 
0.47066705171830319765 -0.00000000000000003402 -0.00000000000000007484 
0.45099340650399605268 -0.00000000000000003742 -0.00000000000000006804 
0.43147172868175592830 -0.00000000000000002722 -0.00000000000000004082 
0.41213457198656333613 0.00000000000000001106 0.00000000000000000680 
0.39301107529492668169 -0.00000000000000000510 -0.00000000000000007484 
0.37412896566175873891 0.00000000000000006719 -0.00000000000000002722 
0.35551369630978124636 -0.00000000000000004848 -0.00000000000000003402 
0.33718848233605647202 -0.00000000000000000340 0.00000000000000001361 
0.31917434796959887056 -0.00000000000000007739 -0.00000000000000010886 
0.30149018388880755026 -0.00000000000000006889 -0.00000000000000005443 
0.28415281317552448792 -0.00000000000000007910 -0.00000000000000014969 
0.26717706455728712500 -0.00000000000000003062 -0.00000000000000009526 
0.25057585166903528773 0.00000000000000010716 -0.00000000000000001361 
0.23436025714858807478 0.00000000000000001701 -0.00000000000000002722 
0.21853962046522693030 -0.00000000000000005698 -0.00000000000000005443 
0.20312162846651043990 0.00000000000000010291 -0.00000000000000012247 
0.18811240771396556259 0.00000000000000001191 -0.00000000000000013608 
0.17351661776265103754 -0.00000000000000002041 -0.00000000000000002722 
0.15933754462205873548 -0.00000000000000004933 -0.00000000000000013608 
0.14557719371574034950 -0.00000000000000002892 -0.00000000000000005443 
0.13223638173398324924 -0.00000000000000003487 -0.00000000000000013608 
0.11931482684736353928 0.00000000000000006549 -0.00000000000000014969 
0.10681123681880171084 -0.00000000000000008675 0.00000000000064694681 
0.09472339461761625223 0.00000000000000005103 0.00000000721498044020 
0.08304824120085485539 0.00000000000000004423 0.00000020720885738258 
0.07178195518481542137 -0.00000000000000005018 0.00000166766660533064 
0.06092002918309834952 -0.00000000000000013055 0.00000750999963564444 
0.05045734263681109222 0.00000000000000003062 0.00002420805069784256 
0.04038823100769258628 0.00000000000000005316 0.00006276684880810607 
0.03070655124606250230 -0.00000000000000000298 0.00013963676876476360 
0.02140574348273649452 -0.00000000000000008037 0.00027729237172845005 
0.01247888892751859539 0.00000000000000007825 0.00050445693931888713 
0.00391876398675197052 0.00000000000000002424 0.00085598846783879593 
-0.00428210936114796839 0.00000000000000000808 0.00137246481678047929 
-0.01213141687006502600 -0.00000000000000003912 0.00209951810300646434 
-0.01963700892821751073 0.00000000000000007314 0.00308697389484645065 
-0.02680686095835346089 0.00000000000000002807 0.00438785131591562863 
-0.03364903720202456344 -0.00000000000000002509 0.00605727738404246430 
-0.04017165776175412456 -0.00000000000000005443 0.00815136398366787980 
-0.04638286876512467266 0.00000000000000013735 0.01072608970201066950 
-0.05229081550709852033 0.00000000000000008675 0.01383622201659098598 
-0.05790361842115064606 -0.00000000000000005486 0.01753430848535559791 
-0.06322935172575332163 -0.00000000000000009993 0.02186975899656364020 
-0.06827602459035327087 0.00000000000000003019 0.02688803500745130456 
-0.07305156466397144666 0.00000000000000007825 0.03262995617629380757 
-0.07756380380983426970 0.00000000000000003508 0.03913112994502176284 
-0.08182046589084873700 -0.00000000000000013650 0.04642150548444153729 
-0.08582915645312276520 0.00000000000000008122 0.05452504996242601293 
-0.08959735415799004177 -0.00000000000000004380 0.06345954230434470988 
-0.09313240381699537662 0.00000000000000000234 0.07323647743591468751 
-0.09644151088892151391 -0.00000000000000003700 0.08386107237353047916 
-0.09953173730309783362 -0.00000000000000003104 0.09533236439309113186 
-0.10240999847880624674 -0.00000000000000006464 0.10764339080133288051 
-0.10508306141653833699 0.00000000000000005124 0.12078143949079657438 
-0.10755754374303662380 -0.00000000000000000404 0.13472835942102984186 
-0.10983991359843549296 -0.00000000000000007017 0.14946092037878111469 
-0.11193649026031202154 -0.00000000000000011843 0.16495121177809299318 
-0.11385344540602218566 0.00000000000000007973 0.18116707082185501410 
-0.11559680492125715134 -0.00000000000000008133 0.19807253101943608775 
-0.11717245116928899640 -0.00000000000000002020 0.21562828280561877059 
-0.11858612564181240934 -0.00000000000000005560 0.23379213880440846696 
-0.11984343191861572542 0.00000000000000005847 0.25251949710223819956 
-0.12095012706866253849 -0.00000000000000008749 0.27176379671790112935 
-0.12191236481001728464 -0.00000000000000004943 0.29147696026432456939 
-0.12273417297627846334 -0.00000000000000008016 0.31160981957673916654 
-0.12342064123087324867 -0.00000000000000016914 0.33211252082260511731 
-0.12397673841623822744 -0.00000000000000011258 0.35293490630331564306 
-0.12440731618045135221 -0.00000000000000005347 0.37402687080093066641 
-0.12471711256407405632 -0.00000000000000002807 0.39533869091175022348 
-0.12491075551770366991 -0.00000000000000001382 0.41682132634079299693 
-0.12499276632500350148 -0.00000000000000006570 0.43842669260692906930 
-0.12496756290997372563 -0.00000000000000005480 0.46010790502837262128 
-0.12483946301094224485 -0.00000000000000005534 0.48181949422417208462 
-0.12461268720720429515 -0.00000000000000005347 0.50351759368164017427 
-0.12429136178741634344 -0.00000000000000011561 0.52516010020519321433 
-0.12387952145176722718 -0.00000000000000009228 0.54670680828209339275 
-0.12338111184260840136 -0.00000000000000015383 0.56811951957851702932 
-0.12279999190063616010 0.00000000000000002283 0.58936212891884487419 
-0.12213993604588656294 -0.00000000000000009403 0.61040068820562698448 
-0.12140463618474661711 0.00000000000000001047 0.63120344981097020742 
-0.12059713042315638176 -0.00000000000000007439 0.65174089101555710002 
-0.11972072050149816513 -0.00000000000000002522 0.67198572109251708540 
-0.11877974141174223177 -0.00000000000000003678 0.69191287263311207489 
-0.11777756760761891319 -0.00000000000000009446 0.71149947603017882347 
-0.11671749881728986364 -0.00000000000000002326 0.73072471540766426035 
-0.11560276110335820920 0.00000000000000000198 0.74956919978306446595 
-0.11443650779480393775 -0.00000000000000008801 0.76801380103516470044 
-0.11322182030047688028 -0.00000000000000002474 0.78603829235748212678 
-0.11196170881411748876 -0.00000000000000003076 0.80362005944686820680 
-0.11065911292109753550 -0.00000000000000002647 0.82073304829004734007 
-0.10931690211717751127 -0.00000000000000016122 0.83734703423815759482 
-0.10793787624958385563 -0.00000000000000002839 0.85342724125759195086 
-0.10652476589062788437 -0.00000000000000004508 0.86893430237505919767 
-0.10508023265391798484 -0.00000000000000007144 0.88382452804802658086 
-0.10360686946298018618 -0.00000000000000011758 0.89805043503497661295 
-0.10210720078180261783 0.00000000000000001021 0.91156148158926109115 
-0.10058368281646080933 -0.00000000000000008675 0.92430495332485629323 
-0.09903870369657918893 -0.00000000000000012885 0.93622694625101576804 
-0.09747458364494215877 -0.00000000000000003912 0.94727339798106169333 
-0.09589357514309367059 -0.00000000000000011141 0.95739112403318271660 
-0.09429786310026301577 -0.00000000000000002807 0.96652882274917351069 
-0.09268956503243842848 -0.00000000000000001531 0.97463801916707826223 
-0.09107073125787287782 -0.00000000000000021773 0.98167394148413589239 
-0.08944334511477006200 -0.00000000000000011567 0.98759653205240638396 
-0.08780932320634428356 -0.00000000000000004763 0.99237191480611730565 
-0.08617051567791828015 -0.00000000000000014969 0.99597414569383735383 
-0.08452870653016449076 -0.00000000000000012247 0.99838691031914605922 
-0.08288561397208039916 -0.00000000000000007484 0.99960494620051520975 
-0.08124289081675463431 -0.00000000000000000680 0.99963506619521425023 
-0.07960212492248643079 -0.00000000000000013608 0.99849673091155732862 
-0.07796483968131809328 -0.00000000000000013608 0.99622216759917747719 
-0.07633249455658246141 0.00000000000000002722 0.99285606609826027036 
-0.07470648567060440837 -0.00000000000000006124 0.98845490297889848641 
-0.07308814644327747689 -0.00000000000000003402 0.98308595621854244495 
-0.07147874828182053386 -0.00000000000000006804 0.97682607718165370692 
-0.06987950132165005046 -0.00000000000000014969 0.96976028626457089210 
-0.06829155521793396633 -0.00000000000000008165 0.96198025488849614462 
-0.06671599998707063162 -0.00000000000000004082 0.95358273074350219378 
-0.06515386689702848400 -0.00000000000000010886 0.94466795619763432867 
-0.06360612940519845548 -0.00000000000000002722 0.93533812224889034681 
-0.06207370414215824389 -0.00000000000000004082 0.92569589279378716729 
-0.06055745193952018907 0.00000000000000000000 0.91584302665128980436 
-0.05905817889982387797 -0.00000000000000013608 0.90587911794109132746 
-0.05757663750625734156 -0.00000000000000008165 0.89590046921144717018 
-0.05611352776983494217 0.00000000000000000000 0.88599910622022359785 
-0.05466949841151948902 -0.00000000000000008165 0.87626193852185396693 
-0.05324514807667177219 -0.00000000000000013608 0.86677006599595629588 
-0.05184102657911159040 -0.00000000000000005443 0.85759822813948594078 
-0.05045763617200868523 -0.00000000000000010886 0.84881439028606353592 
-0.04909543284276866176 -0.00000000000000016329 0.84047945885604125049 
-0.04775482762904279671 -0.00000000000000010886 0.83264711621602260916 
-0.04643618795297711765 -0.00000000000000008165 0.82536376467219996211 
-0.04513983897081261243 -0.00000000000000013608 0.81866856847401769937 
-0.04386606493496676001 -0.00000000000000005443 0.81259358240195311840 
-0.04261511056574650291 -0.00000000000000016329 0.80716395549803909848 
-0.04138718242989474633 0.00000000000000000000 0.80239819871728101930 
-0.04018245032321134114 -0.00000000000000005443 0.79830850568441391601 
-0.03900104865456784781 -0.00000000000000010886 0.79490111629091597667 
-0.03784307782868998743 -0.00000000000000005443 0.79217671352432406096 
-0.03670860562517978126 -0.00000000000000010886 0.79013084465324834316 
-0.03559795677050214130 0.00000000000000000000 0.78875435866928833573 
-0.03451195407863108522 -0.00000000000000005443 0.78803385268794734486 
-0.03344939376058274350 -0.00000000000000021773 0.78795212081528409609 
-0.03241023089130835866 0.00000000000000000000 0.78848859977965590762 
-0.03139439446286369090 -0.00000000000000010886 0.78961980639598605691 
-0.03040178870337393799 -0.00000000000000010886 0.79131976266384140839 
-0.02943229437678861887 -0.00000000000000016329 0.79356040499296864876 
-0.02848577006175937940 -0.00000000000000010886 0.79631197469576242565 
-0.02756205340807973275 -0.00000000000000005443 0.79954338748204734078 
-0.02666096236924631047 -0.00000000000000010886 0.80322258023584824915 
-0.02578229640981918522 -0.00000000000000010886 0.80731683384587282770 
-0.02492583768637574373 0.00000000000000000000 0.81179307130180056173 
-0.02409135220096194144 -0.00000000000000005443 0.81661813065840915815 
-0.02327859092607008004 -0.00000000000000005443 0.82175901281103247431 
-0.02248729090027004607 -0.00000000000000021773 0.82718310432123143272 
-0.02171717629374156702 -0.00000000000000005443 0.83285837578362775790 
-0.02096795944305252304 -0.00000000000000005443 0.83875355643659232907 
-0.02023905365546349588 0.00000000000000000000 0.84483828589399734277 
-0.01952933440425965242 -0.00000000000000010886 0.85108324401573431928 
-0.01883966631228447056 -0.00000000000000005443 0.85746026004431163958 
-0.01816971993279496017 -0.00000000000000010886 0.86394240221671247948 
-0.01751915889651164612 -0.00000000000000005443 0.87050404911715106859 
-0.01688764074334670948 -0.00000000000000010886 0.87712093686180558905 
-0.01627481772198724821 -0.00000000000000021773 0.88377002671557569613 
-0.01568033755739258947 0.00000000000000000000 0.89042882576144888329 
-0.01510384418633205390 0.00000000000000000000 0.89707422670718939273 
-0.01454497846115889760 -0.00000000000000021773 0.90368120885240099671 
-0.01400337882208388222 -0.00000000000000010886 0.91022164849994835478 
-0.01347868193826566932 0.00000000000000000000 0.91666338465195995600 
-0.01297052331810378059 -0.00000000000000010886 0.92296961185667159011 
-0.01247853788915472516 -0.00000000000000010886 0.92909862027991618749 
-0.01200236054815799133 -0.00000000000000010886 0.93500386826076165026 
-0.01154162668168568461 0.00000000000000000000 0.94063435062047329183 
-0.01109597265798603800 0.00000000000000000000 0.94593521353247578265 
-0.01066503629061077256 -0.00000000000000016329 0.95084856123316963128 
-0.01024845727446377884 0.00000000000000005443 0.95531439923304672934 
-0.00984587759492568104 -0.00000000000000016329 0.95927166140786157555 
-0.00945694191074122024 0.00000000000000000000 0.96265927321382138704 
-0.00908129791137586052 -0.00000000000000016329 0.96541720937777197875 
-0.00871859664956840114 -0.00000000000000010886 0.96748751375957264820 
-0.00836849284981773522 -0.00000000000000016329 0.96881535645725336270 
-0.00803064519356081787 -0.00000000000000005443 0.96935047422031916931 
-0.00770471658180540368 -0.00000000000000005443 0.96904902847052620807 
-0.00739037437598750405 -0.00000000000000005443 0.96787553853179009167 
-0.00708729061782989878 -0.00000000000000010886 0.96580461383172011569 
-0.00679514222898333891 -0.00000000000000005443 0.96282232124977173982 
-0.00651361119122330790 -0.00000000000000010886 0.95892710629190702765 
-0.00624238470798554965 -0.00000000000000005443 0.95413024524611422805 
-0.00598115534800783711 0.00000000000000000000 0.94845584540642446925 
-0.00572962117185055794 -0.00000000000000005443 0.94194043625192047653 
-0.00548748584205006277 -0.00000000000000016329 0.93463220964885596054 
-0.00525445871766278862 0.00000000000000000000 0.92658997449709279426 
-0.00503025493393419870 -0.00000000000000021773 0.91788189296079392143 
-0.00481459546782740059 -0.00000000000000005443 0.90858406321894091828 
-0.00460720719012410601 0.00000000000000000000 0.89877900886420269977 
-0.00440782290480265775 0.00000000000000000000 0.88855412867506755603 
-0.00421618137637967683 -0.00000000000000010886 0.87800015324042568476 
-0.00403202734588993007 -0.00000000000000016329 0.86720964738250849724 
-0.00385511153615553234 -0.00000000000000005443 0.85627558990004859485 
-0.00368519064699081560 -0.00000000000000005443 0.84529005511223720415 
-0.00352202734095550781 -0.00000000000000016329 0.83434301420363987667 
-0.00336539022026747549 -0.00000000000000010886 0.82352126855598051236 
-0.00321505379545576576 -0.00000000000000010886 0.81290752215513728540 
-0.00307079844632024293 0.00000000000000000000 0.80257959579109194870 
-0.00293241037574749073 0.00000000000000000000 0.79260978210626831242 
-0.00279968155691007799 -0.00000000000000010886 0.78306433755519799789 
-0.00267240967435844554 -0.00000000000000016329 0.77400310496426172335 
-0.00255039805949623275 0.00000000000000000000 0.76547925856542542444 
-0.00243345562090846760 -0.00000000000000005443 0.75753916205977911424 
-0.00232139676999862463 0.00000000000000000000 0.75022232938230004606 
-0.00221404134236186101 -0.00000000000000005443 0.74356147732707111864 
-0.00211121451531398737 -0.00000000000000010886 0.73758265899392927434 
-0.00201274672197013227 -0.00000000000000010886 0.73230546707895993741 
-0.00191847356224876683 -0.00000000000000010886 0.72774329630294876115 
-0.00182823571116598558 -0.00000000000000010886 0.72390365470935669201 
-0.00174187882475595286 -0.00000000000000005443 0.72078851412721278713 
-0.00165925344394706061 -0.00000000000000005443 0.71839469075009099175 
-0.00158021489669954809 0.00000000000000000000 0.71671424750036982765 
-0.00150603179508883170 -0.00000000000000016329 0.71573491060301475120 
-0.00143508176645489711 -0.00000000000000005443 0.71544049356409167295 
-0.00136723810824626872 -0.00000000000000010886 0.71581132251865997596 
-0.00130237828537036783 -0.00000000000000010886 0.71682465766658354234 
-0.00124038383821188343 -0.00000000000000010886 0.71845510624204167449 
-0.00118114028995522260 0.00000000000000000000 0.72067502315463138896 
-0.00112453705342969047 -0.00000000000000005443 0.72345489609067370473 
-0.00107046733768525896 -0.00000000000000010886 0.72676371246839965856 
-0.00101882805449237486 0.00000000000000000000 0.73056930619739712807 
-0.00096951972494230048 -0.00000000000000016329 0.73483868269974195186 
-0.00092244638632016948 -0.00000000000000010886 0.73953832110746076101 
-0.00087751549940127580 0.00000000000000005443 0.74463445295907204624 
-0.00083463785631730672 -0.00000000000000016329 0.75009331707839577152 
-0.00079372748912451003 -0.00000000000000010886 0.75588139063359460756 
-0.00075470157919274171 0.00000000000000000000 0.76196559664595053807 
-0.00071748036753319512 -0.00000000000000010886 0.76831348844886049321 
-0.00068198706615801451 -0.00000000000000016329 0.77489341179088599976 
-0.00064757464783413393 -0.00000000000000021773 0.78167464543539166844 
-0.00061394152537220495 -0.00000000000000021773 0.78862752123638757418 
-0.00058189957537911911 -0.00000000000000005443 0.79572352476868224436 
-0.00055137891045004017 -0.00000000000000021773 0.80293537766325429050 
-0.00052231240155736259 0.00000000000000010886 0.81023710205277332808 
-0.00049463558696156951 -0.00000000000000010886 0.81760400608070249451 
-0.00046828658310292678 0.00000000000000005443 0.82501225623713470014 
-0.00044320599749782068 -0.00000000000000010886 0.83243787401381064139 
-0.00041933684365070894 -0.00000000000000016329 0.83985546078778416934 
-0.00039662445799523960 -0.00000000000000021773 0.84723694696864526588 
-0.00037501641886957871 -0.00000000000000010886 0.85455054840128830129 
-0.00035446246752691957 -0.00000000000000010886 0.86176002844076737830 
-0.00033491443117869351 -0.00000000000000010886 0.86882430414654721051 
-0.00031632614806373642 -0.00000000000000005443 0.87569739399562684934 
-0.00029865339453405426 0.00000000000000000000 0.88232867783862700684 
-0.00028185381414337624 -0.00000000000000010886 0.88866342390185726341 
-0.00026588684872293097 -0.00000000000000016329 0.89464352961371074180 
-0.00025071367142435850 -0.00000000000000010886 0.90020842066587014596 
-0.00023629712170995250 -0.00000000000000010886 0.90529605427002857176 
-0.00022260164226579294 -0.00000000000000010886 0.90984397670407290981 
-0.00020959321781199999 0.00000000000000000000 0.91379039094653879971 
-0.00019723931578245166 -0.00000000000000021773 0.91707519672173820613 
-0.00018550882884594218 -0.00000000000000010886 0.91964097927930632537 
-0.00017437201923701804 -0.00000000000000010886 0.92143407940981414406 
-0.00016380046486424104 0.00000000000000000000 0.92240609546221619119 
-0.00015376700716491319 -0.00000000000000010886 0.92251574038040129455 
-0.00014424570067008509 -0.00000000000000005443 0.92173070588988492702 
-0.00013521176424525000 -0.00000000000000010886 0.92002928405266237721 
-0.00012664153397347905 -0.00000000000000010886 0.91740160249416546900 
-0.00011851241764085554 -0.00000000000000010886 0.91385040654268534510 
-0.00011080285079206847 -0.00000000000000016329 0.90939137564134209235 
-0.00010349225431531463 -0.00000000000000016329 0.90405299795530347229 
-0.00009656099352306423 -0.00000000000000016329 0.89787605031908468423 
-0.00008999033868735903 0.00000000000000000000 0.89091274391050701009 
-0.00008376242699616438 0.00000000000000000000 0.88322560195872334976 
-0.00007786022589148933 -0.00000000000000005443 0.87488613648180812987 
-0.00007226749775095373 0.00000000000000021773 0.86597338812937418862 
-0.00006696876587922983 -0.00000000000000010886 0.85657238792751566603 
-0.00006194928176892476 -0.00000000000000016329 0.84677259303612706365 
-0.00005719499359720479 -0.00000000000000010886 0.83666634124084326984 
-0.00005269251591912394 0.00000000000000000000 0.82634736133129249591 
-0.00004842910052622305 -0.00000000000000010886 0.81590936913163314426 
-0.00004439260842954343 0.00000000000000000000 0.80544477199897301922 
-0.00004057148293828205 -0.00000000000000016329 0.79504349825038134192 
-0.00003695472379416603 0.00000000000000005443 0.78479196231126835404 
-0.00003353186233227780 -0.00000000000000010886 0.77477217143692855839 
-0.00003029293763280292 0.00000000000000000000 0.76506097564740682682 
-0.00002722847363115401 -0.00000000000000005443 0.75572945900924104468 
-0.00002432945715678257 0.00000000000000000000 0.74684246755347405422 
-0.00002158731686620978 0.00000000000000000000 0.73845826688350546529 
-0.00001899390304216110 -0.00000000000000005443 0.73062832083816819928 
-0.00001654146822848016 0.00000000000000000000 0.72339718137146380439 
-0.00001422264867011117 0.00000000000000010886 0.71680247902731009102 
-0.00001203044653184159 0.00000000000000005443 0.71087500296418160151 
-0.00000995821286571776 -0.00000000000000005443 0.70563885936280268396 
-0.00000799963130318518 -0.00000000000000010886 0.70111169717662802370 
-0.00000614870244026221 -0.00000000000000005443 0.69730499051104588570 
-0.00000439972889710779 0.00000000000000005443 0.69422436739956328022 
-0.00000274730101954785 -0.00000000000000005443 0.69186997534519734110 
-0.00000118628320474591 -0.00000000000000010886 0.69023687467945582519 
-0.00000000000000006373 -0.00000000000000005443 0.68931545153088502609 
0.00000000000000003205 -0.00000000000000005443 0.68909184296583936291 
-0.00000000000000006262 -0.00000000000000016329 0.68954836764560167861 
0.00000000000000003657 -0.00000000000000005443 0.69066395611960285095 
-0.00000000000000003301 -0.00000000000000005443 0.69241457563092623229 
-0.00000000000000002440 -0.00000000000000005443 0.69477364503704308607 
0.00000000000000000072 0.00000000000000000000 0.69771243613792277571 
-0.00000000000000007910 -0.00000000000000010886 0.70120045834952937636 
-0.00000000000000002982 0.00000000000000005443 0.70520582425940181448 
-0.00000000000000006541 -0.00000000000000010886 0.70969559415022998028 
-0.00000000000000003830 -0.00000000000000005443 0.71463609807608696745 
0.00000000000000003609 0.00000000000000000000 0.71999323452437702375 
-0.00000000000000004016 -0.00000000000000010886 0.72573274509554841494 
-0.00000000000000007936 -0.00000000000000021773 0.73182046498385333599 
0.00000000000000002171 0.00000000000000005443 0.73822254934807352011 
-0.00000000000000005775 -0.00000000000000016329 0.74490567592370293681 
0.00000000000000004712 -0.00000000000000005443 0.75183722445040113147 
-0.00000000000000002645 -0.00000000000000005443 0.75898543367358373146 
0.00000000000000000757 -0.00000000000000005443 0.76631953682984221832 
-0.00000000000000001999 -0.00000000000000005443 0.77380987664556277750 
0.00000000000000004279 -0.00000000000000016329 0.78142800096967857115 
-0.00000000000000001119 0.00000000000000000000 0.78914674022789066399 
0.00000000000000001637 0.00000000000000010886 0.79694026526728989346 
-0.00000000000000000100 -0.00000000000000010886 0.80478402359116130160 
0.00000000000000011821 0.00000000000000000000 0.81265418753651064154 
-0.00000000000000005778 -0.00000000000000021773 0.82052656578253768682 
0.00000000000000001757 -0.00000000000000021773 0.82837531173226086612 
0.00000000000000004896 -0.00000000000000010886 0.83617170092049830643 
0.00000000000000002165 -0.00000000000000010886 0.84388314125272745336 
-0.00000000000000007044 -0.00000000000000005443 0.85147250074086633376 
0.00000000000000003612 0.00000000000000000000 0.85889778163083418949 
0.00000000000000000732 -0.00000000000000005443 0.86611213197349468107 
-0.00000000000000000819 -0.00000000000000010886 0.87306416142766074540 
-0.00000000000000001167 -0.00000000000000005443 0.87969851394785092413 
-0.00000000000000000937 0.00000000000000000000 0.88595664327666490134 
0.00000000000000009575 -0.00000000000000005443 0.89177773570128493485 
-0.00000000000000003848 -0.00000000000000005443 0.89709972669488591279 
-0.00000000000000003211 -0.00000000000000005443 0.90186036258224522300 
-0.00000000000000001470 0.00000000000000005443 0.90599826428957996871 
-0.00000000000000005993 -0.00000000000000016329 0.90945395685284957654 
-0.00000000000000001935 0.00000000000000005443 0.91217083515221131229 
-0.00000000000000007096 0.00000000000000000000 0.91409604295113588979 
0.00000000000000004742 0.00000000000000000000 0.91518124850328175235 
0.00000000000000005007 -0.00000000000000010886 0.91538330559556102539 
0.00000000000000010605 -0.00000000000000010886 0.91466479383738763520 
-0.00000000000000002722 -0.00000000000000010886 0.91299443625010179293 
0.00000000000000004178 -0.00000000000000005443 0.91034739576001788564 
0.00000000000000002179 -0.00000000000000005443 0.90670545508222322173 
-0.00000000000000001712 -0.00000000000000005443 0.90205708674607532060 
-0.00000000000000003646 -0.00000000000000005443 0.89639742171384195757 
-0.00000000000000004008 0.00000000000000000000 0.88972812624323005526 
0.00000000000000001223 0.00000000000000005443 0.88205719740665033957 
-0.00000000000000006453 0.00000000000000005443 0.87339868806809584090 
-0.00000000000000006283 0.00000000000000005443 0.86377237219294145110 
0.00000000000000001403 -0.00000000000000005443 0.85320336118319617391 
-0.00000000000000000840 0.00000000000000000000 0.84172168154236282067 
0.00000000000000003264 0.00000000000000005443 0.82936182362655297418 
-0.00000000000000010674 0.00000000000000000000 0.81616227057283052826 
0.00000000000000006528 -0.00000000000000010886 0.80216501574777998584 
-0.00000000000000009728 0.00000000000000000000 0.78741507625960560635 
-0.00000000000000004284 0.00000000000000000000 0.77196000925163010820 
-0.00000000000000006538 -0.00000000000000010886 0.75584943686533534457 
0.00000000000000003657 0.00000000000000005443 0.73913458494458617043 
-0.00000000000000012928 -0.00000000000000021773 0.72186783976328661172 
-0.00000000000000005305 0.00000000000000000000 0.70410232630718105895 
-0.00000000000000005922 0.00000000000000005443 0.68589151093480249521 
-0.00000000000000001802 0.00000000000000000000 0.66728883058822818786 
-0.00000000000000000229 -0.00000000000000005443 0.64834735012494348894 
-0.00000000000000001217 -0.00000000000000005443 0.62911944879948444864 
-0.00000000000000006509 -0.00000000000000005443 0.60965653643816708485 
-0.00000000000000013720 -0.00000000000000010886 0.59000879942130035616 
0.00000000000000001297 -0.00000000000000012247 0.57022497621328294137 
0.00000000000000006167 0.00000000000000009185 0.55035216185950908141 
0.00000000000000000941 0.00000000000000005443 0.53043564059723757875 
0.00000000000000005008 -0.00000000000000009526 0.51051874550226095106 
-0.00000000000000001870 0.00000000000000002041 0.49064274391089213179 
-0.00000000000000000037 -0.00000000000000014288 0.47084674721382474560 
-0.00000000000000009739 -0.00000000000000003062 0.45116821663394324204 
0.00000000000000008483 0.00000000000000004423 0.43164200139119085486 
-0.00000000000000003431 -0.00000000000000006804 0.41229954416724079458 
0.00000000000000004290 0.00000000000000002722 0.39317086781215410118 
-0.00000000000000001190 0.00000000000000008165 0.37428369863783383931 
0.00000000000000004457 -0.00000000000000011907 0.35566348902770994478 
-0.00000000000000006620 0.00000000000000006124 0.33733345314811336024 
0.00000000000000004033 -0.00000000000000007144 0.31931461421070661544 
-0.00000000000000005062 -0.00000000000000004423 0.30162586179470507464 
-0.00000000000000000824 -0.00000000000000014288 0.28428401780568268720 
0.00000000000000006453 -0.00000000000000024154 0.26730390972251849568 
0.00000000000000011420 0.00000000000000000680 0.25069844986374029139 
-0.00000000000000008758 -0.00000000000000015649 0.23447871948756723870 
0.00000000000000002731 -0.00000000000000001361 0.21865405662498352268 
0.00000000000000000330 0.00000000000000005443 0.20323214663096114685 
0.00000000000000004808 -0.00000000000000005783 0.18821911452446546398 
-0.00000000000000000467 -0.00000000000000000340 0.17361961827224234312 
0.00000000000000005221 0.00000000000000007484 0.15943694225383650553 
-0.00000000000000001674 -0.00000000000000012928 0.14567309022523267092 
0.00000000000000003027 0.00000000000000000340 0.13232887717543370676 
0.00000000000000002224 -0.00000000000000006804 0.11940401954380162886 
0.00000000000000003118 -0.00000000000000006804 0.10689722333578476066 
0.00000000000000001990 0.00000000017200470197 0.09480626974052142053 
0.00000000000000010053 0.00000003529184739905 0.08312809791560052397 
-0.00000000000000006711 0.00000052539239429309 0.07185888466188405932 
0.00000000000000009625 0.00000320498278515914 0.06099412076474079736 
-0.00000000000000007576 0.00001238303564698126 0.05052868382730107272 
0.00000000000000005632 0.00003621690720311940 0.04045690746650657671 
-0.00000000000000006218 0.00008779790597393564 0.03077264678385840599 
0.00000000000000008582 0.00018593647870541525 0.02146934006000206230 
-0.00000000000000000387 0.00035559932933198818 0.01254006665576635690 
0.00000000000000008053 0.00062799516893111704 0.00397760113213226161 
-0.00000000000000015863 0.00104033497148775522 -0.00422553637193779589 
0.00000000000000001909 0.00163531037263178183 -0.01207703344169975060 
0.00000000000000008149 0.00246034319501268854 -0.01958474228661064021 
0.00000000000000000404 0.00356666236863841706 -0.02675664013859349599 
0.00000000000000000558 0.00500826356852921480 -0.03360079303449377275 
0.00000000000000004864 0.00684080312498306763 -0.04012532285655032172 
0.00000000000000000642 0.00912047224450009998 -0.04633837749489005953 
-0.00000000000000003713 0.01190289111292460247 -0.05224810398837616277 
-0.00000000000000003084 0.01524205562341769855 -0.05786262449436409966 
0.00000000000000003429 0.01918936269906995271 -0.06319001493392170654 
-0.00000000000000001158 0.02379273375075201952 -0.06823828615663879438 
0.00000000000000002469 0.02909584991166762336 -0.07301536746815816270 
-0.00000000000000020275 0.03513750743067588916 -0.07752909236383379032 
0.00000000000000008699 0.04195109703906657606 -0.08178718631332280997 
-0.00000000000000005698 0.04956420724035984215 -0.08579725644331252787 
0.00000000000000005206 0.05799834829022451621 -0.08956678296883568979 
-0.00000000000000011309 0.06726879109380967670 -0.09310311222762975014 
-0.00000000000000008000 0.07738451329759624131 -0.09641345117661477560 
-0.00000000000000015023 0.08834824343187429319 -0.09950486321472766515 
0.00000000000000003039 0.10015659300439028190 -0.10238426520192850377 
0.00000000000000001395 0.11280026589175175256 -0.10505842555012323558 
-0.00000000000000002787 0.12626433416101121021 -0.10753396326793826510 
-0.00000000000000001571 0.14052856952119643918 -0.10981734784765524726 
0.00000000000000007757 0.15556781989972076619 -0.11191489988911773601 
0.00000000000000005955 0.17135242111290044376 -0.11383279236197410555 
-0.00000000000000003545 0.18784863420994343808 -0.11557705241419927167 
-0.00000000000000009308 0.20501909977774762650 -0.11715356364135059986 
0.00000000000000006218 0.22282330126684710137 -0.11856806873747108289 
-0.00000000000000008559 0.24121803020900203784 -0.11982646065404012337 
0.00000000000000003112 0.26015784702088401437 -0.12093502557842257528 
-0.00000000000000001325 0.27959553190692321145 -0.12189792027368290261 
0.00000000000000005976 0.29948252117225193647 -0.12272035971555676770 
-0.00000000000000004267 0.31976932502173105455 -0.12340743440828057242 
0.00000000000000010402 0.34040592364416943916 -0.12396411401677059905 
0.00000000000000000321 0.36134213905543882683 -0.12439525099309686751 
0.00000000000000001359 0.38252798079585248470 -0.12470558416321403383 
0.00000000000000004945 0.40391396414330971165 -0.12489974224444251594 
-0.00000000000000003584 0.42545140001331682722 -0.12498224726846907107 
0.00000000000000005448 0.44709265617021876071 -0.12495751788862356768 
0.00000000000000006804 0.46879138977208523187 -0.12482987255391146675 
0.00000000000000000636 0.49050275161665701784 -0.12460353253572595267 
0.00000000000000003203 0.51218356275017695722 -0.12428262479634506754 
-0.00000000000000002430 0.53379246434786409292 -0.12387118469123244158 
0.00000000000000007343 0.55529004197754050498 -0.12337315849982280480 
-0.00000000000000005433 0.57663892552004492043 -0.12279240578188246880 
0.00000000000000004866 0.59780386614513003618 -0.12213270155870449563 
-0.00000000000000004337 0.61875179183317385867 -0.12139773832033715073 
0.00000000000000010333 0.63945184299478652346 -0.12059027305522365681 
-0.00000000000000008639 0.65987538977567439247 -0.11971418709456410623 
0.00000000000000010405 0.67999603264626162780 -0.11877351776321785903 
-0.00000000000000007320 0.69978958784670497462 -0.11777164007397160350 
0.00000000000000005725 0.71923404254054068563 -0.11671185429566885428 
0.00000000000000003546 0.73830926236804783613 -0.11559738701361339797 
0.00000000000000002814 0.75699611968770541548 -0.11443139206190457158 
0.00000000000000001203 0.77527521100169927148 -0.11321695133733175598 
0.00000000000000002000 0.79312549860840619864 -0.11195707550480107906 
0.00000000000000000502 0.81052310179583708649 -0.11065470460448227630 
0.00000000000000007821 0.82744036656487685022 -0.10931270857097258320 
-0.00000000000000010447 0.84384527377880791388 -0.10793388767478181989 
0.00000000000000011337 0.85970119759312157992 -0.10652097289635667487 
-0.00000000000000008024 0.87496699405032929420 -0.10507662624269663298 
0.00000000000000008674 0.88959737985993780907 -0.10360344101637754266 
0.00000000000000003917 0.90354355048032042319 -0.10210394204649339556 
0.00000000000000015213 0.91675398220518411474 -0.10058058589067797595 
-0.00000000000000007220 0.92917536310607951044 -0.09903576101695664435 
-0.00000000000000000310 0.94075360090778981093 -0.09747178797374470016 
0.00000000000000001457 0.95143486104297270156 -0.09589091955582723648 
0.00000000000000019082 0.96116659439701856993 -0.09429534097366322476 
-0.00000000000000004997 0.96989852819670707706 -0.09268717003282717082 
0.00000000000000004306 0.97758374975619388714 -0.09106845732988219644 
-0.00000000000000003732 0.98418023123463116431 -0.08944118647042079151 
0.00000000000000016855 0.98965271604712179432 -0.08780727431448032139 
-0.00000000000000002866 0.99397461695295030726 -0.08616857125398227901 
0.00000000000000015952 0.99712967421321485606 -0.08452686152631429251 
-0.00000000000000001907 0.99911322857560402877 -0.08288386356763421947 
0.00000000000000004921 0.99993304104859326298 -0.08124123040896230608 
0.00000000000000000051 0.99960964579692446197 -0.07960055011761484056 
0.00000000000000012209 0.99817625928043085537 -0.07796334628604842387 
0.00000000000000001162 0.99567829218343517628 -0.07633107856970677840 
0.00000000000000010952 0.99217252410157896758 -0.07470514327501805163 
-0.00000000000000013749 0.98772600702677504358 -0.07308687399825730679 
0.00000000000000004560 0.98241476448831444035 -0.07147754231558432758 
-0.00000000000000002351 0.97632235039516557240 -0.06987835852418530780 
0.00000000000000010591 0.96953832643306503414 -0.06829047243409307189 
-0.00000000000000002550 0.96215671025119631210 -0.06671497420992274219 
0.00000000000000009385 0.95427443933770206286 -0.06515289526146128551 
-0.00000000000000010182 0.94598988795084359982 -0.06360520918176135186 
0.00000000000000005519 0.93740146711288308001 -0.06207283273114363314 
0.00000000000000003914 0.92860633073907694612 -0.06055662686526949029 
0.00000000000000007185 0.91969920462639831449 -0.05905739780525783023 
-0.00000000000000003730 0.91077134935877490651 -0.05757589814761893826 
0.00000000000000012859 0.90190966323911581082 -0.05611282801164119149 
-0.00000000000000003483 0.89319592713686046803 -0.05466883622171277157 
0.00000000000000012155 0.88470618961993818807 -0.05324452152196684773 
0.00000000000000000690 0.87651028788024609728 -0.05184043382052930943 
0.00000000000000009543 0.86867149770870533132 -0.05045707546059311627 
-0.00000000000000009447 0.86124630406960822615 -0.04909490251547779516 
0.00000000000000001134 0.85428428260146482831 -0.04775432610480990353 
-0.00000000000000006952 0.84782808156996380955 -0.04643571372893497140 
0.00000000000000018866 0.84191349335711662683 -0.04513939061867634772 
-0.00000000000000000605 0.83656960443150296669 -0.04386564109756784652 
0.00000000000000021904 0.83181901285460546625 -0.04261470995371469117 
-0.00000000000000003633 0.82767810268894748127 -0.04138680381847910372 
0.00000000000000019216 0.82415736514172488469 -0.04018209254924109963 
0.00000000000000002622 0.82126175686445779256 -0.03900071061354012242 
0.00000000000000014570 0.81899108650142271593 -0.03784275847198738385 
0.00000000000000005161 0.81734042130852735397 -0.03670830395740661001 
0.00000000000000012481 0.81630050642543883210 -0.03559795677050233559 
-0.00000000000000001468 0.81585819015690697054 -0.03451195407863105052 
0.00000000000000010235 0.81599684938755634445 -0.03344939376058291003 
-0.00000000000000001550 0.81669681000461225029 -0.03241023089130837254 
0.00000000000000007426 0.81793575792449613182 -0.03139439446286386437 
-0.00000000000000000112 0.81968913700400714006 -0.03040178870337411493 
0.00000000000000010604 0.82193053075905342375 -0.02943229437678870561 
-0.00000000000000007698 0.82463202540970170773 -0.02848577006175942103 
0.00000000000000009244 0.82776455231728751638 -0.02756205340807971887 
0.00000000000000008247 0.83129820837640822084 -0.02666096236924630353 
0.00000000000000002051 0.83520255337187554456 -0.02578229640981933093 
0.00000000000000000680 0.83944688370897535545 -0.02492583768637579231 
0.00000000000000009069 0.84400048227629353992 -0.02409135220096203511 
0.00000000000000000962 0.84883284450599394422 -0.02327859092607001065 
0.00000000000000014458 0.85391388095927811541 -0.02248729090027010852 
0.00000000000000001232 0.85921409698758555162 -0.02171717629374152192 
0.00000000000000010546 0.86470475020581805126 -0.02096795944305257162 
-0.00000000000000003615 0.87035798666552888214 -0.02023905365546324955 
0.00000000000000021449 0.87614695673664555464 -0.01952933440425963854 
0.00000000000000006282 0.88204591179887248398 -0.01883966631228457811 
0.00000000000000020322 0.88803028291141483663 -0.01816971993279492201 
-0.00000000000000010988 0.89407674001237569250 -0.01751915889651161143 
0.00000000000000020630 0.90016312963116063006 -0.01688764074334681703 
0.00000000000000003508 0.90626792465111405406 -0.01627481772198722046 
0.00000000000000006209 0.91236913749643056004 -0.01568033755739249580 
0.00000000000000001435 0.91844303027243445747 -0.01510384418633201227 
0.00000000000000012997 0.92446289400040781992 -0.01454497846115913526 
0.00000000000000008547 0.93039806074046738082 -0.01400337882208388222 
0.00000000000000021757 0.93621323325848948560 -0.01347868193826581330 
0.00000000000000012157 0.94186816112282845115 -0.01297052331810370600 
0.00000000000000018318 0.94731765427417180536 -0.01247853788915477893 
0.00000000000000009074 0.95251190084978687445 -0.01200236054815792368 
0.00000000000000013671 0.95739704190817032092 -0.01154162668168577308 
-0.00000000000000006066 0.96191594896800258763 -0.01109597265798594259 
0.00000000000000010302 0.96600914881559463154 -0.01066503629061080725 
-0.00000000000000000553 0.96961584219690144515 -0.01024845727446388813 
0.00000000000000009999 0.97267496752920856729 -0.00984587759492568972 
0.00000000000000000904 0.97512626668886059900 -0.00945694191074121331 
0.00000000000000012040 0.97691131671805209180 -0.00908129791137591430 
0.00000000000000007442 0.97797453200336659229 -0.00871859664956840807 
0.00000000000000026744 0.97826439596369296758 -0.00836849284981774216 
0.00000000000000012689 0.97773516785315650601 -0.00803064519356084562 
0.00000000000000021651 0.97634880574760640748 -0.00770471658180558062 
0.00000000000000005220 0.97407678268801112242 -0.00739037437598748410 
0.00000000000000018356 0.97090159174911061513 -0.00708729061783008180 
0.00000000000000009010 0.96681782960427098406 -0.00679514222898324697 
0.00000000000000022056 0.96183281538852216652 -0.00651361119122347530 
0.00000000000000005390 0.95596674830785477450 -0.00624238470798544123 
0.00000000000000012407 0.94925243832037342617 -0.00598115534800789175 
0.00000000000000012752 0.94173466317664533687 -0.00572962117185054493 
0.00000000000000009972 0.93346921521527859156 -0.00548748584205015124 
0.00000000000000003976 0.92452170498254315767 -0.00525445871766277474 
0.00000000000000013991 0.91496618787338146461 -0.00503025493393432100 
0.00000000000000003130 0.90488367604135266919 -0.00481459546782744829 
0.00000000000000011392 0.89436059191951366998 -0.00460720719012423525 
0.00000000000000017107 0.88348721268024510422 -0.00440782290480251464 
0.00000000000000025495 0.87235614746747536241 -0.00421618137637975836 
0.00000000000000013316 0.86106088171397432429 -0.00403202734588978089 
0.00000000000000015921 0.84969441562752690000 -0.00385511153615566851 
0.00000000000000005783 0.83834801720523000057 -0.00368519064699081560 
0.00000000000000016096 0.82711010404605089796 -0.00352202734095553470 
-0.00000000000000000845 0.81606526284791391923 -0.00336539022026749934 
0.00000000000000014794 0.80529341082108241157 -0.00321505379545588806 
0.00000000000000010313 0.79486909931560068010 -0.00307079844632023773 
0.00000000000000017904 0.78486095671505373694 -0.00293241037574746037 
0.00000000000000008340 0.77533126504439098259 -0.00279968155690997608 
0.00000000000000008587 0.76633566271918263091 -0.00267240967435863810 
0.00000000000000010182 0.75792296436552619721 -0.00255039805949602502 
0.00000000000000000223 0.75013508760047598045 -0.00243345562090853699 
-0.00000000000000015124 0.74300707601982207695 -0.00232139676999867407 
0.00000000000000015873 0.73656720733339731133 -0.00221404134236190524 
0.00000000000000001147 0.73083717556178140473 -0.00211121451531413873 
0.00000000000000022350 0.72583233641082522958 -0.00201274672197018518 
0.00000000000000003801 0.72156200532523395719 -0.00191847356224871240 
0.00000000000000020436 0.71802979824811719034 -0.00182823571116601962 
0.00000000000000008704 0.71523400574348217074 -0.00174187882475604632 
0.00000000000000019656 0.71316799184157164682 -0.00165925344394699426 
0.00000000000000008405 0.71182060971579153019 -0.00158021489669942904 
0.00000000000000000722 0.71117662707199158501 -0.00150603179508887594 
-0.00000000000000002382 0.71121715490727421827 -0.00143508176645494481 
0.00000000000000002880 0.71192007406097834732 -0.00136723810824623468 
0.00000000000000008556 0.71326045472282983972 -0.00130237828537036111 
0.00000000000000003340 0.71521096477302970040 -0.00124038383821197863 
0.00000000000000006378 0.71774226349921088630 -0.00118114028995513934 
0.00000000000000015713 0.72082337786072392394 -0.00112453705342962064 
0.00000000000000011165 0.72442205904838741226 -0.00107046733768528454 
-0.00000000000000003657 0.72850511761586367321 -0.00101882805449238331 
-0.00000000000000002762 0.73303873593664015118 -0.00096951972494234645 
0.00000000000000000306 0.73798875716862777363 -0.00092244638632020689 
0.00000000000000008432 0.74332095028786304702 -0.00087751549940110569 
0.00000000000000011000 0.74900125108553339270 -0.00083463785631732027 
-0.00000000000000006136 0.75499597931084394542 -0.00079372748912449474 
0.00000000000000005038 0.76127203238873897284 -0.00075470157919299769 
0.00000000000000001900 0.76779705634903461231 -0.00071748036753308279 
0.00000000000000016635 0.77453959477511846732 -0.00068198706615814038 
-0.00000000000000005670 0.78146921671904368001 -0.00064757464783415182 
0.00000000000000001189 0.78855662463867581824 -0.00061394152537241767 
-0.00000000000000001997 0.79577374349449048196 -0.00058189957537895410 
0.00000000000000019075 0.80309379218064236294 -0.00055137891045003073 
0.00000000000000003495 0.81049132180932959013 -0.00052231240155736183 
0.00000000000000002769 0.81794200326296728765 -0.00049463558696155509 
-0.00000000000000018759 0.82542183207942620982 -0.00046828658310292504 
0.00000000000000005443 0.83290591899244903473 -0.00044320599749789300 
-0.00000000000000010023 0.84036720104149686961 -0.00041933684365071664 
0.00000000000000013887 0.84777529847747612468 -0.00039662445799511074 
-0.00000000000000002089 0.85509564640289537074 -0.00037501641886951410 
-0.00000000000000005751 0.86228896102611918284 -0.00035446246752687322 
-0.00000000000000000978 0.86931105239680228625 -0.00033491443117864456 
0.00000000000000015755 0.87611296354671608366 -0.00031632614806378787 
0.00000000000000003104 0.88264139611883629666 -0.00029865339453393348 
0.00000000000000005486 0.88883937168426585540 -0.00028185381414326565 
-0.00000000000000012630 0.89464707354977845988 -0.00026588684872279149 
0.00000000000000005358 0.90000281402211668169 -0.00025071367142427177 
-0.00000000000000001786 0.90484407533264799017 -0.00023629712170986406 
0.00000000000000011992 0.90910857760532792771 -0.00022260164226573211 
-0.00000000000000010716 0.91273533352319258238 -0.00020959321781202549 
0.00000000000000006124 0.91566566329698528826 -0.00019723931578247549 
-0.00000000000000009355 0.91784429980347159717 -0.00018550882884603830 
0.00000000000000003742 0.91922093220418610304 -0.00017437201923702826 
-0.00000000000000004593 0.91975210884373959086 -0.00016380046486418450 
-0.00000000000000000680 0.91940314960878866124 -0.00015376700716486939 
-0.00000000000000001361 0.91814981629551140063 -0.00014424570066997049 
0.00000000000000006124 0.91597959589669231129 -0.00013521176424526870 
-0.00000000000000015649 0.91289252892074290724 -0.00012664153397332043 
0.00000000000000005783 0.90890156922059661682 -0.00011851241764096313 
-0.00000000000000002381 0.90403249859596490623 -0.00011080285079192007 
0.00000000000000004763 0.89832344285243659332 -0.00010349225431532866 
-0.00000000000000010886 0.89182404941495130313 -0.00009656099352302767 
0.00000000000000007484 0.88459439266105788224 -0.00008999033868732586 
-0.00000000000000005443 0.87670367395051163051 -0.00008376242699627856 
-0.00000000000000007484 0.86822878050838836472 -0.00007786022589139068 
0.00000000000000000000 0.85925276212092593919 -0.00007226749775097797 
0.00000000000000017690 0.84986327797794769534 -0.00006696876587931509 
-0.00000000000000006804 0.84015105865357408987 -0.00006194928176896611 
-0.00000000000000006804 0.83020842067796596364 -0.00005719499359713389 
-0.00000000000000009526 0.82012786378664292997 -0.00005269251591915084 
0.00000000000000006804 0.81000077399289871494 -0.00004842910052623453 
0.00000000000000001361 0.79991624927487925412 -0.00004439260842951473 
0.00000000000000004082 0.78996005899505172820 -0.00004057148293829896 
-0.00000000000000010886 0.78021374321748482306 -0.00003695472379409342 
0.00000000000000005443 0.77075385386124128928 -0.00003353186233234700 
-0.00000000000000009526 0.76165133610300039813 -0.00003029293763261878 
-0.00000000000000001361 0.75297104557716809659 -0.00002722847363104174 
-0.00000000000000009526 0.74477139466385955391 -0.00002432945715679022 
-0.00000000000000001361 0.73710411944424003572 -0.00002158731686615174 
0.00000000000000002722 0.73001415767591260053 -0.00001899390304219724 
0.00000000000000000000 0.72353962733547305675 -0.00001654146822837087 
-0.00000000000000013608 0.71771189483002417742 -0.00001422264867006232 
0.00000000000000005443 0.71255572183688031807 -0.00001203044653163907 
-0.00000000000000010886 0.70808947983754289002 -0.00000995821286591385 
-0.00000000000000010886 0.70432542171982592816 -0.00000799963130322515 
-0.00000000000000016329 0.70127000028732977555 -0.00000614870244026311 
0.00000000000000005443 0.69892422409986221243 -0.00000439972889717949 
-0.00000000000000005443 0.69728404173846381120 -0.00000274730101938551 
0.00000000000000002722 0.69634074631564379931 -0.00000118628320471433 
0.00000000000000002722 0.69608139281086189865 -0.00000000000000002722 
0.00000000000000005443 0.69648922158288595341 -0.00000000000000010886 
0.00000000000000000000 0.69754408217769792167 0.00000000000000000000 
0.00000000000000016329 0.69922285229966119058 -0.00000000000000010886 
-0.00000000000000013608 0.70149984753420102646 0.00000000000000005443 
-0.00000000000000010886 0.70434721809423728178 0.00000000000000000000 
-0.00000000000000002722 0.70773532950424000720 -0.00000000000000002722 
0.00000000000000000000 0.71163312473109907597 -0.00000000000000005443 
-0.00000000000000019051 0.71600846581761423693 0.00000000000000002722 
-0.00000000000000008165 0.72082845357128921826 0.00000000000000000000 
-0.00000000000000016329 0.72605972430822673935 -0.00000000000000005443 
0.00000000000000000000 0.73166872305020336231 -0.00000000000000002722 
-0.00000000000000010886 0.73762195292397847446 -0.00000000000000002722 
0.00000000000000002722 0.74388620081768308534 -0.00000000000000002722 
-0.00000000000000013608 0.75042873961221578938 -0.00000000000000002722 
-0.00000000000000005443 0.75721750752869054768 0.00000000000000005443 
-0.00000000000000005443 0.76422126531906109381 0.00000000000000008165 
-0.00000000000000005443 0.77140973217910779880 -0.00000000000000008165 
0.00000000000000010886 0.77875370138402344455 -0.00000000000000005443 
-0.00000000000000005443 0.78622513673990501726 -0.00000000000000005443 
-0.00000000000000021773 0.79379725101242759600 0.00000000000000000000 
-0.00000000000000005443 0.80144456487721804638 0.00000000000000002722 
0.00000000000000000000 0.80914284436895189678 0.00000000000000000000 
-0.00000000000000005443 0.81686855036063277247 -0.00000000000000002722 
0.00000000000000005443 0.82459775144185898377 -0.00000000000000002722 
-0.00000000000000005443 0.83230483372050034774 -0.00000000000000008165 
-0.00000000000000010886 0.83996127968480760462 -0.00000000000000010886 
-0.00000000000000005443 0.84753467991584008345 0.00000000000000000000 
-0.00000000000000005443 0.85498806230311963361 -0.00000000000000016329 
0.00000000000000000000 0.86227956764665170120 -0.00000000000000005443 
-0.00000000000000010886 0.86936246268656369729 0.00000000000000000000 
-0.00000000000000005443 0.87618545733997166280 -0.00000000000000002722 
-0.00000000000000013608 0.88269327878990866409 -0.00000000000000002722 
-0.00000000000000013608 0.88882744833945492857 0.00000000000000000000 
-0.00000000000000005443 0.89452720548490982644 0.00000000000000002722 
0.00000000000000000000 0.89973052582410273370 0.00000000000000000000 
-0.00000000000000016329 0.90437518393534399586 -0.00000000000000002722 
-0.00000000000000005443 0.90839981828409133158 0.00000000000000002722 
-0.00000000000000013608 0.91174496182937647681 0.00000000000000000000 
-0.00000000000000016329 0.91435400879616435255 0.00000000000000005443 
-0.00000000000000010886 0.91617409469127331079 0.00000000000000005443 
-0.00000000000000016329 0.91715687282561686455 -0.00000000000000005443 
0.00000000000000002722 0.91725917621138153280 -0.00000000000000010886 
0.00000000000000002722 0.91644355864472737405 0.00000000000000000000 
0.00000000000000000000 0.91467871302900616293 0.00000000000000000000 
-0.00000000000000016329 0.91193976854327629677 -0.00000000000000008165 
-0.00000000000000016329 0.90820847114485336871 -0.00000000000000008165 
-0.00000000000000010886 0.90347325415870893828 -0.00000000000000002722 
0.00000000000000000000 0.89772920740722328414 -0.00000000000000005443 
-0.00000000000000005443 0.89097795453326866788 -0.00000000000000002722 
0.00000000000000010886 0.88322744893182603132 0.00000000000000002722 
-0.00000000000000010886 0.87449169909347324037 -0.00000000000000008165 
-0.00000000000000019051 0.86479043423757850917 -0.00000000000000008165 
-0.00000000000000005443 0.85414872093029670097 0.00000000000000002722 
-0.00000000000000010886 0.84259654099412339967 -0.00000000000000008165 
-0.00000000000000024494 0.83016834046823140270 0.00000000000000013608 
-0.00000000000000016329 0.81690255871314720881 0.00000000000000000000 
-0.00000000000000008165 0.80284114600528133643 -0.00000000000000005443 
0.00000000000000000000 0.78802907716711712016 -0.00000000000000002722 
-0.00000000000000019051 0.77251386795333254476 0.00000000000000008165 
-0.00000000000000016329 0.75634510008335398279 -0.00000000000000002722 
-0.00000000000000002722 0.73957395999423625188 -0.00000000000000008165 
-0.00000000000000016329 0.72225279559829869136 -0.00000000000000002722 
-0.00000000000000005443 0.70443469457829788194 -0.00000000000000005443 
-0.00000000000000002722 0.68617308704711854617 0.00000000000000000000 
-0.00000000000000008165 0.66752137474451045396 -0.00000000000000008165 
0.00000000000000002722 0.64853258834393268106 -0.00000000000000002722 
-0.00000000000000002722 0.62925907389983404272 -0.00000000000000002722 
-0.00000000000000008165 0.60975220898021420535 0.00000000000000000000 
-0.00000000000000008165 0.59006214860030914426 -0.00000000000000002722 
-0.00000000000000010886 0.57023760069911677562 0.00000000000000005443 
-0.00000000000000005443 0.55032563057891858982 0.00000000000000005443 
-0.00000000000000019051 0.53037149345606493522 0.00000000000000010886 
-0.00000000000000010886 0.51041849404587791295 -0.00000000000000008165 
-0.00000000000000010886 0.49050787192210826282 -0.00000000000000008165 
-0.00000000000000002722 0.47067871124832583174 0.00000000000000010886 
-0.00000000000000010886 0.45096787337130872508 -0.00000000000000002722 
0.00000000000000000000 0.43140995069125998018 -0.00000000000000005443 
0.00000000000000005443 0.41203837346305244305 -0.00000000000000005443 
0.00000000000000002722 0.39288221370798176446 0.00000000000000000000 
-0.00000000000000013608 0.37396888113303222712 0.00000000000000000000 
-0.00000000000000008165 0.35532380320804385354 -0.00000000000000002722 
0.00000000000000013608 0.33697016932072126894 0.00000000000000008165 
-0.00000000000000021773 0.31892897799742098153 0.00000000000000000000 
-0.00000000000000010886 0.30121909418759673649 -0.00000000000000005443 
-0.00000000000000016329 0.28385731518879936397 -0.00000000000000005443 
-0.00000000000000010886 0.26685844386385876303 0.00000000000000000000 
-0.00000000000000016329 0.25023536788151912180 -0.00000000000000002722 
-0.00000000000000005443 0.23399914379481423499 0.00000000000000016329 
-0.00000000000000008165 0.21815908485645965631 0.00000000000000010886 
-0.00000000000000013608 0.20272285155629762854 0.00000000000000013608 
-0.00000000000000008165 0.18769654395131660229 0.00000000000000010886 
-0.00000000000000016329 0.17308479494310907709 0.00000000000000000000 
-0.00000000000000013608 0.15889086374006194946 -0.00000000000000008165 
-0.00000000000000008165 0.14511672882149748154 0.00000000000000000000 
0.00000000000000000000 0.13176317979789436974 0.00000000000000013608 
-0.00000000000000021773 0.11882990763481304786 -0.00000000000000005443 
-0.00000000000000016329 0.10631559277794115637 0.00000000000000010886 
-0.00000000000000005443 0.09421799078253889626 0.00000000079597680822 
0.00000000000000002722 0.08253401511233879329 0.00000006784914646422 
-0.00000000000000010886 0.07125981683059227911 0.00000079370838093619 
-0.00000000000000019051 0.06039086095938218934 0.00000432273342671849 
-0.00000000000000008165 0.04992199933259693773 0.00001563543363226002 
-0.00000000000000010886 0.03984753981311874721 0.00004379758461567447 
-0.00000000000000005443 0.03016131178591808723 0.00010299229227333685 
-0.00000000000000010886 0.02085672787598194175 0.00021323770566549058 
-0.00000000000000008165 0.01192684187349116881 0.00040075300034995813 
-0.00000000000000016329 0.00336440287853198875 0.00069797624787199940 
-0.00000000000000019051 -0.00483809429592125303 0.00114326440551590467 
-0.00000000000000024494 -0.01268836240081423761 0.00178032152227729657 
-0.00000000000000002722 -0.02019427862553762471 0.00265740922116957084 
-0.00000000000000005443 -0.02736384497082453016 0.00382639582484290688 
-0.00000000000000010886 -0.03420515200608235939 0.00534169888047860905 
0.00000000000000002722 -0.04072634588511755277 0.00725917164668246195 
-0.00000000000000010886 -0.04693559848439348564 0.00963497834152965936 
-0.00000000000000021773 -0.05284108052026678659 0.01252449637096643247 
-0.00000000000000013608 -0.05845093749586704329 0.01598127691025288954 
0.00000000000000000000 -0.06377326832426982728 0.02005608848767235358 
-0.00000000000000008165 -0.06881610647217813181 0.02479606188439720943 
-0.00000000000000002722 -0.07358740346732005333 0.03024394888652226152 
-0.00000000000000016329 -0.07809501461303441916 0.03643750230164827242 
-0.00000000000000013608 -0.08234668675491103873 0.04340898022576273468 
-0.00000000000000019051 -0.08635004794673110939 0.05118477381991597824 
-0.00000000000000002722 -0.09011259886620681669 0.05978515480596964526 
-0.00000000000000013608 -0.09364170583499824285 0.06922413647335454168 
-0.00000000000000010886 -0.09694459530211434195 0.07950944014943421567 
-0.00000000000000019051 -0.10002834965494333819 0.09064255776328088154 
-0.00000000000000016329 -0.10289990422774131229 0.10261890026251135888 
-0.00000000000000008165 -0.10556604538332141352 0.11542802116167984183 
-0.00000000000000002722 -0.10803340954987752931 0.12905390434737973315 
0.00000000000000005443 -0.11030848310123525513 0.14347530538226779817 
-0.00000000000000008165 -0.11239760297532915001 0.15866613588493178044 
-0.00000000000000008165 -0.11430695793224934786 0.17459588106728557433 
-0.00000000000000008165 -0.11604259035976959014 0.19123004114374111961 
-0.00000000000000010886 -0.11761039854078930711 0.20853058804985827313 
-0.00000000000000002722 -0.11901613930356154392 0.22645642969068019434 
-0.00000000000000016329 -0.12026543098189877712 0.24496387475360442698 
-0.00000000000000008165 -0.12136375661871805220 0.26400709194493876542 
0.00000000000000000000 -0.12231732215881196968 0.28353855832487473432 
0.00000000000000002722 -0.12313100178808572549 0.30350949220777401205 
0.00000000000000005443 -0.12380931138386536139 0.32387026685198599951 
-0.00000000000000013608 -0.12435723180230813523 0.34457080187727312515 
0.00000000000000002722 -0.12477962614129012309 0.36556093001222333960 
-0.00000000000000005443 -0.12508124333480100110 0.38679073738473629396 
0.00000000000000000000 -0.12526672167879826514 0.40821087612354567398 
0.00000000000000002722 -0.12534059226323737701 0.42977284853701336331 
0.00000000000000000000 -0.12530728228898282972 0.45142926257750576324 
-0.00000000000000013608 -0.12517111825203472431 0.47313405868696994938 
-0.00000000000000008165 -0.12493632898094265971 0.49484270845394456861 
-0.00000000000000010886 -0.12460704851646357827 0.51651238579691716168 
-0.00000000000000005443 -0.12418731882543870837 0.53810211162675747332 
-0.00000000000000008165 -0.12368109234351946923 0.55957287313529813222 
-0.00000000000000002722 -0.12309223434378832596 0.58088771901155866750 
0.00000000000000000000 -0.12242452513049233154 0.60201183200519392535 
-0.00000000000000005443 -0.12168166205904144828 0.62291258034213103922 
-0.00000000000000002722 -0.12086668826241103725 0.64355954955353611435 
-0.00000000000000016329 -0.11998291009939324181 0.66392455630965319102 
-0.00000000000000002722 -0.11903466678523752509 0.68398164585794019033 
-0.00000000000000005443 -0.11802533661540091925 0.70370707448134262041 
-0.00000000000000002722 -0.11695822279185257020 0.72307924444859750235 
0.00000000000000000000 -0.11583655449673149751 0.74207831101265042673 
-0.00000000000000013608 -0.11466348783791627253 0.76068520057666411116 
-0.00000000000000002722 -0.11344210667610052368 0.77888028922705421220 
0.00000000000000005443 -0.11217542334332375464 0.79664205980003621743 
0.00000000000000002722 -0.11086637926311418423 0.81394594102201167640 
-0.00000000000000008165 -0.10951784548251845830 0.83076344193198148336 
-0.00000000000000002722 -0.10813262312629892681 0.84706163036541948230 
-0.00000000000000005443 -0.10671344378349401083 0.86280295981415222606 
-0.00000000000000013608 -0.10526296983637459248 0.87794541971707751316 
0.00000000000000008165 -0.10378379474159626916 0.89244296639221121215 
0.00000000000000000000 -0.10227844327303836636 0.90624618239361742766 
0.00000000000000005443 -0.10074937173547948710 0.91930310871394216310 
-0.00000000000000008165 -0.09919896815784538802 0.93156019512378906988 
-0.00000000000000005443 -0.09762955247433208195 0.94296331763400764725 
0.00000000000000000000 -0.09604337670123327952 0.95345881751541550209 
0.00000000000000000000 -0.09444262511679930860 0.96299452273290853110 
0.00000000000000002722 -0.09282941445094038124 0.97152073611105582707 
-0.00000000000000002722 -0.09120579409105462887 0.97899138338664826176 
-0.00000000000000002722 -0.08957374630971823293 0.98536563503107532647 
-0.00000000000000010886 -0.08793518651943570130 0.99060982130685071301 
-0.00000000000000002722 -0.08629196355909884986 0.99469929862130856968 
0.00000000000000000000 -0.08464586001627016909 0.99762003942124011235 
0.00000000000000013608 -0.08299859258887239133 0.99936981794662971268 
0.00000000000000000000 -0.08135181248934324205 0.99995893632163945774 
0.00000000000000005443 -0.07970710589381747868 0.99941048593051362570 
-0.00000000000000002722 -0.07806599443840010755 0.99776017283596540874 
0.00000000000000000000 -0.07642993576413048551 0.99505575717733529828 
0.00000000000000000000 -0.07480032411178473561 0.99135616824348460341 
-0.00000000000000013608 -0.07317849096723476332 0.98673036178700423982 
-0.00000000000000005443 -0.07156570575768105014 0.98125598612066011750 
0.00000000000000005443 -0.06996317659869004391 0.97501792015875121677 
0.00000000000000000000 -0.06837205109161532957 0.96810674102154681275 
-0.00000000000000002722 -0.06679341717064826711 0.96061717200873319999 
0.00000000000000008165 -0.06522830399843987381 0.95264655433661438177 
0.00000000000000002722 -0.06367768290895149674 0.94429337851054029329 
-0.00000000000000008165 -0.06214246839594430444 0.93565590391237019041 
0.00000000000000000000 -0.06062351914528027463 0.92683088835499494174 
0.00000000000000008165 -0.05912163910900710556 0.91791244313861730664 
0.00000000000000008165 -0.05763757861901876861 0.90899102361796946248 
0.00000000000000000000 -0.05617203553792427667 0.90015256048886838069 
0.00000000000000000000 -0.05472565644462171197 0.89147773292384269173 
0.00000000000000013608 -0.05329903785196979382 0.88304138130253373440 
0.00000000000000000000 -0.05189272745384557878 0.87491205454868670177 
-0.00000000000000005443 -0.05050722539881871004 0.86715168494677385969 
-0.00000000000000005443 -0.04914298558761115432 0.85981538170678295518 
-0.00000000000000005443 -0.04780041699148201290 0.85295133341237394653 
0.00000000000000000000 -0.04647988498866011120 0.84660080876281007534 
-0.00000000000000010886 -0.04518171271594392108 0.84079824464247110427 
0.00000000000000010886 -0.04390618243260463460 0.83557141046657412708 
-0.00000000000000002722 -0.04265353689375619983 0.83094163790564345984 
-0.00000000000000005443 -0.04142398073039192663 0.82692410543675798351 
-0.00000000000000002722 -0.04021768183335072688 0.82352816766426728545 
0.00000000000000000000 -0.03903477273852001828 0.82075771995910307144 
-0.00000000000000002722 -0.03787535201067762647 0.81861158965153535405 
0.00000000000000005443 -0.03673948562343472973 0.81708394574938636445 
-0.00000000000000002722 -0.03562749653202118560 0.81616471991877526104 
-0.00000000000000008165 -0.03454020581461121620 0.81584003223785050984 
0.00000000000000000000 -0.03347640798242401683 0.81609261599965299272 
0.00000000000000000000 -0.03243605644707809460 0.81690223658545613183 
0.00000000000000000000 -0.03141907857412563898 0.81824610014462884067 
-0.00000000000000008165 -0.03042537700228428385 0.82009924849373327937 
-0.00000000000000008165 -0.02945483094337555952 0.82243493728080330207 
-0.00000000000000002722 -0.02850729746130205647 0.82522499504692037320 
-0.00000000000000002722 -0.02758261272850984908 0.82844016135424503045 
0.00000000000000008165 -0.02668059325850177105 0.83205040263675722478 
0.00000000000000008165 -0.02580103711308415551 0.83602520486730036442 
0.00000000000000005443 -0.02494372508314181974 0.84033384252319887064 
-0.00000000000000005443 -0.02410842184185990611 0.84494562367437187067 
0.00000000000000005443 -0.02329487706941243616 0.84983011131474039956 
0.00000000000000005443 -0.02250282654826127327 0.85495732131233337370 
0.00000000000000005443 -0.02173199322830924110 0.86029789756866359429 
0.00000000000000000000 -0.02098208826126106430 0.86582326515662422217 
-0.00000000000000005443 -0.02025281200364781320 0.87150576235134991077 
0.00000000000000002722 -0.01954272170201589234 0.87731875258328251288 
0.00000000000000010886 -0.01885242002704040978 0.88323671742999487755 
0.00000000000000000000 -0.01818186790621504137 0.88923533182550984488 
0.00000000000000002722 -0.01753072787061655743 0.89529151549709051761 
-0.00000000000000008165 -0.01689865639686961504 0.90138330515431996925 
0.00000000000000000000 -0.01628530470593756926 0.90748917998167932808 
0.00000000000000010886 -0.01569031952981771519 0.91358690645573026323 
0.00000000000000016329 -0.01511334384627128005 0.91965224445198345826 
0.00000000000000010886 -0.01455401758178647906 0.92565776287297063529 
0.00000000000000008165 -0.01401197828303580792 0.93157191059054100801 
-0.00000000000000002722 -0.01348686175715654856 0.93735841452652379768 
-0.00000000000000005443 -0.01297830268122620277 0.94297602490826193389 
0.00000000000000005443 -0.01248593518137167298 0.94837859292578885473 
0.00000000000000013608 -0.01200939338198699254 0.95351544403141819117 
0.00000000000000008165 -0.01154831192558470471 0.95833199766503751604 
0.00000000000000002722 -0.01110232646384265442 0.96277057866435411526 
0.00000000000000005443 -0.01067107412044739426 0.96677136500243376904 
-0.00000000000000005443 -0.01025419392636278508 0.97027341921840581929 
0.00000000000000008165 -0.00985132722818842996 0.97321575577439911608 
0.00000000000000008165 -0.00946211807028755209 0.97553840285348580874 
-0.00000000000000013608 -0.00908621355139844697 0.97718345771544901091 
-0.00000000000000002722 -0.00872326415645002448 0.97809638938295540012 
0.00000000000000000000 -0.00837292406432732332 0.97822782935599450482 
-0.00000000000000005443 -0.00803485143233883224 0.97753558698852505149 
-0.00000000000000008165 -0.00770870865815296083 0.97598656260205962631 
0.00000000000000002722 -0.00739416261997154559 0.97355835076529584349 
-0.00000000000000008165 -0.00709088489572101948 0.97024042052598669095 
0.00000000000000000000 -0.00679855196203648596 0.96603482714192967507 
0.00000000000000008165 -0.00651684537381994750 0.96095645699588572164 
0.00000000000000002722 -0.00624545192514879607 0.95503283870264232824 
-0.00000000000000008165 -0.00598406379230798438 0.94830357277408772187 
0.00000000000000000000 -0.00573237865971288393 0.94081944266151462664 
-0.00000000000000005443 -0.00549009982948309855 0.93264127396140539261 
0.00000000000000002722 -0.00525693631541874519 0.92383860794567429497 
0.00000000000000008165 -0.00503260292211961911 0.91448825182894555308 
-0.00000000000000013608 -0.00481682030997590636 0.90467276244040073507 
-0.00000000000000008165 -0.00460931504674884276 0.89447891307754823220 
-0.00000000000000002722 -0.00440981964644074267 0.88399618591608264406 
0.00000000000000008165 -0.00421807259614525535 0.87331532489243046680 
0.00000000000000005443 -0.00403381837154760583 0.86252697678574230533 
-0.00000000000000002722 -0.00385680744173304323 0.85172044152024495300 
0.00000000000000000000 -0.00368679626393810878 0.84098254662157079231 
-0.00000000000000008165 -0.00352354726887281608 0.83039665536499296383 
-0.00000000000000010886 -0.00336682883720758374 0.82004181347626026177 
-0.00000000000000005443 -0.00321641526781936936 0.80999203528072039049 
0.00000000000000000000 -0.00307208673835638680 0.80031572691366381633 
-0.00000000000000010886 -0.00293362925867052737 0.79107524155884934025 
-0.00000000000000002722 -0.00280083461764837546 0.78232655961760055874 
-0.00000000000000005443 -0.00267350032394470189 0.77411908516718985762 
-0.00000000000000005443 -0.00255142954111354592 0.76649554898212168830 
-0.00000000000000002722 -0.00243443101760414289 0.75949200770376812386 
-0.00000000000000005443 -0.00232231901207466136 0.75313792839340643059 
-0.00000000000000008165 -0.00221491321445798153 0.74745634763558355118 
-0.00000000000000016329 -0.00211203866318999001 0.74246409452175399224 
0.00000000000000000000 -0.00201352565900069207 0.73817206719207340004 
-0.00000000000000010886 -0.00191920967564170476 0.73458555310477235967 
-0.00000000000000002722 -0.00182893126791178195 0.73170458380141034649 
0.00000000000000002722 -0.00174253597732139777 0.72952431561093600276 
-0.00000000000000008165 -0.00165987423572059255 0.72803542845896263014 
-0.00000000000000012247 -0.00158080126719895237 0.72722453569810285856 
0.00000000000000004082 -0.00150603179508884168 0.72707459863181655990 
-0.00000000000000010886 -0.00143508176645486870 0.72756534015242491087 
-0.00000000000000002722 -0.00136723810824631448 0.72867365264149719373 
0.00000000000000006804 -0.00130237828537032902 0.73037399597804519846 
-0.00000000000000005443 -0.00124038383821186912 0.73263878215966915519 
0.00000000000000004082 -0.00118114028995534100 0.73543874365881523048 
0.00000000000000000000 -0.00112453705342963474 0.73874328320718041230 
-0.00000000000000001361 -0.00107046733768527457 0.74252080322412084001 
-0.00000000000000013608 -0.00101882805449231935 0.74673901357893224251 
-0.00000000000000004082 -0.00096951972494245509 0.75136521680232992715 
0.00000000000000005443 -0.00092244638632025123 0.75636657024046327624 
-0.00000000000000002722 -0.00087751549940125347 0.76171032497701074426 
0.00000000000000001361 -0.00083463785631742631 0.76736404163749571961 
0.00000000000000002722 -0.00079372748912443414 0.77329578343744986846 
-0.00000000000000002722 -0.00075470157919281186 0.77947428704517718323 
0.00000000000000002041 -0.00071748036753303520 0.78586911200351905471 
0.00000000000000002722 -0.00068198706615808877 0.79245076959616245205 
-0.00000000000000000680 -0.00064757464783407495 0.79919083215559838518 
0.00000000000000001361 -0.00061394152537223683 0.80606202389479153503 
-0.00000000000000006124 -0.00058189957537903953 0.81303829438479080505 
-0.00000000000000004763 -0.00055137891044994248 0.82009485914819524321 
-0.00000000000000003402 -0.00052231240155742710 0.82720798973720832681 
0.00000000000000004082 -0.00049463558696151975 0.83435422131911296528 
-0.00000000000000010546 -0.00046828658310286156 0.84150914605218751774 
-0.00000000000000008845 -0.00044320599749774945 0.84864612713051157389 
-0.00000000000000010206 -0.00041933684365063039 0.85573515869151006719 
0.00000000000000000170 -0.00039662445799525673 0.86274200049530491707 
0.00000000000000001531 -0.00037501641886959752 0.86962764722905072645 
-0.00000000000000000510 -0.00035446246752688748 0.87634814427972074213 
-0.00000000000000001616 -0.00033491443117864900 0.88285472987866830952 
0.00000000000000002594 -0.00031632614806363234 0.88909426368253285933 
-0.00000000000000005507 -0.00029865339453402200 0.89500989097419381135 
0.00000000000000000245 -0.00028185381414340925 0.90054188727298090100 
-0.00000000000000002211 -0.00026588684872285356 0.90562862830880863640 
0.00000000000000001616 -0.00025071367142438604 0.91020763355436107300 
-0.00000000000000003572 -0.00023629712170980516 0.91421663669061004054 
-0.00000000000000000340 -0.00022260164226583864 0.91759464265490653379 
0.00000000000000001871 -0.00020959321781199234 0.92028294487078377006 
-0.00000000000000002892 -0.00019723931578236067 0.92222623252396662696 
-0.00000000000000004933 -0.00018550882884612121 0.92337413619351016436 
-0.00000000000000003912 -0.00017437201923697893 0.92368313263652568335 
0.00000000000000000510 -0.00016380046486420149 0.92311845890789878677 
-0.00000000000000004423 -0.00015376700716486174 0.92165578436408335250 
0.00000000000000004763 -0.00014424570067007425 0.91928249546404450232 
-0.00000000000000006124 -0.00013521176424537588 0.91599852548237614691 
0.00000000000000000340 -0.00012664153397347523 0.91181671561577870566 
-0.00000000000000008845 -0.00011851241764087468 0.90676273075014779401 
0.00000000000000001361 -0.00011080285079210377 0.90087457657592739935 
0.00000000000000002381 -0.00010349225431527423 0.89420177815376511443 
-0.00000000000000003402 -0.00009656099352302086 0.88680428610065509254 
-0.00000000000000000340 -0.00008999033868720339 0.87875117737811059282 
-0.00000000000000002041 -0.00008376242699635340 0.87011921484465326593 
-0.00000000000000003402 -0.00007786022589147232 0.86099132453706606061 
-0.00000000000000005443 -0.00007226749775103920 0.85145504301950969417 
-0.00000000000000000340 -0.00006696876587917901 0.84160097979748216268 
-0.00000000000000005443 -0.00006194928176902054 0.83152133225458824128 
-0.00000000000000004763 -0.00005719499359712708 0.82130848320382487948 
-0.00000000000000004082 -0.00005269251591917125 0.81105370420395506148 
-0.00000000000000003742 -0.00004842910052603041 0.80084598143748098042 
0.00000000000000000340 -0.00004439260842964401 0.79077097527272222077 
0.00000000000000010546 -0.00004057148293827174 0.78091011968005219490 
-0.00000000000000003742 -0.00003695472379416146 0.77133986344502469823 
0.00000000000000005783 -0.00003353186233231979 0.76213105159576999270 
-0.00000000000000005103 -0.00003029293763265961 0.75334844259695543656 
0.00000000000000003062 -0.00002722847363115060 0.74505035460453705731 
-0.00000000000000002041 -0.00002432945715662693 0.73728843236440477771 
-0.00000000000000000340 -0.00002158731686621977 0.73010752511102439133 
0.00000000000000003062 -0.00001899390304215642 0.72354566501635897424 
0.00000000000000001361 -0.00001654146822852056 0.71763413529385045031 
-0.00000000000000004763 -0.00001422264867015758 0.71239761691942082855 
0.00000000000000003062 -0.00001203044653178876 0.70785440303811064666 
-0.00000000000000001021 -0.00000995821286576417 0.70401667043256044298 
-0.00000000000000015649 -0.00000799963130303464 0.70089079789464447945 
-0.00000000000000003742 -0.00000614870244039919 0.69847772192577595174 
0.00000000000000000680 -0.00000439972889709785 0.69677332086126775312 
0.00000000000000002722 -0.00000274730101963045 0.69576881924089573062 
-0.00000000000000004082 -0.00000118628320471433 0.69545120500706258948 
-0.00000000000000003062 0.00000000000000005443 0.69580365288339707242 
-0.00000000000000014288 -0.00000000000000008165 0.69680594805348716747 
-0.00000000000000001701 0.00000000000000002722 0.69843490500835470058 
-0.00000000000000004763 0.00000000000000005443 0.70066477715166741724 
-0.00000000000000006124 0.00000000000000005443 0.70346765343553374628 
0.00000000000000003742 0.00000000000000002722 0.70681383894124771849 
-0.00000000000000003402 0.00000000000000005443 0.71067221691454374177 
-0.00000000000000006804 0.00000000000000000000 0.71501059031143598954 
-0.00000000000000011227 -0.00000000000000005443 0.71979600140749877557 
0.00000000000000002381 0.00000000000000005443 0.72499502847046726206 
-0.00000000000000005103 0.00000000000000005443 0.73057405889423798762 
-0.00000000000000006124 0.00000000000000010886 0.73649953854325422853 
-0.00000000000000011227 0.00000000000000013608 0.74273819736198876118 
-0.00000000000000011227 0.00000000000000005443 0.74925725156725686560 
-0.00000000000000008845 -0.00000000000000010886 0.75602458296416463757 
-0.00000000000000004763 0.00000000000000002722 0.76300889611253086553 
-0.00000000000000011227 0.00000000000000010886 0.77017985422264589879 
-0.00000000000000003062 0.00000000000000013608 0.77750819478025257059 
-0.00000000000000012587 -0.00000000000000008165 0.78496582599367326072 
-0.00000000000000002722 -0.00000000000000002722 0.79252590522396593187 
-0.00000000000000013268 -0.00000000000000002722 0.80016289794220463172 
-0.00000000000000001021 -0.00000000000000013608 0.80785251519049472435 
0.00000000000000003742 0.00000000000000002722 0.81557116307773569464 
-0.00000000000000004763 0.00000000000000008165 0.82329485567851434791 
0.00000000000000001701 0.00000000000000000000 0.83099792485911216922 
-0.00000000000000013608 0.00000000000000000000 0.83865179916721732667 
-0.00000000000000002722 -0.00000000000000005443 0.84622401557480975143 
-0.00000000000000009866 0.00000000000000000000 0.85367754872670764676 
-0.00000000000000007825 -0.00000000000000005443 0.86097048657751595879 
-0.00000000000000000340 0.00000000000000000000 0.86805604345783782261 
-0.00000000000000002041 0.00000000000000010886 0.87488287734898462222 
-0.00000000000000005103 0.00000000000000000000 0.88139566401066038459 
-0.00000000000000000340 0.00000000000000005443 0.88753587387441967849 
-0.00000000000000004082 -0.00000000000000010886 0.89324269615641893605 
-0.00000000000000002381 0.00000000000000005443 0.89845405680525014525 
0.00000000000000001361 0.00000000000000005443 0.90310768142008179815 
0.00000000000000003062 0.00000000000000002722 0.90714216019591598084 
-0.00000000000000000340 0.00000000000000005443 0.91049797856776215621 
0.00000000000000006804 0.00000000000000000000 0.91311848401968143119 
-0.00000000000000002722 0.00000000000000002722 0.91495076613612369432 
0.00000000000000007144 0.00000000000000005443 0.91594643315814150419 
-0.00000000000000016329 0.00000000000000005443 0.91606227391292593953 
0.00000000000000001191 0.00000000000000008165 0.91526079892711309505 
-0.00000000000000001531 0.00000000000000000000 0.91351065877873416365 
-0.00000000000000008165 0.00000000000000008165 0.91078694129246973166 
-0.00000000000000005783 0.00000000000000010886 0.90707135206687894424 
-0.00000000000000000340 0.00000000000000002722 0.90235228508632070454 
-0.00000000000000004252 0.00000000000000013608 0.89662479187103871769 
-0.00000000000000003232 0.00000000000000005443 0.88989045881832951057 
-0.00000000000000008505 0.00000000000000005443 0.88215720314998213869 
0.00000000000000002892 -0.00000000000000008165 0.87343899826930582186 
0.00000000000000002211 0.00000000000000000000 0.86375553940558569277 
-0.00000000000000002722 -0.00000000000000002722 0.85313186024107290351 
0.00000000000000003232 0.00000000000000002722 0.84159791082728863110 
0.00000000000000006804 0.00000000000000008165 0.82918810654989805187 
-0.00000000000000003572 0.00000000000000013608 0.81594085723575127123 
0.00000000000000005443 0.00000000000000002722 0.80189808474766499646 
0.00000000000000001871 0.00000000000000005443 0.78710473661279534152 
-0.00000000000000001701 -0.00000000000000002722 0.77160830240494771015 
-0.00000000000000010716 0.00000000000000000000 0.75545833877139512147 
0.00000000000000001531 0.00000000000000008165 0.73870600817816844952 
0.00000000000000003062 -0.00000000000000005443 0.72140363565833254267 
0.00000000000000008675 0.00000000000000002722 0.70360428709611677611 
0.00000000000000000170 0.00000000000000002722 0.68536137187395784753 
-0.00000000000000003402 0.00000000000000010886 0.66672827205508411463 
-0.00000000000000000340 0.00000000000000008165 0.64775799967478586705 
-0.00000000000000004933 0.00000000000000000000 0.62850288317079516798 
0.00000000000000001701 0.00000000000000000000 0.60901428349771835613 
-0.00000000000000007314 0.00000000000000002722 0.58934234004144669949 
0.00000000000000007825 -0.00000000000000002722 0.56953574607536960883 
0.00000000000000004082 0.00000000000000005443 0.54964155317862828376 
-0.00000000000000000680 -0.00000000000000002722 0.52970500376476936655 
-0.00000000000000007995 0.00000000000000000000 0.50976939064375359489 
0.00000000000000003912 -0.00000000000000005443 0.48987594235783127328 
0.00000000000000001616 0.00000000000000013608 0.47006373288876024397 
0.00000000000000001276 0.00000000000000013608 0.45036961422651350384 
-0.00000000000000008420 -0.00000000000000002722 0.43082817021438640781 
-0.00000000000000001021 0.00000000000000000000 0.41147169003872813287 
0.00000000000000000850 -0.00000000000000002722 0.39233156830635740331 
-0.00000000000000007910 0.00000000000000000000 0.37343400869548831755 
-0.00000000000000001531 0.00000000000000013608 0.35480443323566324132 
-0.00000000000000008080 0.00000000000000010886 0.33646602653647150749 
0.00000000000000007484 -0.00000000000000008165 0.31843978298261588211 
0.00000000000000000170 0.00000000000000005443 0.30074456399268761908 
-0.00000000000000006719 -0.00000000000000013608 0.28339716391860697575 
-0.00000000000000001021 0.00000000000000005443 0.26641238323741001093 
-0.00000000000000003615 0.00000000000000005443 0.24980310776670314188 
0.00000000000000003019 -0.00000000000000010886 0.23358039271812153226 
-0.00000000000000003870 0.00000000000000010886 0.21775355048811365077 
-0.00000000000000009015 0.00000000000000010886 0.20233024117112588525 
-0.00000000000000001701 -0.00000000000000005443 0.18731656486575049003 
-0.00000000000000009483 -0.00000000000000008165 0.17271715492873246367 
-0.00000000000000007825 0.00000000000000002722 0.15853527141416365320 
-0.00000000000000012417 0.00000000000000005443 0.14477289401510903821 
0.00000000000000004890 0.00000000000000008165 0.13143081390182015378 
-0.00000000000000006932 -0.00000000000000002722 0.11850872392418426715 
-0.00000000000000001531 0.00000000000000000000 0.10600530671584450226 
0.00000000079597683459 0.00000000000000005443 0.09391832030328498004 
0.00000006784914633707 -0.00000000000000010886 0.08224468088495644202 
0.00000079370838089366 0.00000000000000008165 0.07098054250313957925 
0.00000432273342649566 0.00000000000000005443 0.06012137338468148684 
0.00001563543363210310 0.00000000000000002722 0.04966202877600538190 
0.00004379758461551416 -0.00000000000000005443 0.03959682014295243246 
0.00010299229227320502 0.00000000000000016329 0.02991958064714905080 
0.00021323770566537619 -0.00000000000000008165 0.02062372684783590412 
0.00040075300034971977 0.00000000000000008165 0.01170231661156373969 
0.00069797624787184479 0.00000000000000002722 0.00314810324204867556 
0.00114326440551586130 0.00000000000000013608 -0.00504641413108476190 
0.00178032152227727359 -0.00000000000000008165 -0.01288894384273823329 
0.00265740922116948454 0.00000000000000016329 -0.02038735857988293459 
0.00382639582484281234 0.00000000000000005443 -0.02754965576687542356 
0.00534169888047862119 0.00000000000000013608 -0.03438392133461663780 
0.00725917164668233098 0.00000000000000000000 -0.04089829674752054611 
0.00963497834152941129 0.00000000000000019051 -0.04710094915244417146 
0.01252449637096636828 0.00000000000000005443 -0.05300004450603621603 
0.01598127691025277158 0.00000000000000002722 -0.05860372353117736244 
0.02005608848767217317 -0.00000000000000005443 -0.06392008034918178483 
0.02479606188439700820 0.00000000000000008165 -0.06895714363197916197 
0.03024394888652212621 0.00000000000000016329 -0.07372286011750579793 
0.03643750230164827936 0.00000000000000016329 -0.07822508033178875164 
0.04340898022576254039 0.00000000000000000000 -0.08247154636260120575 
0.05118477381991586028 0.00000000000000010886 -0.08646988153195422910 
0.05978515480596954812 0.00000000000000005443 -0.09022758181793376353 
0.06922413647335450004 0.00000000000000008165 -0.09375200888038019709 
0.07950944014943432669 0.00000000000000005443 -0.09705038454953154869 
0.09064255776328082603 0.00000000000000005443 -0.10012978664188854072 
0.10261890026251134500 0.00000000000000013608 -0.10299714597314843512 
0.11542802116167977244 0.00000000000000013608 -0.10565924444396494752 
0.12905390434737967764 0.00000000000000008165 -0.10812271408048146348 
0.14347530538226743735 0.00000000000000002722 -0.11039403691794753837 
0.15866613588493183595 -0.00000000000000002722 -0.11247954562223216879 
0.17459588106728549106 0.00000000000000005443 -0.11438542475059065850 
0.19123004114374089757 0.00000000000000024494 -0.11611771255961260418 
0.20853058804985830088 0.00000000000000005443 -0.11768230327479825559 
0.22645642969068030537 0.00000000000000008165 -0.11908494974264742516 
0.24496387475360423269 0.00000000000000005443 -0.12033126639247064549 
0.26400709194493865439 0.00000000000000002722 -0.12142673244129160992 
0.28353855832487462330 0.00000000000000013608 -0.12237669528120448392 
0.30350949220777401205 0.00000000000000008165 -0.12318750728038517506 
0.32387026685198588849 0.00000000000000010886 -0.12386334178135227635 
0.34457080187727301412 0.00000000000000002722 -0.12440888480259133797 
0.36556093001222328409 0.00000000000000013608 -0.12482899618898075922 
0.38679073738473607191 -0.00000000000000002722 -0.12512842169570279061 
0.40821087612354561847 0.00000000000000000000 -0.12531179651446369694 
0.42977284853701336331 0.00000000000000008165 -0.12538364870572035747 
0.45142926257750565222 0.00000000000000000000 -0.12534840251564136060 
0.47313405868696983836 0.00000000000000005443 -0.12521038156023467369 
0.49484270845394456861 0.00000000000000005443 -0.12497381186253402052 
0.51651238579691705066 0.00000000000000005443 -0.12464282473190414768 
0.53810211162675736229 0.00000000000000006124 -0.12422145947745134864 
0.55957287313529802120 0.00000000000000011737 -0.12371366595017753431 
0.58088771901155844546 0.00000000000000007995 -0.12312330691093413548 
0.60201183200519370331 0.00000000000000008675 -0.12245416022339822293 
0.62291258034213092820 0.00000000000000006124 -0.12170992087323422026 
0.64355954955353600333 0.00000000000000013438 -0.12089420281632547172 
0.66392455630965308000 0.00000000000000007995 -0.12000968585392221555 
0.68398164585793996828 0.00000000000000011567 -0.11906017532829674122 
0.70370707448134273143 0.00000000000000017350 -0.11804963363180559499 
0.72307924444859728030 0.00000000000000009015 -0.11698136176709771072 
0.74207831101265042673 0.00000000000000004252 -0.11585858678970634150 
0.76068520057666400014 0.00000000000000004933 -0.11468446275202999474 
0.77888028922705399015 0.00000000000000005953 -0.11346207152880613545 
0.79664205980003610641 0.00000000000000004933 -0.11219442353402582502 
0.81394594102201167640 0.00000000000000014458 -0.11088445833945333174 
0.83076344193198137233 0.00000000000000004423 -0.10953504520502869990 
0.84706163036541948230 0.00000000000000008335 -0.10814898353143660714 
0.86280295981415211504 0.00000000000000003232 -0.10672900324504004665 
0.87794541971707729111 0.00000000000000004848 -0.10527776512521834495 
0.89244296639221110112 -0.00000000000000002296 -0.10379786108390452737 
0.90624618239361731664 0.00000000000000001106 -0.10229181440682630355 
0.91930310871394216310 0.00000000000000015054 -0.10076207996559084779 
0.93156019512378895886 0.00000000000000020327 -0.09921104440936120983 
0.94296331763400742521 0.00000000000000007229 -0.09764102634442402284 
0.95345881751541539106 0.00000000000000013948 -0.09605427650947979956 
0.96299452273290830906 0.00000000000000000255 -0.09445297795398654994 
0.97152073611105560502 0.00000000000000020072 -0.09283924622636986757 
0.97899138338664803971 0.00000000000000004593 -0.09121512957837989155 
0.98536563503107488238 0.00000000000000013948 -0.08958260919133639866 
0.99060982130685026892 0.00000000000000006804 -0.08794359942945939590 
0.99469929862130856968 0.00000000000000011652 -0.08629994812493407830 
0.99762003942124011235 0.00000000000000000510 -0.08465343689882910694 
0.99936981794662971268 0.00000000000000013098 -0.08300578152144678923 
0.99995893632163945774 0.00000000000000010716 -0.08135863231516878014 
0.99941048593051340365 0.00000000000000010631 -0.07971357460235760362 
0.99776017283596496465 0.00000000000000001021 -0.07807212920037738535 
0.99505575717733529828 0.00000000000000004252 -0.07643575296533750008 
0.99135616824348460341 0.00000000000000015479 -0.07480583938570133096 
0.98673036178700401777 0.00000000000000001446 -0.07318371922648410355 
0.98125598612066011750 0.00000000000000010886 -0.07157066122435223887 
0.97501792015875121677 0.00000000000000008930 -0.06996787283355865306 
0.96810674102154659071 0.00000000000000004338 -0.06837650102229106408 
0.96061717200873297795 0.00000000000000010971 -0.06679763311867906173 
