-0.281571 1.033570 -0.913298 -0.902631 1.065562 1.729055 -0.869493 1.099238 -1.498975 1.333995 -1.090742 1.090466 0.859549 1.459317 -1.231929 2.415045 0.635640 -0.683115 1.275000 2.360885 -0.548903 -0.389802 -0.985643 -0.055897 -1.532539 1.916293 -1.666466 -1.846335 -2.142213 -1.069621 -1.631052 -0.233734 -0.212914 0.025496 -0.482353 0.451224 1.050645 0.175914 0.090504 -1.271978 -0.429925 -0.455467 0.841764 1.317396 0.513321 -0.040433 -1.225420 -1.033131 -0.397966 0.726818 -0.805790 -0.603336 0.286709 1.050752 0.927801 -1.216898 0.945405 1.369114 1.160767 -0.979938 0.504597 -0.880116 -1.400555 -1.334321 -0.584090 0.097466 0.106192 1.551273 0.182289 -0.348659 1.060648 -1.173906 -1.065758 -1.128511 0.291248 -0.424654 -1.646648 1.373435 -2.079718 -0.346582 -1.732301 -0.853150 1.144486 -1.110459 -0.111486 0.581612 -0.105981 0.653663 -2.234657 0.086869 -2.737756 -0.426835 0.142072 -1.239409 -0.942443 -1.421171 -0.476288 0.183942 0.623601 -0.115488 -0.753740 1.369871 -0.170599 -2.131730 -0.004179 -0.212817 0.436642 0.893857 0.807737 0.191216 -1.771059 1.112877 -1.905022 0.844370 -0.185457 0.562219 1.220739 1.099306 1.731745 0.138913 0.723076 1.190063 0.850384 0.035680 -0.019148 1.310506 0.459883 -0.235541 -0.188399 0.483775 1.062533 -0.426307 1.010369 -0.437635 1.050113 0.218977 -1.085665 3.007212 -0.818876 1.502663 0.556165 -0.704105 1.467999 2.360725 2.103865 0.563379 -0.072068 -1.138324 -0.385136 2.073942 -1.662095 0.013144 0.732240 1.577947 -0.438836 0.318461 -0.337104 -0.911715 -0.202706 0.450937 0.392388 -0.861681 0.100298 0.215820 0.874010 1.376237 0.537897 -0.721318 -1.816993 0.432783 -0.426645 0.208466 -1.816726 -0.053496 -1.238275 -0.932648 -0.837666 -0.772310 -0.014178 3.280984 0.893336 1.076975 -0.970857 0.625162 -0.965683 -1.070558 -1.144189 0.908078 0.817985 -1.021715 -1.977571 -0.278979 -0.359703 0.868385 -0.756245 0.125318 -0.424241 -2.807646 0.250414 -0.083568 0.503044 -1.586916 0.724012 0.093678 -0.495319 0.166211 1.978772 -1.011121 -1.422635 -0.633113 0.095888 1.904317 -0.480725 -0.262689 1.812787 0.936796 2.202119 -0.273742 0.464872 -0.968365 -0.228371 0.333877 -0.525529 0.867291 0.792200 0.847098 0.861070 0.091981 0.775537 -0.115807 0.504782 -0.945585 0.512878 0.425700 -0.223984 -0.129373 -0.086352 0.631958 -0.123161 -0.756180 -0.608328 -1.193963 0.965503 -0.574016 0.900551 1.442442 -0.589744 -0.968459 -0.233662 1.020372 1.384370 -0.232215 -0.673919 0.208356 0.237617 -1.133687 1.514885 0.492911 1.224715 0.462815 0.560596 -0.750023 -0.700624 -0.080718 -0.198073 -0.250273 0.507470 -0.752496 -2.407127 -0.715053 -0.079929 0.490308 -0.328043 -0.814240 -1.135344 0.426189 0.288635 0.812665 0.578262 -0.077521 -1.240534 0.286172 -0.553939 0.086923 0.557990 -2.113373 0.334285 1.515605 0.686024 0.612722 -0.853556 0.744530 -0.113247 -0.845184 -0.148826 -0.274458 -0.832196 -0.015098 1.280857 0.498147 -0.837645 -1.312638 -0.462658 0.130040 0.604484 0.445854 -0.187066 -0.643681 -0.441140 -1.088029 0.881051 -0.777691 0.035673 -0.607266 -0.386130 1.029183 0.781047 0.009506 0.667604 0.541570 -0.109361 -2.791766 -0.473660 -0.617115 0.699074 0.512931 0.563158 -0.593154 0.305703 0.213542 0.729214 -0.272978 1.698128 -0.527963 -0.927583 -0.155019 -1.509659 -0.049514 -0.272706 -0.873940 -0.639507 -1.186024 -0.215084 1.039078 -0.519013 0.291709 -0.454118 -0.282245 -0.930706 -0.267241 1.626315 0.633595 0.626819 -0.016286 -0.573417 -0.499544 0.663431 -0.281544 0.347797 0.272180 -0.253507 -0.123843 1.156845 -1.047341 -0.255606 -0.365911 -0.274568 -1.574557 -0.075400 -0.749173 1.359531 -0.225993 -0.690129 -0.557653 -1.148841 1.584753 1.792209 0.202625 0.326418 -1.614175 -1.223845 0.020306 0.359294 -0.466926 1.554644 0.849523 0.379395 1.016931 0.815239 -0.700346 1.193790 -0.449031 1.010331 0.763623 -1.856729 -1.455392 -1.384515 0.718256 -0.201603 -0.212928 1.314053 -0.676949 -0.357024 0.934568 2.614937 -2.438822 1.220977 0.316122 -0.220169 -0.286590 -0.343355 -0.887879 -0.173086 -0.871901 -0.615662 0.020606 -1.240785 -0.318758 0.973219 -0.463563 0.987279 -0.533445 -0.971577 -0.227565 0.964389 0.774607 -0.710548 -1.193077 -0.253130 -0.285250 0.314847 0.124813 0.116947 0.188436 0.251494 0.908331 0.047814 -0.016317 -0.726089 0.002437 -0.064838 -0.759923 -0.663448 0.729213 0.628774 -0.712766 0.073028 -0.588080 0.810877 -0.095150 1.863442 0.256611 -0.978079 0.544083 -0.256817 -1.595797 -0.873946 -0.888693 -0.044379 0.558004 -2.688427 -1.453568 -0.694468 0.684002 -0.206053 -1.555322 0.783132 -1.246728 0.323878 0.776208 1.200209 1.027311 -1.735729 -0.030844 3.114481 -2.116436 2.160527 -0.399587 0.585300 1.112280 1.502599 1.386538 -0.886398 -1.385014 -1.796812 1.489589 0.421759 -1.625355 -0.602238 -1.012455 1.927878 -0.475981 -2.385816 -0.075080 -1.482022 0.155110 0.596597 0.495992 1.251780 0.463467 0.601603 -2.131033 -0.002943 -0.893373 -0.917133 1.064047 -0.389463 0.580163 0.572387 0.582730 1.179835 0.168793 -0.504216 0.156602 -0.617077 0.793029 -1.403477 0.173459 0.772773 0.704058 1.978402 -1.570080 0.131405 0.016568 -0.070625 -0.159600 0.357280 -0.900844 0.013446 0.655598 0.642203 -0.155533 0.522753 -0.169956 -2.062116 2.749763 0.231625 0.977751 2.104954 -0.004327 -1.705344 -0.959716 0.978331 1.962956 -1.139195 1.253117 -1.365232 -0.896863 -0.212764 -0.396341 2.158172 -0.230911 0.106100 0.961902 1.529835 -0.588488 0.006495 0.529845 -0.200034 1.098096 -1.008356 -0.057019 -2.023934 1.567408 -0.065595 -0.047287 -1.305483 -0.325286 -1.523407 -1.333172 1.958417 -1.659407 -0.618477 -1.784824 1.239178 -0.304256 -0.364537 0.341135 -0.992127 0.535241 1.062553 -1.096026 -1.556055 2.454571 0.120699 0.170315 1.997098 -0.141080 1.339001 -0.345555 0.405954 -0.440324 -1.195788 -0.324902 0.273991 -1.720424 -1.361275 -0.556242 0.890097 -0.593992 0.838075 -0.533074 0.341413 -1.045427 -0.267429 -1.683979 0.412199 -1.064262 -0.168052 0.495994 1.171023 -1.533967 -0.603598 0.673249 -0.145740 1.697482 -0.597189 -0.982342 -0.158029 0.451738 -0.311931 -1.112365 -0.337257 -0.233012 0.449803 1.692280 0.796992 2.085761 -0.799120 -0.551955 1.333293 -0.399769 0.886523 -0.067529 -0.550963 -0.333551 2.276425 -0.655509 -0.547816 -0.569041 1.561623 -0.035410 1.260296 -2.172467 -1.036757 -0.999699 -0.249374 -1.026406 -0.955260 1.237112 -0.092811 0.076686 1.426793 0.533598 -0.165916 0.388736 -0.360639 0.320327 -1.834046 -0.208803 1.034863 0.210323 0.283726 1.588051 -0.486732 -0.303137 0.242124 0.801779 -0.750010 1.914197 1.021697 1.716693 0.849373 0.853113 -0.567554 0.708068 -1.518043 -0.022188 -0.188145 1.902962 0.406210 0.555257 -1.324764 -1.669237 -0.911497 -1.640430 1.044211 -1.146625 0.588945 0.729013 -0.470117 0.387761 0.816253 -0.014804 0.586519 -0.246116 0.602082 -2.132781 0.186261 -1.912113 1.607335 0.577330 -0.018858 -0.501109 -0.314220 -0.204851 1.008814 -0.661532 0.798790 -0.023978 -1.134215 -0.253965 0.980073 0.131337 0.075034 -1.903488 0.504486 0.984724 1.478234 -1.366093 -0.441041 -0.987934 1.135218 0.776556 -0.692047 -1.846700 -0.175951 1.171578 -0.359603 -1.045978 1.086153 -0.988876 -0.060810 0.482176 -0.908463 1.179454 -0.426751 0.461221 -0.302627 0.375706 0.360535 -1.091182 -0.274268 1.664412 1.369118 -2.005369 -0.984890 2.419643 -1.280816 0.851944 -0.763763 0.191380 -0.480646 -1.094920 0.429705 0.187222 0.815716 -0.514281 0.280192 0.316362 -1.712965 -0.185441 0.957851 -1.182363 -0.945676 -0.177870 1.284605 0.412089 1.003843 0.280224 0.959597 -1.156800 -0.327413 -1.120027 2.845734 -0.325816 1.884012 -0.280130 -0.625655 -0.525207 -0.647473 -1.384430 -0.697705 -0.679708 -0.373666 0.398868 -0.175152 -0.042648 -1.360009 -0.514130 1.408203 -0.889674 1.270686 0.393860 -2.081702 0.914855 0.546751 1.141485 -1.150830 0.368731 -0.862634 0.556673 1.015478 -0.479459 -0.408039 -0.336226 -0.879573 -0.772572 0.467691 -0.278912 1.094595 0.963738 -0.297628 0.482234 0.982017 0.801220 -0.736673 -2.004712 0.271266 0.096268 0.719631 0.588403 -0.695317 0.263064 0.873472 0.072124 -1.332268 -1.262358 -0.432549 0.229108 0.146615 -0.472428 0.358891 0.392650 -0.247442 0.406914 1.536844 -0.024586 -0.627830 -1.188799 -0.343491 -1.729585 1.018602 0.746977 0.106606 0.246015 1.019077 0.312523 0.188363 0.000035 -1.353451 0.069109 -0.677491 0.778574 -1.988716 0.371954 0.314133 0.318030 0.267888 -0.432078 1.006849 -1.133644 -0.307269 0.960222 0.715035 0.021299 0.693284 0.031913 -0.543773 -1.221300 1.498624 0.457773 -0.233786 1.182799 -0.177636 -0.647981 -0.642899 1.301966 0.344915 0.246609 0.316308 1.079286 -1.628704 -1.353951 0.634562 1.042833 0.839414 1.451103 0.164863 -0.909308 -0.786026 1.151308 0.715905 1.139503 -0.901292 -0.473954 -0.949109 0.485764 0.228992 2.030916 0.435599 1.308657 1.282235 -2.024869 -1.085925 0.074912 1.178151 0.913855 0.855587 0.451525 -1.960314 1.032919 1.314936 0.288375 0.813300 -0.529195 -0.777792 -0.624285 0.041420 0.599667 -0.939173 1.292866 0.575625 -0.606678 -1.732246 -0.223143 -1.611959 -0.187220 1.010002 1.647210 -1.649964 -1.124707 -0.244768 -0.954623 1.543145 -1.512570 -1.758146 -0.753988 -1.216329 0.340215 0.686427 -0.042700 0.123385 0.164786 -0.353436 -1.032422 0.894447 1.271826 1.058919 0.976269 0.347008 -0.215200 -2.852293 -0.626644 -0.870549 -0.260607 0.390352 -0.810047 0.296748 -0.300436 -1.512627 0.564821 0.180737 0.162937 0.117288 -1.113479 1.830756 1.430264 0.599328 1.144580 0.279088 1.670899 0.004584 -0.679505 -1.303104 1.361399 -0.211797 -0.786317 0.647015 -0.643284 0.249527 -0.514687 1.521650 -1.354360 -1.119893 1.674535 -0.565023 2.207348 1.129023 0.523693 -0.065107 1.193269 -0.271603 0.931830 -0.699552 -2.421932 0.537947 -0.917222 -2.628313 -1.002917 0.385097 1.149973 -0.320886 1.221391 -0.744661 0.102115 2.594933 0.759761 -0.652768 -1.240077 -2.264834 -0.620012 1.103591 -1.757521 1.210751 1.080020 0.015457 -0.502900 0.771167 -0.702321 -0.753469 -0.174011 -0.102784 0.574654 0.537183 0.603722 -0.057373 -0.694995 -0.595729 0.660503 -0.878726 -1.396657 1.413051 -0.711913 0.213313 -0.534847 -1.035287 1.729953 -0.665479 -1.088299 -0.335004 0.984484 0.928172 1.361963 -0.082491 -1.865543 1.007423 0.067954 -0.681260 -0.753999 -0.642764 1.573530 1.314046 -1.372536 -1.052442 1.619817 0.054573 -0.014545 0.500596 -0.119966 -0.634212 1.390783 -0.793263 0.637822 -0.905920 1.318855 1.097508 0.298521 -0.942067 0.526135 0.400347 -2.278179 0.563389 -0.283440 -0.793458 0.005207 -1.267983 -0.254385 0.969241 0.824381 -1.805069 -0.887817 0.577150 -0.832286 -2.108173 0.070245 -1.265947 -0.334760 -0.991484 -0.091953 -1.382174 1.416853 -0.120372 -0.028683 1.222058 -0.229159 1.182184 0.217414 2.139101 -0.175769 1.143183 -1.621758 1.892238 -0.527577 0.223074 -1.203621 0.326965 1.606590 1.385143 -0.704433 0.195852 1.453973 0.638883 1.761015 -0.523933 0.337633 0.304617 -1.665979 0.554439 -1.045902 -0.152948 -0.110482 -0.014302 0.846207 2.043844 0.560385 1.290141 -2.173181 1.535210 0.433614 -1.619473 -1.390169 0.726374 0.764224 -1.197584 0.358653 -0.858871 -0.001476 -0.036707 -0.041004 -0.659550 1.402297 -0.662105 -0.384350 -1.681747 0.571040 -1.568438 -0.705570 1.967167 0.439488 -1.352737 0.280771 0.260258 0.243189 -0.666540 -0.575263 0.184079 0.147127 -1.731570 1.180901 -0.410009 -0.883131 -0.143626 0.499973 -0.167183 -0.187233 1.156116 -0.259897 -0.220838 -1.515059 -0.007664 0.489901 0.965512 -1.111888 0.451701 -0.239008 -0.790585 -0.815990 -2.172442 0.663812 -0.260033 -1.461868 0.136144 0.072911 0.177125 -1.913686 -1.056227 0.288784 -1.246016 2.170023 1.079927 -2.164828 0.226365 0.028969 0.636889 0.841353 -0.101167 -1.892221 0.967677 -1.208146 -1.696337 -1.113409 0.869938 0.071250 0.056402 1.433552 -0.636943 0.771044 -0.162360 -0.915072 0.324774 0.698243 -0.675296 -0.591730 0.754679 0.672118 -0.823655 0.530820 -0.285873 -0.918500 1.061788 -0.515775 0.239375 -1.225240 0.300786 -0.449922 0.799129 2.567102 0.212353 -0.335384 1.693225 -1.232914 0.205974 0.446548 0.974534 1.464033 -2.008059 -1.444155 1.923944 -0.525548 0.200954 -2.006013 1.074269 -0.372068 0.340377 -1.026415 -0.272866 0.376827 0.969339 0.798697 2.023863 0.447487 1.862113 0.222988 0.855135 -0.738598 1.218134 0.928050 -0.499095 0.304196 -1.642358 0.003224 0.540417 0.385901 1.701705 1.481064 -1.053858 -0.708832 1.909261 0.214046 -1.233692 -0.466873 -0.290962 -0.777356 -0.019723 -0.647586 -1.142056 -0.970173 1.206196 -0.255813 1.149096 -0.934643 -0.597598 -1.822236 0.328899 -1.185030 0.226290 -0.485702 1.097318 -0.250014 1.237289 0.386161 -0.961139 -0.238968 -0.313500 -0.326879 -0.998456 1.742500 0.247502 -0.298951 -0.174678 -1.425658 -0.593883 1.871194 -2.435882 -0.635002 0.013675 -0.450631 0.953835 -1.305339 0.351581 -0.440125 0.928687 0.822194 -0.693332 0.135012 -2.527346 0.458272 0.175611 -1.252073 -0.382271 -0.354884 2.490623 0.140276 0.191266 -1.105682 0.953778 0.050210 -1.390602 1.317876 -0.262189 0.580451 -0.131749 -1.378895 0.166833 0.564872 0.466791 0.366167 -0.339761 0.549038 0.445686 1.657394 -1.930650 -0.993078 0.354735 -1.709518 1.132084 1.439799 -0.549082 -0.275549 -0.885998 -0.638945 -0.797809 -0.913051 1.152617 0.268157 1.097944 0.444154 -0.818944 -0.034575 1.055628 -1.865781 0.294123 -0.555361 0.349100 0.949657 0.170689 -0.366159 -0.361878 -0.350869 1.612900 -0.132486 0.618410 1.846997 0.366930 -0.199261 0.384347 -0.410809 0.216643 -0.007198 -0.611793 1.477944 -0.698909 -1.703304 1.112204 -3.096279 1.360964 -0.457462 -2.187851 0.849807 1.245484 0.682184 -0.108900 1.835435 0.403399 0.261612 -1.809012 -0.933397 -1.005178 -0.337980 -0.332007 1.049957 1.670807 1.006018 -0.293502 -0.200603 -0.310514 0.842766 -2.124687 1.432524 -0.156788 -0.562347 -1.043393 1.046501 -1.076241 -0.985524 0.994469 0.226558 0.898321 0.791867 0.803880 -0.548725 0.752155 -0.734225 1.237975 0.878821 -2.427072 1.311505 -0.302629 -0.111903 1.097330 0.185819 -0.921715 0.458848 -0.257841 -0.803184 0.420595 -0.310143 -0.173191 -0.178070 2.529244 0.247771 2.242878 -0.680114 -1.733784 -0.279860 0.161480 -1.274683 2.698084 -0.958032 0.956156 0.827085 0.852726 -1.873523 0.130112 -0.026587 -0.034790 1.178307 0.477023 -0.032072 0.715842 -0.025490 0.651503 0.996584 0.837450 -0.513714 0.268915 0.280582 0.249352 0.131951 0.091288 -1.827474 1.104026 2.179350 1.952634 1.102268 0.449795 1.246932 -2.229267 1.248655 -1.855399 -1.623325 0.514477 -0.809951 -0.374752 -0.953346 -0.013460 0.735803 0.503887 1.197907 -0.906038 -0.648174 0.114405 -1.295988 -0.518974 0.037775 1.397481 0.661727 0.074594 0.257194 0.889259 -0.612471 -1.257076 1.379449 -2.160050 0.243976 1.432034 -0.596263 -0.986702 -0.266666 1.163322 1.573200 -0.062519 -0.512335 -0.394753 -0.305250 0.338617 0.761976 1.262903 -0.768711 0.206549 0.245823 -2.400231 0.460041 0.126739 -2.431399 -0.709532 0.017084 -0.421938 0.265793 -0.455868 1.091071 -0.436067 -1.591785 1.253167 -0.435849 0.985600 0.748417 -0.571555 0.330254 0.183060 0.188572 -0.603755 2.616518 0.300845 1.059886 0.942854 0.911920 0.792950 1.188053 0.973344 -1.776826 -2.169803 -1.214384 0.783692 -1.404972 -1.787999 -0.081008 -0.550523 0.993118 -1.156363 1.034320 2.139583 -0.734471 -0.441372 1.460868 -0.087294 1.230379 -0.438265 0.437665 -0.945836 -0.791429 -2.622218 0.892505 0.581042 -0.036540 0.737202 -0.491757 -0.841537 0.514746 1.547300 -0.051338 -0.747958 -0.521460 -0.331532 -0.324525 1.564737 0.607816 -0.675258 0.851374 -0.494333 -1.661237 -0.296250 2.164298 -0.121671 1.302247 0.597560 0.786428 -1.266501 0.131879 0.579940 0.329673 -1.689582 -0.640854 -1.142707 0.398577 0.894549 0.125358 -1.090018 -1.461715 -0.525268 0.763958 -0.834407 -0.701090 1.381744 1.960925 2.499002 0.240078 0.987131 0.152158 -1.267133 0.061910 0.421930 -0.973053 -0.083778 -1.277806 -0.855866 2.473381 0.079348 0.241156 -0.468823 -0.250008 -0.151154 -0.324242 -0.330888 0.967250 -1.115844 -0.065371 -0.711353 -1.210323 0.864988 -0.063613 0.695208 1.924820 -0.843497 1.490212 -0.175655 -1.406594 -2.635561 -0.530832 0.115954 0.035876 -1.181568 1.217988 -0.145433 0.039690 -1.359004 -1.257505 1.378951 1.020190 -0.331271 -0.808920 0.705726 0.682074 0.476002 1.589776 0.659449 -0.640640 -0.471286 0.870016 -0.672056 1.913083 0.893896 -0.990922 -0.060436 0.590800 -0.123976 0.388541 -1.741632 -0.036494 -1.407342 0.190164 -0.522467 -0.464437 -0.973040 0.528249 0.471638 -1.503608 1.321467 1.069941 0.992502 2.168001 -0.092740 1.413339 0.413389 0.342602 1.508883 -0.860545 -0.598725 0.088512 -1.877962 -2.176858 1.219844 1.010518 -0.292299 0.519621 1.317545 1.283427 -2.219071 -0.616310 -0.089504 -0.228623 1.079682 0.286411 -0.798521 -0.522250 -0.421505 0.263378 0.631760 -0.173809 0.624718 0.619948 -0.619948 -0.486943 -1.853138 -1.004930 0.912871 -0.608309 -1.661303 -1.332586 -0.374223 -0.960352 -1.611944 -0.150137 -0.176773 1.872678 0.365824 -0.818834 -0.651262 -0.665048 0.601842 -0.416707 1.508915 0.019893 -0.449556 1.037912 -0.496332 -1.126697 0.760284 0.493543 -0.160779 -0.815197 -1.886029 -0.922303 -2.298728 1.841562 -1.238324 1.036361 -0.317484 -0.052448 -1.282522 0.030115 0.474217 0.245104 -0.521610 1.638000 0.121553 0.884540 -0.653232 0.058216 -0.105496 1.073930 0.208179 0.855470 -1.847454 -0.790275 0.495387 -1.022016 -0.303730 0.927619 0.249448 -0.258837 -0.211154 -2.085693 0.724858 0.335180 0.939242 0.785576 0.131521 1.004464 0.174930 1.394427 2.986036 -0.188444 0.002925 -0.680265 -0.543392 2.003193 -0.513608 0.336244 0.299687 -0.868049 -1.864320 -1.761459 0.322938 0.756501 1.285053 -0.626935 1.709772 -1.019811 0.520794 -0.456651 0.727244 -0.142239 -0.104747 -0.605035 0.234335 -1.130755 -0.947633 1.010786 -1.147164 1.069433 -1.064258 1.228323 -0.267798 0.421784 -0.294029 -1.634104 3.160429 -0.048930 0.764644 -1.295482 0.932913 1.471407 0.424107 -0.928791 -0.157593 -0.801258 -0.606270 1.292290 -0.259103 -0.126336 -1.341606 -2.307359 -0.029460 -0.295048 -0.283937 -2.223007 0.841210 1.492897 -0.610008 0.189550 0.073322 0.737655 1.189944 0.271631 0.303284 0.851492 -1.839993 -0.875307 -0.337014 -1.038381 -0.288535 -0.958465 0.019601 0.724562 0.005006 1.414212 -0.840225 -0.642598 1.323375 -0.320566 -0.898602 -2.198990 0.762819 -0.062147 1.211883 1.060206 1.020341 0.379381 0.383040 0.921326 -0.689700 1.213017 0.278956 0.303190 -0.332442 -0.239575 -0.811297 -0.132601 0.439574 1.672170 -1.160685 0.528465 -0.822154 0.674222 -0.222594 0.368273 -0.995998 1.158171 1.023951 -0.306751 1.717219 -2.475536 1.275197 0.869369 -1.224237 0.323375 2.087829 0.700034 0.057842 0.676452 2.012473 0.308740 -0.394480 -0.990556 1.725561 -1.216245 1.011272 0.805822 0.828718 -0.442332 0.991307 0.883110 -0.569359 0.115557 -1.196889 0.970872 -1.831835 -0.813802 -0.694810 1.365289 1.246712 -0.789683 -0.477894 0.974344 -0.495842 -0.442653 0.086973 0.094052 -0.504571 0.291655 0.335832 2.281664 -1.982346 1.740456 0.719077 -0.609641 -1.170771 0.180826 0.179515 -0.543180 -0.468127 0.395738 -0.295240 -0.802891 -1.326418 0.143175 0.029476 0.037000 -0.569878 -1.043385 1.147556 -0.366953 1.021311 0.138574 0.832142 0.136632 -1.832112 -0.243657 -0.401227 0.220479 0.145355 0.809174 -1.065128 0.526085 -0.221701 0.446059 -1.082323 0.341064 0.935983 0.189710 0.250109 -0.393134 1.003233 2.106094 -0.864030 -0.638126 -1.275698 0.896654 -0.657573 -1.286269 0.237089 -2.380905 0.752297 -0.101312 -0.687256 0.099497 -0.619494 0.959977 1.382251 -1.429322 0.212965 1.328676 -0.114230 -0.109454 1.090549 1.660031 -0.506051 -0.387686 0.342140 -0.441319 -0.455544 -0.475578 -0.395277 -0.305569 -0.863082 0.663284 -0.120118 -0.700760 0.083421 0.046998 -0.574672 -0.532440 0.818825 0.053874 0.721199 1.296099 -0.118150 1.927194 1.568660 0.099308 -0.584184 0.058570 0.032276 1.207386 0.291489 -2.223613 0.820222 0.028777 -0.533955 0.091198 -0.636139 -1.030336 -0.904990 -1.410957 2.070992 0.949768 0.359760 -0.841382 1.355377 1.177192 1.541322 0.539839 0.486042 -0.186883 -1.400417 -0.590203 0.617845 -0.905930 -0.049797 0.018200 0.224731 2.242194 -0.057749 -1.213810 -1.095622 0.938351 1.372947 -1.557482 0.091388 0.152913 -1.688567 -0.104537 -0.942509 0.508616 -0.308400 -0.153909 -1.260772 -0.415009 -1.022534 -1.587024 0.466651 -0.335839 0.466925 -0.183181 -0.029608 0.702220 0.490406 -0.267125 -0.310637 -1.652623 -0.095283 -1.534784 1.277504 -0.965887 0.594463 1.223952 -1.490070 -0.517264 0.009178 -0.099107 -0.836315 -0.197880 0.586606 1.827137 -1.661867 0.024205 -2.080493 -1.175822 2.030088 -0.450031 -0.876785 -1.354846 0.961625 0.848151 1.817128 -1.107776 0.421513 0.326353 -0.339001 -1.058983 -1.112254 0.271951 0.822778 0.712707 -1.213902 1.004928 1.498907 -0.696773 -0.017619 1.116900 0.299165 1.557918 0.620797 -1.287681 -1.771318 -0.330397 -1.069112 0.848088 -0.049062 0.836106 0.891189 -0.377030 -0.878482 -0.940501 -1.666880 -0.285752 -0.436998 1.021064 0.320314 0.484195 -0.740782 3.278828 1.970705 -1.592312 -0.076551 0.481327 -0.232013 0.942180 0.646738 0.056495 1.401547 -0.005230 -1.173002 0.796085 -0.137076 -1.402512 0.013483 0.009754 0.151857 0.116404 0.831932 -1.166557 -0.994831 0.406258 0.914872 -0.592008 -0.475673 -0.971715 -0.745644 0.595465 0.407013 -0.318273 0.412222 1.749763 0.297595 -0.376154 -0.379325 0.908991 -0.003120 -0.060392 -0.706303 -0.553152 -0.448438 -0.400753 0.261440 -0.482383 0.942667 -1.099667 1.123572 -1.053783 0.422652 0.915106 1.376400 -0.716973 0.749333 1.944654 -0.916257 -1.470763 -0.068314 -0.161545 -0.191430 1.056518 -0.283162 -0.069906 -2.623478 -0.855712 -0.305525 1.481090 -0.733999 0.179953 0.995202 0.370910 -0.312610 -0.410923 0.147362 0.670291 -0.148997 -1.985620 0.955505 0.753916 0.045019 0.655216 -0.762653 -0.511323 -0.524154 -0.524553 0.783126 2.474458 0.933469 0.381544 1.091381 -0.964794 0.395895 -0.640818 1.295042 0.367447 -0.229404 0.046499 -0.548504 -3.047505 0.554946 0.833363 0.094859 -0.504756 -1.532053 0.252764 1.416533 -0.208783 1.111419 1.504710 0.196080 2.271258 -1.398660 -0.452561 0.021782 0.525952 -0.201408 0.410303 0.512743 -1.332837 0.224230 0.795165 -0.047127 0.578810 -0.817816 1.445900 0.554703 1.191323 -0.910352 1.825477 -0.413720 1.010540 -0.523395 2.199012 -0.088044 -0.622456 0.821102 0.025115 0.049179 -0.013159 -0.002997 -1.852000 0.372584 0.973581 -1.090605 -0.874098 -0.064652 -1.251388 0.894662 0.642810 1.332581 1.841464 -0.238643 0.038788 0.580788 1.031084 0.119991 0.644044 -1.320213 -0.324307 0.365422 0.964192 0.146416 -1.156715 -0.834823 1.298733 -0.903614 1.229229 -1.008777 -0.026323 0.033140 0.684918 -0.022872 -0.727910 0.073483 0.110100 0.083876 -0.557424 -1.781241 -0.170373 -0.220747 -0.165701 -0.800802 -1.288786 0.322053 0.251625 0.895947 1.407886 1.242988 1.222466 -2.165533 -1.159603 1.375969 0.265563 -1.110440 -0.945567 0.044564 -0.471263 1.525896 -0.064926 -0.670668 -0.561306 0.223083 -1.109564 -0.417550 0.199362 0.209989 1.533181 2.696659 2.457025 -0.377569 -1.542593 -1.385144 0.482235 0.720215 0.479899 -0.101565 -3.025334 0.330335 -0.478666 0.109705 1.178137 -0.335155 -0.599554 0.904791 -0.477213 0.259559 -0.048322 -1.338860 0.191679 2.041560 -0.107847 -1.281270 -1.098442 -2.846315 0.724326 0.290169 0.932356 -0.425156 0.534390 -0.562295 0.814407 1.796950 0.081746 0.689185 -0.035719 -1.196533 -1.014419 0.890424 0.006386 -0.036220 0.020516 0.872194 0.191257 0.182299 0.774339 -0.721603 -1.287958 0.165965 1.384641 -1.425570 -1.147253 -0.288274 -0.196626 -0.201498 0.403336 -0.921080 0.603953 -0.783270 -0.550571 0.081811 -0.036329 -0.652894 -2.544726 -0.178530 1.738038 -0.533669 2.266535 0.624124 1.464436 -0.024458 0.575716 1.044592 -0.019684 0.602898 0.508477 1.135847 -1.544849 -0.620354 0.713502 1.807396 0.218919 -1.683861 0.033791 -1.253175 0.219718 0.005574 0.585723 0.604626 1.973543 1.909530 -0.207436 0.493625 -0.323103 0.923837 -0.692125 0.675114 -0.685869 -1.765495 0.566966 -0.227244 0.501904 -2.223602 0.167273 0.852396 0.076461 0.157085 0.119502 0.201088 -1.742886 -1.521770 -0.083842 -2.855936 0.199796 0.734877 0.157336 0.977813 -0.398467 -0.772027 -2.098694 -0.032319 0.428519 -0.461947 0.355358 1.107283 0.501090 -0.128433 -0.835038 -0.816376 -0.914001 -1.578422 -0.093542 -0.782601 -1.855270 0.472906 -0.275204 1.803739 -2.471022 -0.044727 1.838100 -0.491567 0.295139 -0.569811 -1.056780 0.388765 -0.526374 0.257295 -0.595570 -0.459871 -0.292398 0.333674 -0.393789 -1.035810 1.016668 1.480521 -1.312463 0.245284 -0.522082 0.238519 -0.608338 -1.276732 -0.438436 0.825169 0.092758 0.164425 0.775242 0.085107 0.744482 1.845252 -1.742234 -1.470963 -2.074562 1.433504 1.675470 1.388688 0.115894 0.344175 0.464328 -0.968014 0.204989 0.522592 -1.612321 0.047139 -0.577232 0.330931 0.241040 0.827144 -1.182322 -0.352932 -0.983024 0.455745 0.892581 -1.220940 1.689614 4.051542 0.352156 -0.143081 -0.878168 -0.093278 -0.337965 1.370666 0.477527 -1.429600 0.338412 -0.208184 -0.800977 -0.858630 0.418315 0.377638 0.367613 0.470998 -0.098650 -0.034033 -1.369294 0.715749 -0.864977 0.554901 -1.470972 0.825555 -0.548801 -1.070232 -0.921594 -0.885104 1.169775 0.280404 0.326919 0.420720 1.728215 -0.392173 0.937914 -1.306600 -0.494431 0.083791 0.645822 -0.713236 -1.877973 -0.202489 -1.469002 2.610142 0.779523 -0.508367 1.041780 -1.024739 -0.062129 0.959053 -0.037470 0.660702 -1.477948 -0.354647 -0.960003 -0.268949 -1.607420 -0.170724 -0.811735 0.717511 -0.651226 -0.444854 0.280122 0.194717 0.146692 1.364499 0.475985 0.509589 -0.888082 -0.070267 1.122981 0.145667 0.119847 0.091133 -0.488155 0.316874 -0.478547 1.533796 0.547363 0.536055 0.569821 0.530157 -0.153349 0.441670 0.921579 -0.547404 1.505000 -0.006396 0.794736 -0.628179 0.787884 -1.302502 2.108063 1.721702 1.598239 0.194604 -0.978338 -0.728170 2.479770 -0.748146 0.065032 -0.645841 -0.942384 -0.642628 0.658906 1.198313 1.019192 2.286855 0.262177 1.735959 0.159678 0.114702 1.265927 0.906106 -1.092336 0.455084 0.439704 -0.770472 -0.022877 -1.351363 -0.403349 2.222689 -0.676234 1.655763 0.758325 2.208898 -2.595572 0.382077 -1.113997 0.253348 0.750167 -0.618934 -0.259267 -0.088661 0.719625 -0.639005 1.288319 -0.206571 -0.738562 -0.566360 -0.467968 0.270572 0.136387 0.157584 -1.051127 0.492501 -0.176330 1.175213 -1.676953 0.585189 1.128498 -0.300598 -0.165081 -0.840538 -1.961206 0.246347 0.672654 -1.978084 -1.656542 -0.064293 0.065022 -0.622672 0.717524 -0.643268 0.197959 -0.490034 0.924924 0.036328 0.615081 -1.412836 0.797514 -0.056490 -1.349388 -0.553983 0.725474 -0.670965 0.115526 2.685727 -0.219139 -1.370623 0.104315 0.014281 -0.758738 -0.872027 -0.749100 1.379628 1.177271 -2.076128 0.299394 -0.534401 -0.436994 -0.545639 -1.930364 0.399295 0.248351 -0.314172 0.482205 0.344830 -0.237776 1.058054 0.798148 0.692171 -0.136695 0.563838 1.143512 -2.370289 0.598430 -2.295648 0.676463 0.437950 1.696474 0.328577 1.048135 -0.900450 1.240566 -1.164474 -1.078550 1.494484 1.198573 -0.095657 1.360148 -1.356708 0.985230 -0.730897 0.631278 1.062322 -1.776620 0.049137 -1.951654 -0.949257 0.389435 -0.515909 1.671329 0.116736 -1.574575 1.435714 0.386738 0.359640 0.758866 0.605541 0.693306 0.578543 -1.399670 0.778671 -0.869880 -0.720748 -0.038410 -0.071326 -0.570013 0.202181 0.228585 -0.383885 0.283148 0.891832 2.083932 1.128045 -0.893311 1.968652 0.926785 -0.500957 0.775992 -0.782686 0.106533 0.660505 -2.019397 -0.279185 0.918086 -0.422163 0.390846 -1.036174 -0.021831 -0.044321 0.571720 -0.137279 1.151575 -0.919782 -1.286636 0.177592 -1.914928 -1.009620 -1.688967 1.217411 -0.878447 0.684589 2.042301 -0.799878 0.117696 -0.697218 -0.007652 -0.174656 -0.996939 -0.096598 0.540545 0.559998 -0.723277 0.037094 0.670648 -2.110062 0.797127 -0.156259 -0.734856 0.689884 1.215711 0.554666 -0.193469 0.507504 0.449859 -1.065354 -0.969260 -2.249228 -0.007706 -0.120592 -2.690412 1.748729 -1.196991 -0.754211 -0.045883 -0.138532 0.605579 -1.000751 1.860929 -1.708058 -0.777762 -0.050747 0.465967 1.008506 0.750322 -0.531475 0.331123 1.529706 0.636220 -2.868141 0.092634 -0.070265 -0.717808 -0.684680 0.696315 -0.594799 0.878158 -1.873469 1.108453 2.694289 -1.659887 0.056667 -0.763094 -0.556757 0.732745 1.673455 0.228972 0.904539 -2.380332 0.141636 -0.168345 -0.983787 -1.613796 1.798728 0.344731 -0.783833 1.365630 -1.429379 -1.182478 0.711873 0.450040 -0.249942 1.686572 0.314138 -0.171733 1.754535 0.124599 0.737752 0.431710 0.401572 -0.910440 -2.812094 0.239006 -0.654706 0.052903 -1.917919 1.774572 0.333245 -0.881270 0.606854 0.396139 -0.322128 0.288936 -0.481148 0.329567 0.178877 0.220054 1.528200 -0.065233 0.718075 -0.721702 0.695196 0.513140 -0.967218 -0.144901 -1.503030 0.098254 -1.287889 0.196165 0.827122 -0.589992 0.989752 0.190013 -0.405286 0.281076 0.084308 -1.227581 -1.798479 1.698872 1.414584 1.275910 -0.110432 0.086357 -0.503251 0.098133 0.533108 -0.388769 0.961067 -1.048112 1.290344 -0.869378 -0.719535 -0.035143 -0.835261 -0.013592 0.574326 -0.750841 0.833398 0.006640 1.452025 1.176143 0.336089 -0.941956 0.465979 0.325701 0.221011 0.744337 0.008055 0.144575 0.183876 0.844861 0.698035 -1.437742 -1.172762 -0.395658 1.583895 -0.663018 -1.145583 -0.873460 0.647069 -0.751853 -1.351907 0.086634 1.362193 -1.388746 1.583784 -0.006213 0.133862 0.718832 -1.435424 0.143641 -0.758462 0.678743 -0.730374 -0.645751 0.225574 0.834120 0.088774 -1.228047 1.567139 -0.677783 -1.188696 0.227314 0.090826 0.133087 0.702746 -0.637089 0.240776 -1.199690 1.649962 0.597446 -0.172976 -0.071410 1.273470 -0.163974 1.820607 2.087708 -0.112487 -0.022447 1.939182 -1.635004 -0.112335 -1.008705 -0.814329 0.582394 0.449196 -0.032411 0.058001 1.451452 0.038918 0.648175 1.140766 1.630761 0.112442 0.811672 0.076966 0.081960 -1.320866 1.459760 -0.165006 -0.049412 -0.621599 -0.406746 -0.924546 0.469772 -2.290233 0.076395 -1.347357 -1.649567 -1.373009 -0.575988 0.882994 1.392458 -0.017019 0.884244 1.444868 2.618255 -0.487543 1.498819 -0.820649 -1.992995 -1.144095 -0.528744 -0.504881 0.171565 1.582090 -0.343036 1.216415 0.435911 -0.267939 0.292061 -0.607791 -1.171072 0.894177 0.722141 0.123153 -0.511966 -1.649120 -1.349403 -0.675637 0.580611 -2.882019 0.912253 0.168580 1.038911 -0.377434 -0.984540 -0.143233 0.351892 -1.115723 -0.986049 0.348930 -0.943520 -0.075595 0.549383 1.145432 0.341048 0.962365 1.533124 -1.997611 0.914687 -1.410214 -0.589193 -0.678027 1.307909 0.580505 -0.082666 -0.566991 -0.392449 -0.454288 0.130446 -0.066086 -0.078109 -0.673922 -1.098096 0.417374 -1.714992 -0.183436 1.012962 -1.109118 -0.139363 -0.169384 -0.708831 0.013768 2.461095 -0.516409 -2.332746 1.955687 0.294596 0.277005 0.697291 -0.056080 0.101235 -0.675001 0.789714 1.866290 -0.515610 0.387919 -0.994285 -0.769720 0.568075 -1.691338 -0.761933 -0.110803 1.310983 0.600412 1.879370 1.076057 -0.949354 -0.807002 0.466182 -0.473537 0.763356 -0.087394 0.143110 0.263408 -0.345732 -0.906573 2.364905 1.211281 1.158630 -0.928081 0.704747 -0.695740 0.607553 -0.327457 0.962703 -1.797504 0.636379 0.581769 1.219295 0.370444 -0.972770 -1.387754 0.754865 -0.805524 0.633262 1.078010 1.749156 -0.258532 -0.727704 0.734996 -0.848491 1.116591 -1.185327 -1.581356 0.057197 0.706385 -1.899811 -1.643404 1.172262 -0.280014 1.129348 0.959991 0.327345 -1.567143 -0.043985 0.529452 0.252957 0.092837 2.787487 -0.778092 0.263968 1.512914 -0.072130 0.532478 -1.739677 0.582269 1.749566 -0.496697 -0.852223 1.862604 0.333192 -0.251851 -0.325573 -0.258275 -1.547315 -0.070324 -0.088594 -1.366852 -1.132480 -1.549765 0.079912 0.645718 -0.767089 0.789815 -0.635723 -1.025645 0.412190 -0.484504 -0.425858 0.824311 1.391899 1.346905 -0.118219 -3.267258 -0.170544 0.172233 -0.019482 -0.144499 1.894584 0.607675 1.430514 -2.027053 -0.410286 -0.687358 -0.813137 -0.799345 -0.762911 0.829150 -1.778879 -0.052643 -0.737260 0.603974 -0.224649 1.067268 0.314732 0.341999 -0.315283 -0.929900 -0.917088 -1.618322 -0.857948 -0.168119 -1.472721 -0.460193 -0.368814 -0.228126 1.108719 0.193280 -0.427578 2.894508 1.087690 -0.914612 -0.209779 -0.963542 0.441207 -1.242994 0.211006 -1.145530 -0.916370 0.664020 -0.141170 0.557834 -2.231937 0.127633 0.033355 1.257673 -0.266281 0.430369 1.116382 -1.638147 -0.051813 0.401657 0.205246 2.112075 -0.233279 -1.232602 0.285166 -1.172115 -2.353784 -1.668536 1.058285 0.258124 1.658034 0.974041 0.443231 -0.851690 -0.170295 0.934030 -0.833822 -1.463251 2.738436 -0.258532 0.056182 -0.645433 -0.527485 0.154120 -0.127981 0.550698 1.102476 -0.969508 2.063400 -0.291085 0.488328 0.280925 -0.521982 -1.058660 -0.372222 0.990056 0.847350 -0.577180 -0.977971 0.537944 -0.889577 -0.812801 0.470118 0.342445 0.405353 0.427357 1.823163 0.283737 0.256534 0.183334 -0.588349 -0.572058 1.373002 -0.183151 0.613937 -0.097195 -0.574569 1.535052 -0.810836 -1.290311 0.777550 -1.384764 -0.350968 -1.750809 0.571791 1.811019 -0.451594 -0.136861 0.549978 -0.130908 -0.760948 -0.186634 -0.887839 -0.131938 -0.127065 -0.660482 -0.500874 -1.097484 1.094437 2.171872 -0.779683 0.164277 -0.533775 -0.371029 -1.765326 -0.403726 -1.115170 1.000371 -1.070044 1.297579 -0.168643 -0.035499 -0.034512 0.500724 1.025364 -0.526465 -0.406660 1.017831 0.826790 0.095538 0.032873 0.701812 -0.046715 -0.707950 -1.959870 0.249490 0.748890 1.977861 -0.873312 1.449511 0.687305 1.348553 0.410599 0.872494 0.707139 0.599953 -2.736890 0.382211 0.131736 -1.848459 -0.250018 1.058721 -1.524617 1.501686 0.581507 0.716360 1.228299 -0.283751 -0.074671 -0.874659 0.541897 0.418851 -1.701661 1.339806 1.141734 0.507027 1.193515 1.019601 -0.299780 -0.954353 1.103349 -0.463289 0.889655 0.104865 0.943872 -0.365544 -0.220497 -2.122462 0.104132 0.585584 1.841880 0.345258 -0.101236 0.840487 0.137412 -0.572927 0.011850 1.184933 1.068777 -0.269525 -0.663093 -0.444279 0.943583 1.379904 -0.841540 0.720474 0.046086 -0.404358 -0.301270 -0.354801 -0.285457 0.392857 0.416284 0.537329 -0.101742 -1.925213 -0.249302 1.642540 0.685586 -1.316851 0.336052 -2.195747 -0.395469 -4.503514 -3.239233 -0.985368 -1.620664 -1.128518 -0.845773 -0.426941 -0.764704 1.979873 0.324168 0.250180 1.485708 -0.692795 -0.487165 -1.276892 1.460319 0.434630 -2.328643 1.492177 -0.767414 0.862458 -0.031022 -0.737832 0.119625 -1.379169 -1.073305 1.634681 0.585035 0.701669 -0.689257 0.920442 0.148761 2.011145 -1.050238 1.101712 -0.436131 1.738077 -1.177322 0.998204 0.801408 0.052918 0.117392 0.753115 -1.302961 -1.719841 -2.249586 1.376215 1.007464 0.965967 0.390744 -2.722191 0.567229 -0.410639 -0.524490 -0.664127 0.003516 0.948646 -1.050972 -0.729998 -0.644398 -0.026082 -0.099803 1.146814 -0.302547 -1.429177 -1.130744 -0.342614 0.221614 -0.657605 0.083206 0.152729 0.257556 1.636855 0.677544 0.583273 -0.238247 -0.239067 -1.595349 -0.196451 -1.000264 1.087334 1.553675 0.808727 0.909616 -2.476562 1.264803 0.757509 0.447857 0.296194 1.542366 -1.745082 0.643812 -0.938279 -1.507981 -2.185970 0.632393 -0.775731 -1.909905 -0.215947 0.565241 -0.131864 1.855914 -1.138083 -0.165889 0.391787 0.957443 0.095092 1.246641 -0.895829 0.018350 -0.743631 -0.668031 -0.055149 -0.880049 -0.700309 0.740117 -0.677076 -2.435497 0.508298 1.629092 0.054910 0.039467 0.067303 0.195714 0.113011 1.960364 -0.443884 -0.397495 -0.349793 -0.927959 -0.172451 -1.022189 -0.228691 0.433800 -0.266299 1.269529 -0.268927 0.531281 0.397211 0.921710 -1.240161 0.198057 0.088239 -1.255655 1.561546 0.563977 -0.040263 0.672434 -2.090228 0.341235 -0.670260 0.033694 1.298322 1.045042 -1.476287 0.196165 0.773885 1.296812 -1.080631 0.376625 -0.995386 0.553108 0.428388 0.339960 -0.371682 0.360458 1.043004 1.578067 -0.018549 0.049372 -1.305859 0.220529 1.373476 1.067758 0.965114 -0.391273 -0.104836 1.284645 2.953147 -0.887903 -1.386012 -0.501968 0.278502 0.855815 1.246115 1.141688 -0.143750 0.101672 0.190913 0.047426 -0.133276 -0.219300 -1.469273 -0.482783 0.959864 1.540011 0.051632 -1.165502 1.128778 1.611735 0.031295 -0.670880 1.380776 -0.756927 0.125685 2.028471 1.062701 -0.956677 -0.088384 -0.670982 0.761315 1.783466 -1.128851 -0.786414 -0.631555 -1.060476 1.733234 -0.085546 0.752059 -1.270625 0.448320 1.151488 0.198555 0.829366 0.649941 1.336417 -0.735447 0.084733 0.706331 -0.157897 1.204248 -0.343816 0.537601 -0.141602 0.604637 -0.767915 -1.380332 0.141782 1.399459 -0.757484 0.163153 -0.469112 -0.228611 1.788383 -0.572475 1.609176 -0.688189 0.928520 1.520837 -0.105666 0.682918 0.473572 -0.850713 1.335380 -0.337253 -1.469806 1.371567 -0.211537 0.033797 -0.026564 -0.617442 -0.381035 0.230798 -0.432481 -1.008191 -0.226057 -0.777699 -1.268556 0.225625 0.166805 -0.444821 -1.002436 -0.784234 -0.634861 0.042573 -0.698303 -0.591742 -0.498279 0.310585 1.636360 0.045744 0.784675 -2.669280 -1.556391 1.144625 -0.622366 0.137308 -1.291720 -0.848058 0.092555 -0.042053 -1.391427 -1.351274 0.769773 0.683794 0.617557 -0.099334 -0.672639 -1.205294 0.177505 -0.717440 -2.090254 -1.200022 -1.699294 -0.706577 -0.678369 -1.270304 0.959350 0.089196 -1.117920 -1.621796 -1.516237 -0.068166 1.012104 -0.577412 -0.399576 0.380556 -0.235813 -0.229335 -0.434491 0.137774 1.329580 -0.923337 -1.339388 -1.875305 -0.361180 -1.820847 -1.076667 -2.371725 1.340258 -0.190294 1.323652 -0.858559 0.644101 -0.174105 -0.295116 0.230302 -0.018357 -1.408734 -1.190237 -1.102081 -0.316130 0.896750 0.693389 0.002615 0.758076 0.692629 -1.415853 -0.700510 -0.207334 1.669776 -2.028399 -0.294322 -0.910427 -0.068869 0.541201 0.954687 1.488551 0.626083 -0.003341 0.739966 -0.207294 1.705392 -0.113671 -0.090128 -0.065488 -0.043228 1.350043 -0.309664 0.431648 -0.319600 1.084981 0.283886 0.876270 0.746974 -0.681092 0.820994 -0.037098 -1.364803 0.125276 -0.026912 0.745032 -0.711836 1.506983 1.370237 -0.094377 -1.321548 0.145313 0.682761 1.160729 -0.393501 0.465922 -0.165653 1.329100 1.115731 -0.432698 -1.025079 1.108755 0.273969 0.950358 -1.913766 1.847221 0.888427 -1.131324 -0.889681 -0.215974 1.191359 -2.376826 -0.633893 0.129758 0.803767 -0.522279 1.594652 -0.575210 0.988003 0.807116 -0.622100 0.783030 -0.817940 0.072028 -0.653503 0.074524 -0.528104 -1.143119 -0.901415 1.224549 -0.991530 1.272933 1.048639 -0.944575 -0.679944 0.639881 -0.835033 0.531382 -0.372996 0.509037 -0.856427 0.024151 0.724775 -1.477060 0.090787 -1.360573 0.218673 0.146955 -0.559705 -0.350607 1.001469 -0.424325 -0.297308 0.307968 0.923618 -1.902665 0.395034 0.246378 0.235521 0.849538 2.046566 -0.133856 0.655973 0.528275 0.457311 -1.090005 -1.046177 1.057596 2.168225 0.594081 0.044704 0.164257 0.908171 0.699606 0.448185 1.625535 -1.283446 -1.557086 -1.307150 0.802453 -2.784477 -1.064535 0.410546 -0.175067 0.061782 0.108784 1.559388 0.673732 -0.757206 -1.931431 0.219046 0.700563 -0.130727 1.901608 -0.980155 -1.862971 -1.555565 -0.152957 0.340469 -0.618903 0.244450 -0.259573 -0.676730 0.858560 -0.759805 1.290023 0.927406 -0.470148 -0.260524 1.059320 -0.413485 -1.743672 0.370653 -0.434035 -0.344094 -0.981748 0.562162 -0.144260 1.230283 -0.267282 -0.845012 -0.752157 1.294576 -0.992408 0.467188 -0.353787 -0.842271 0.670551 -0.189100 1.220273 0.270490 0.280898 1.688579 -0.632590 -0.439018 0.147686 0.678706 1.231833 -1.696082 -0.606193 -0.535971 -0.474077 -1.115964 -0.430826 -0.356067 -0.227321 0.563851 1.895647 0.977667 0.931615 -0.512202 -0.413868 -0.493405 -0.612313 -1.325713 0.797732 -0.640878 0.334514 0.354440 0.391244 1.052808 0.143777 -1.184840 -0.380179 1.549712 -0.040962 -0.686522 0.771588 0.724779 -0.621537 0.112666 0.687905 1.902734 -1.746530 -0.675490 0.710700 0.546255 -0.854961 1.213247 -0.286970 -1.413610 -0.522267 0.162929 -0.600827 0.074262 -1.256875 -0.243576 -0.222255 -2.154561 0.181274 -1.382330 0.228106 -0.510560 1.607625 0.815044 -0.576646 2.958830 0.408406 0.411387 0.229756 0.746118 0.655095 -0.929706 -1.411623 0.763491 -0.131920 -0.014609 0.622430 -0.071919 1.437136 -2.132365 0.284042 1.395398 -1.587936 0.771919 -0.832228 0.161368 0.149355 0.056582 -0.505495 0.133728 -1.871947 0.484595 0.243850 0.255433 -1.085448 -0.209196 0.560452 1.789796 -0.524440 1.633844 -1.324858 -1.650515 0.505268 0.193838 -1.200694 0.250188 -1.061308 0.010400 -0.058875 -0.035084 0.617113 -0.238233 0.580303 -0.833134 -0.706494 2.035553 0.920422 -1.126571 -0.256875 -1.562633 -0.603668 -1.421078 0.674657 0.510461 -1.488609 0.339589 -0.351816 -0.924224 -0.904134 -0.974718 -0.857062 -0.151433 1.241547 -0.190123 0.609575 1.237007 -0.256730 0.432859 -0.496676 0.856110 0.603570 0.479616 -0.838421 0.638689 0.526797 -0.898378 -0.162697 -0.917094 -0.093873 -0.795782 -1.353128 0.889906 -0.000315 1.471629 -0.064973 -1.298774 -0.367412 0.849414 -0.041810 1.198695 -1.045497 -0.665318 -1.215899 -0.407188 0.189099 -0.705038 0.110058 0.837793 -0.503026 0.384373 -0.441889 -0.399026 -2.473879 -0.204279 -0.299075 -0.288991 1.139232 -0.301916 0.629910 0.544011 -0.224957 -0.239737 1.577087 -0.725088 -0.564487 -0.543318 -0.433298 0.938754 0.667168 1.977726 -0.940011 -0.638854 2.162668 -1.011734 -2.206237 -0.092613 0.488121 1.185644 -0.354049 -0.087309 -0.637116 -0.549496 0.825762 1.152956 -1.088950 -0.809615 1.382459 0.557672 -0.854000 0.535275 0.403769 -0.936184 -0.137998 -1.514868 -1.284703 0.118843 0.051998 -1.211532 -1.008526 2.568669 -0.457057 0.382655 -0.416131 0.329331 -0.419741 -1.838226 1.082922 -0.605056 0.899342 -1.858749 -0.828743 -0.698900 0.606718 -0.887756 0.522210 0.434587 -0.144006 0.619802 -0.185521 -0.198019 -0.963492 0.413634 -0.377549 -1.704782 1.253649 0.993008 -1.056635 1.159832 0.899326 0.879325 -2.018233 0.259189 -0.574324 0.056019 -0.017394 -0.702469 -0.501597 0.270608 1.599989 -0.660310 0.765385 0.632014 0.580382 1.171079 -0.438368 -0.324253 -0.373778 -1.721030 -0.138654 -0.324356 -0.901906 0.636686 0.565820 -1.333653 -0.416962 1.554522 -0.058307 -1.422087 0.083908 1.406827 0.544111 -0.859152 -2.034091 0.258085 0.069220 0.013290 -0.056805 -0.035966 0.143736 0.866293 0.053352 -1.335395 -0.570599 0.091416 -1.313453 0.186037 -0.583545 -0.379479 0.380039 0.989584 0.232261 0.843055 0.040950 1.427429 1.784614 -1.175380 -0.282752 -0.391012 -1.034902 -2.981498 -0.024850 0.560633 -0.136152 -1.299697 -0.271988 1.179127 0.954546 0.763645 -0.065324 -0.725114 -1.917382 0.968139 1.934832 0.215472 0.293125 0.384611 1.188086 0.311731 0.128098 -0.016475 -0.132743 0.578581 -1.501257 -0.557787 0.124300 -1.925082 1.097759 -1.223241 0.469356 -0.273290 -1.528290 0.162964 0.603351 1.877189 1.600397 1.425982 -0.559148 1.596009 0.578259 -1.633910 -0.235964 -0.407637 -0.946491 -0.782647 0.020652 -1.194603 -0.314286 -0.258941 1.833322 0.179232 0.268190 -0.352471 -0.948888 -0.175959 0.998926 -0.608241 0.195974 0.193398 -0.992796 0.556840 -0.332646 -0.283749 -0.329311 -0.983682 -0.736558 0.641136 -0.810419 1.390884 0.444025 -0.804126 -1.281581 0.819665 0.606257 -0.254755 -0.926076 1.301782 -0.205901 -1.417311 0.749945 -0.187130 -0.806258 -1.405946 0.130350 -1.231443 -0.413407 -0.374746 0.358699 0.316243 0.320390 -0.324826 0.392770 0.255809 -0.487904 0.835871 -0.720835 0.110143 0.045604 -1.309093 -0.417499 0.158276 -1.209274 -0.350683 -1.058692 -0.139870 0.500887 0.399494 0.417178 -1.660813 0.662295 -0.883735 1.182841 -1.148724 -0.977469 -0.128508 -0.158392 -0.094182 0.498153 -0.284445 -0.141197 1.180287 1.681780 -1.926312 1.054033 -0.584373 0.883093 0.607058 0.454943 0.505531 -0.249305 0.556448 0.433144 0.911615 1.431638 -0.129376 1.366540 -0.849277 -0.649090 -0.666536 -0.059363 0.579340 -0.217221 -0.686557 -0.430818 -0.321494 -0.919961 0.444679 0.948835 