-0.000000 -0.000000 -0.000000 0.000000 0.000000 0.000000 0.000000 0.000000 0.000000 0.000000 0.000000 0.000000 -0.000000 -0.000000 0.000000 -0.000000 -0.000000 0.000000 0.000000 0.000000 -0.000000 -0.000000 0.000000 -0.000000 -0.000000 0.000000 -0.000000 -0.000000 -0.000000 -0.000000 -0.000000 0.000000 -0.000000 -0.000000 -0.000000 0.000000 -0.000000 0.000000 0.000000 0.000000 0.000000 -0.000000 0.000000 0.000000 -0.000000 -0.000000 -0.000000 0.000000 -0.000000 -0.000000 0.000000 0.000000 -0.000000 0.000000 -0.000000 -0.000000 -0.000000 -0.000000 -0.000000 0.000000 0.000000 0.000000 -0.000000 0.000000 -0.000000 -0.000000 -0.000000 0.000000 -0.000000 -0.000000 0.000000 0.000000 0.000000 -0.000000 0.000000 0.000000 -0.000000 0.000000 -0.000000 0.000000 0.000000 0.000000 0.000000 0.000000 -0.000000 -0.000000 0.000000 -0.000000 -0.000000 -0.000000 0.000000 0.000000 0.000000 0.000000 -0.000000 0.000000 -0.000000 -0.000000 0.000000 0.000000 0.000000 -0.000000 -0.000000 0.000000 -0.000000 -0.000000 -0.000000 -0.000000 -0.000000 -0.000000 0.000000 -0.000000 -0.000000 -0.000000 -0.000000 -0.000000 -0.000000 -0.000000 0.000000 -0.000000 -0.000000 -0.000000 -0.000000 0.000000 -0.000000 -0.000000 0.000000 0.000000 -0.000000 -0.000000 -0.000000 -0.000000 -0.000000 -0.000002 -0.000008 -0.000025 -0.000065 -0.000144 -0.000286 -0.000520 -0.000882 -0.001414 -0.002163 -0.003180 -0.004520 -0.006239 -0.008396 -0.011048 -0.014252 -0.018061 -0.022527 -0.027696 -0.033611 -0.040307 -0.047817 -0.056164 -0.065367 -0.075437 -0.086381 -0.098197 -0.110878 -0.124411 -0.138777 -0.153953 -0.169908 -0.186612 -0.204025 -0.222108 -0.240818 -0.260108 -0.279931 -0.300236 -0.320974 -0.342093 -0.363541 -0.385267 -0.407219 -0.429348 -0.451602 -0.473935 -0.496299 -0.518649 -0.540942 -0.563137 -0.585193 -0.607074 -0.628745 -0.650172 -0.671327 -0.692180 -0.712706 -0.732882 -0.752685 -0.772095 -0.791094 -0.809660 -0.827771 -0.845398 -0.862511 -0.879075 -0.895048 -0.910385 -0.925039 -0.938956 -0.952082 -0.964363 -0.975741 -0.986163 -0.995575 -1.003928 -1.011176 -1.017279 -1.022205 -1.025933 -1.028450 -1.029760 -1.029876 -1.028827 -1.026652 -1.023405 -1.019150 -1.013961 -1.007920 -1.001119 -0.993651 -0.985615 -0.977114 -0.968249 -0.959123 -0.949833 -0.940478 -0.931150 -0.921936 -0.912919 -0.904173 -0.895770 -0.887770 -0.880229 -0.873195 -0.866709 -0.860805 -0.855508 -0.850841 -0.846816 -0.843441 -0.840720 -0.838649 -0.837221 -0.836424 -0.836244 -0.836660 -0.837651 -0.839193 -0.841258 -0.843820 -0.846847 -0.850310 -0.854177 -0.858415 -0.862993 -0.867879 -0.873042 -0.878450 -0.884073 -0.889881 -0.895846 -0.901940 -0.908137 -0.914413 -0.920743 -0.927105 -0.933476 -0.939833 -0.946151 -0.952400 -0.958547 -0.964553 -0.970375 -0.975964 -0.981267 -0.986227 -0.990784 -0.994877 -0.998441 -1.001415 -1.003737 -1.005349 -1.006193 -1.006222 -1.005391 -1.003669 -1.001033 -0.997473 -0.992995 -0.987613 -0.981358 -0.974272 -0.966409 -0.957832 -0.948614 -0.938836 -0.928584 -0.917948 -0.907021 -0.895897 -0.884670 -0.873434 -0.862277 -0.851286 -0.840542 -0.830123 -0.820099 -0.810533 -0.801484 -0.793002 -0.785131 -0.777908 -0.771364 -0.765521 -0.760396 -0.756001 -0.752340 -0.749413 -0.747215 -0.745735 -0.744960 -0.744870 -0.745446 -0.746662 -0.748492 -0.750907 -0.753877 -0.757369 -0.761351 -0.765788 -0.770648 -0.775895 -0.781495 -0.787416 -0.793623 -0.800085 -0.806769 -0.813645 -0.820684 -0.827857 -0.835137 -0.842499 -0.849918 -0.857369 -0.864828 -0.872267 -0.879654 -0.886955 -0.894129 -0.901131 -0.907911 -0.914414 -0.920581 -0.926351 -0.931660 -0.936445 -0.940640 -0.944183 -0.947013 -0.949075 -0.950314 -0.950687 -0.950156 -0.948696 -0.946292 -0.942943 -0.938661 -0.933472 -0.927412 -0.920533 -0.912896 -0.904570 -0.895636 -0.886177 -0.876285 -0.866053 -0.855577 -0.844952 -0.834274 -0.823636 -0.813126 -0.802829 -0.792827 -0.783192 -0.773994 -0.765293 -0.757144 -0.749595 -0.742686 -0.736449 -0.730912 -0.726095 -0.722011 -0.718666 -0.716063 -0.714199 -0.713064 -0.712646 -0.712927 -0.713887 -0.715502 -0.717746 -0.720590 -0.724002 -0.727952 -0.732406 -0.737329 -0.742687 -0.748445 -0.754567 -0.761020 -0.767769 -0.774780 -0.782021 -0.789461 -0.797068 -0.804813 -0.812668 -0.820607 -0.828603 -0.836633 -0.844672 -0.852694 -0.860670 -0.868567 -0.876348 -0.883970 -0.891388 -0.898548 -0.905394 -0.911867 -0.917905 -0.923443 -0.928417 -0.932764 -0.936423 -0.939333 -0.941440 -0.942694 -0.943048 -0.942462 -0.940904 -0.938345 -0.934767 -0.930155 -0.924503 -0.917812 -0.910089 -0.901346 -0.891603 -0.880884 -0.869220 -0.856645 -0.843198 -0.828922 -0.813862 -0.798066 -0.781586 -0.764474 -0.746783 -0.728568 -0.709885 -0.690787 -0.671331 -0.651569 -0.631556 -0.611343 -0.590981 -0.570521 -0.550015 -0.529519 -0.509092 -0.488797 -0.468704 -0.448888 -0.429428 -0.410409 -0.391918 -0.374045 -0.356880 -0.340514 -0.325037 -0.310534 -0.297089 -0.284779 -0.273673 -0.263837 -0.255326 -0.248187 -0.242462 -0.238178 -0.235358 -0.234014 -0.234148 -0.235756 -0.238825 -0.243332 -0.249248 -0.256540 -0.265163 -0.275072 -0.286213 -0.298531 -0.311964 -0.326450 -0.341922 -0.358312 -0.375552 -0.393571 -0.412299 -0.431666 -0.451603 -0.472041 -0.492913 -0.514153 -0.535698 -0.557487 -0.579459 -0.601560 -0.623733 -0.645929 -0.668099 -0.690198 -0.712182 -0.734011 -0.755651 -0.777065 -0.798222 -0.819093 -0.839647 -0.859852 -0.879672 -0.899068 -0.917993 -0.936397 -0.954223 -0.971410 -0.987893 -1.003603 -1.018469 -1.032421 -1.045385 -1.057294 -1.068080 -1.077681 -1.086039 -1.093104 -1.098836 -1.103203 -1.106191 -1.107796 -1.108033 -1.106932 -1.104539 -1.100913 -1.096128 -1.090271 -1.083438 -1.075736 -1.067279 -1.058183 -1.048569 -1.038562 -1.028281 -1.017847 -1.007377 -0.996982 -0.986767 -0.976831 -0.967267 -0.958157 -0.949576 -0.941591 -0.934259 -0.927630 -0.921742 -0.916628 -0.912312 -0.908809 -0.906128 -0.904269 -0.903229 -0.902997 -0.903558 -0.904889 -0.906967 -0.909763 -0.913246 -0.917380 -0.922131 -0.927459 -0.933326 -0.939690 -0.946511 -0.953749 -0.961363 -0.969311 -0.977555 -0.986056 -0.994776 -1.003678 -1.012728 -1.021892 -1.031139 -1.040437 -1.049759 -1.059077 -1.068362 -1.077584 -1.086710 -1.095702 -1.104514 -1.113096 -1.121393 -1.129342 -1.136877 -1.143928 -1.150421 -1.156281 -1.161432 -1.165801 -1.169316 -1.171908 -1.173515 -1.174083 -1.173566 -1.171935 -1.169172 -1.165275 -1.160258 -1.154152 -1.147002 -1.138866 -1.129818 -1.119939 -1.109325 -1.098075 -1.086297 -1.074101 -1.061602 -1.048911 -1.036141 -1.023402 -1.010800 -0.998435 -0.986402 -0.974789 -0.963675 -0.953135 -0.943233 -0.934024 -0.925557 -0.917872 -0.911000 -0.904965 -0.899783 -0.895464 -0.892009 -0.889416 -0.887675 -0.886771 -0.886684 -0.887391 -0.888865 -0.891075 -0.893987 -0.897567 -0.901776 -0.906577 -0.911929 -0.917792 -0.924125 -0.930889 -0.938042 -0.945546 -0.953360 -0.961447 -0.969770 -0.978294 -0.986983 -0.995807 -1.004732 -1.013730 -1.022773 -1.031829 -1.040869 -1.049856 -1.058752 -1.067510 -1.076078 -1.084399 -1.092409 -1.100041 -1.107221 -1.113876 -1.119929 -1.125302 -1.129920 -1.133709 -1.136599 -1.138527 -1.139436 -1.139281 -1.138029 -1.135661 -1.132175 -1.127583 -1.121914 -1.115212 -1.107535 -1.098954 -1.089551 -1.079418 -1.068656 -1.057370 -1.045671 -1.033669 -1.021479 -1.009211 -0.996975 -0.984874 -0.973010 -0.961476 -0.950360 -0.939742 -0.929693 -0.920278 -0.911553 -0.903565 -0.896354 -0.889951 -0.884380 -0.879657 -0.875790 -0.872782 -0.870629 -0.869321 -0.868844 -0.869178 -0.870298 -0.872179 -0.874788 -0.878093 -0.882058 -0.886646 -0.891819 -0.897536 -0.903757 -0.910441 -0.917549 -0.925039 -0.932873 -0.941011 -0.949415 -0.958048 -0.966875 -0.975863 -0.984977 -0.994187 -1.003464 -1.012779 -1.022102 -1.031402 -1.040644 -1.049789 -1.058790 -1.067597 -1.076151 -1.084388 -1.092242 -1.099639 -1.106506 -1.112765 -1.118340 -1.123155 -1.127137 -1.130215 -1.132324 -1.133405 -1.133404 -1.132275 -1.129979 -1.126485 -1.121771 -1.115822 -1.108633 -1.100204 -1.090546 -1.079675 -1.067617 -1.054402 -1.040066 -1.024653 -1.008209 -0.990787 -0.972441 -0.953230 -0.933216 -0.912461 -0.891029 -0.868987 -0.846401 -0.823335 -0.799855 -0.776027 -0.751912 -0.727574 -0.703073 -0.678470 -0.653829 -0.629220 -0.604718 -0.580408 -0.556383 -0.532746 -0.509608 -0.487088 -0.465312 -0.444407 -0.424507 -0.405744 -0.388249 -0.372150 -0.357568 -0.344619 -0.333406 -0.324027 -0.316565 -0.311090 -0.307663 -0.306327 -0.307116 -0.310046 -0.315123 -0.322339 -0.331673 -0.343092 -0.356554 -0.372003 -0.389377 -0.408604 -0.429605 -0.452293 -0.476578 -0.502362 -0.529547 -0.558029 -0.587704 -0.618465 -0.650207 -0.682824 -0.716209 -0.750261 -0.784877 -0.819958 -0.855409 -0.891137 -0.927052 -0.963070 -0.999109 -1.035092 -1.070948 -1.106606 -1.142005 -1.177085 -1.211790 -1.246071 -1.279881 -1.313175 -1.345909 -1.378034 -1.409497 -1.440239 -1.470190 -1.499275 -1.527405 -1.554489 -1.580427 -1.605114 -1.628441 -1.650300 -1.670580 -1.689176 -1.705986 -1.720915 -1.733877 -1.744804 -1.753641 -1.760357 -1.764943 -1.767413 -1.767808 -1.766190 -1.762648 -1.757290 -1.750243 -1.741649 -1.731666 -1.720462 -1.708213 -1.695100 -1.681307 -1.667014 -1.652402 -1.637646 -1.622913 -1.608361 -1.594141 -1.580390 -1.567234 -1.554788 -1.543151 -1.532413 -1.522648 -1.513918 -1.506273 -1.499750 -1.494377 -1.490167 -1.487126 -1.485250 -1.484525 -1.484932 -1.486441 -1.489019 -1.492625 -1.497216 -1.502743 -1.509154 -1.516396 -1.524411 -1.533143 -1.542533 -1.552523 -1.563053 -1.574067 -1.585506 -1.597316 -1.609442 -1.621831 -1.634434 -1.647201 -1.660088 -1.673050 -1.686045 -1.699034 -1.711972 -1.724813 -1.737502 -1.749977 -1.762167 -1.773992 -1.785360 -1.796174 -1.806325 -1.815705 -1.824198 -1.831687 -1.838055 -1.843189 -1.846978 -1.849319 -1.850116 -1.849287 -1.846765 -1.842500 -1.836468 -1.828665 -1.819112 -1.807857 -1.794971 -1.780547 -1.764698 -1.747555 -1.729266 -1.709991 -1.689899 -1.669168 -1.647976 -1.626505 -1.604934 -1.583439 -1.562189 -1.541345 -1.521059 -1.501474 -1.482717 -1.464908 -1.448150 -1.432534 -1.418138 -1.405026 -1.393249 -1.382848 -1.373847 -1.366263 -1.360100 -1.355352 -1.352004 -1.350032 -1.349406 -1.350087 -1.352030 -1.355187 -1.359504 -1.364923 -1.371384 -1.378824 -1.387178 -1.396381 -1.406367 -1.417070 -1.428424 -1.440365 -1.452828 -1.465753 -1.479078 -1.492745 -1.506699 -1.520886 -1.535255 -1.549757 -1.564347 -1.578977 -1.593599 -1.608160 -1.622601 -1.636853 -1.650838 -1.664472 -1.677656 -1.690287 -1.702256 -1.713446 -1.723740 -1.733017 -1.741158 -1.748048 -1.753573 -1.757631 -1.760129 -1.760986 -1.760143 -1.757558 -1.753216 -1.747124 -1.739313 -1.729842 -1.718790 -1.706258 -1.692366 -1.677250 -1.661063 -1.643965 -1.626125 -1.607718 -1.588920 -1.569908 -1.550853 -1.531924 -1.513283 -1.495081 -1.477461 -1.460554 -1.444481 -1.429348 -1.415251 -1.402269 -1.390473 -1.379917 -1.370645 -1.362688 -1.356066 -1.350787 -1.346852 -1.344248 -1.342958 -1.342954 -1.344201 -1.346661 -1.350288 -1.355030 -1.360836 -1.367646 -1.375402 -1.384042 -1.393503 -1.403722 -1.414635 -1.426178 -1.438289 -1.450907 -1.463970 -1.477420 -1.491200 -1.505256 -1.519534 -1.533986 -1.548563 -1.563220 -1.577913 -1.592594 -1.607212 -1.621711 -1.636025 -1.650079 -1.663789 -1.677063 -1.689797 -1.701884 -1.713211 -1.723659 -1.733108 -1.741442 -1.748541 -1.754295 -1.758598 -1.761351 -1.762466 -1.761863 -1.759476 -1.755250 -1.749141 -1.741120 -1.731170 -1.719286 -1.705476 -1.689761 -1.672171 -1.652749 -1.631546 -1.608624 -1.584052 -1.557906 -1.530269 -1.501229 -1.470880 -1.439318 -1.406642 -1.372953 -1.338353 -1.302944 -1.266830 -1.230112 -1.192888 -1.155257 -1.117314 -1.079154 -1.040871 -1.002561 -0.964321 -0.926251 -0.888457 -0.851045 -0.814125 -0.777814 -0.742223 -0.707467 -0.673659 -0.640910 -0.609329 -0.579019 -0.550077 -0.522594 -0.496651 -0.472324 -0.449675 -0.428760 -0.409623 -0.392299 -0.376812 -0.363175 -0.351393 -0.341460 -0.333361 -0.327073 -0.322565 -0.319796 -0.318723 -0.319291 -0.321445 -0.325122 -0.330256 -0.336776 -0.344611 -0.353686 -0.363925 -0.375251 -0.387586 -0.400854 -0.414977 -0.429880 -0.445488 -0.461728 -0.478531 -0.495826 -0.513547 -0.531632 -0.550019 -0.568649 -0.587469 -0.606425 -0.625469 -0.644555 -0.663639 -0.682681 -0.701645 -0.720493 -0.739190 -0.757698 -0.775977 -0.793981 -0.811658 -0.828955 -0.845809 -0.862152 -0.877915 -0.893026 -0.907410 -0.920991 -0.933693 -0.945442 -0.956168 -0.965804 -0.974292 -0.981579 -0.987627 -0.992409 -0.995913 -0.998142 -0.999117 -0.998873 -0.997463 -0.994948 -0.991407 -0.986926 -0.981603 -0.975543 -0.968855 -0.961653 -0.954051 -0.946165 -0.938107 -0.929989 -0.921917 -0.913990 -0.906304 -0.898946 -0.891996 -0.885527 -0.879601 -0.874275 -0.869595 -0.865600 -0.862322 -0.859783 -0.857999 -0.856978 -0.856723 -0.857229 -0.858487 -0.860481 -0.863193 -0.866599 -0.870671 -0.875381 -0.880694 -0.886577 -0.892993 -0.899905 -0.907273 -0.915059 -0.923224 -0.931728 -0.940534 -0.949602 -0.958896 -0.968380 -0.978019 -0.987778 -0.997627 -1.007534 -1.017470 -1.027409 -1.037322 -1.047182 -1.056959 -1.066618 -1.076121 -1.085423 -1.094473 -1.103214 -1.111581 -1.119508 -1.126926 -1.133760 -1.139935 -1.145376 -1.150010 -1.153766 -1.156575 -1.158377 -1.159119 -1.158758 -1.157265 -1.154623 -1.150833 -1.145911 -1.139888 -1.132811 -1.124744 -1.115758 -1.105938 -1.095380 -1.084184 -1.072460 -1.060320 -1.047877 -1.035246 -1.022541 -1.009871 -0.997342 -0.985057 -0.973110 -0.961588 -0.950574 -0.940139 -0.930349 -0.921259 -0.912918 -0.905365 -0.898632 -0.892741 -0.887710 -0.883547 -0.880254 -0.877828 -0.876257 -0.875528 -0.875620 -0.876509 -0.878167 -0.880564 -0.883666 -0.887437 -0.891839 -0.896833 -0.902379 -0.908437 -0.914966 -0.921925 -0.929272 -0.936969 -0.944976 -0.953254 -0.961768 -0.970480 -0.979356 -0.988364 -0.997473 -1.006652 -1.015872 -1.025105 -1.034318 -1.043477 -1.052541 -1.061464 -1.070196 -1.078678 -1.086848 -1.094633 -1.101965 -1.108768 -1.114966 -1.120483 -1.125241 -1.129167 -1.132192 -1.134252 -1.135288 -1.135253 -1.134113 -1.131846 -1.128445 -1.123921 -1.118300 -1.111621 -1.103944 -1.095335 -1.085876 -1.075657 -1.064779 -1.053347 -1.041472 -1.029268 -1.016849 -1.004328 -0.991817 -0.979424 -0.967251 -0.955395 -0.943946 -0.932989 -0.922598 -0.912840 -0.903774 -0.895451 -0.887912 -0.881192 -0.875316 -0.870303 -0.866163 -0.862899 -0.860510 -0.858987 -0.858316 -0.858478 -0.859450 -0.861205 -0.863712 -0.866938 -0.870846 -0.875401 -0.880561 -0.886288 -0.892539 -0.899274 -0.906451 -0.914029 -0.921968 -0.930227 -0.938767 -0.947551 -0.956541 -0.965704 -0.975004 -0.984410 -0.993892 -1.003420 -1.012965 -1.022496 -1.031979 -1.041378 -1.050647 -1.059739 -1.068598 -1.077163 -1.085365 -1.093134 -1.100399 -1.107082 -1.113106 -1.118396 -1.122877 -1.126478 -1.129130 -1.130773 -1.131350 -1.130811 -1.129117 -1.126231 -1.122129 -1.116793 -1.110214 -1.102390 -1.093328 -1.083043 -1.071555 -1.058894 -1.045094 -1.030195 -1.014242 -0.997287 -0.979383 -0.960587 -0.940960 -0.920563 -0.899462 -0.877722 -0.855407 -0.832585 -0.809320 -0.785678 -0.761723 -0.737518 -0.713122 -0.688596 -0.663997 -0.639386 -0.614822 -0.590368 -0.566089 -0.542057 -0.518343 -0.495025 -0.472182 -0.449895 -0.428246 -0.407317 -0.387191 -0.367947 -0.349662 -0.332407 -0.316251 -0.301255 -0.287475 -0.274958 -0.263746 -0.253871 -0.245359 -0.238227 -0.232485 -0.228134 -0.225168 -0.223575 -0.223334 -0.224420 -0.226800 -0.230437 -0.235290 -0.241311 -0.248451 -0.256656 -0.265870 -0.276036 -0.287093 -0.298981 -0.311638 -0.325002 -0.339013 -0.353609 -0.368729 -0.384315 -0.400309 -0.416655 -0.433299 -0.450188 -0.467272 -0.484504 -0.501839 -0.519232 -0.536644 -0.554036 -0.571373 -0.588622 -0.605751 -0.622733 -0.639539 -0.656143 -0.672515 -0.688623 -0.704432 -0.719903 -0.734990 -0.749644 -0.763812 -0.777439 -0.790466 -0.802830 -0.814472 -0.825330 -0.835344 -0.844458 -0.852617 -0.859772 -0.865880 -0.870905 -0.874824 -0.877620 -0.879294 -0.879855 -0.879331 -0.877758 -0.875187 -0.871677 -0.867302 -0.862142 -0.856284 -0.849822 -0.842853 -0.835476 -0.827793 -0.819903 -0.811904 -0.803892 -0.795957 -0.788186 -0.780659 -0.773450 -0.766627 -0.760250 -0.754373 -0.749042 -0.744295 -0.740165 -0.736676 -0.733846 -0.731687 -0.730205 -0.729400 -0.729267 -0.729796 -0.730972 -0.732779 -0.735195 -0.738195 -0.741753 -0.745839 -0.750424 -0.755474 -0.760958 -0.766841 -0.773090 -0.779670 -0.786548 -0.793690 -0.801063 -0.808635 -0.816376 -0.824254 -0.832241 -0.840310 -0.848434 -0.856588 -0.864749 -0.872894 -0.880998 -0.889038 -0.896982 -0.904800 -0.912452 -0.919895 -0.927082 -0.933961 -0.940476 -0.946567 -0.952172 -0.957230 -0.961677 -0.965452 -0.968495 -0.970750 -0.972165 -0.972695 -0.972301 -0.970956 -0.968643 -0.965359 -0.961114 -0.955931 -0.949844 -0.942901 -0.935161 -0.926694 -0.917578 -0.907897 -0.897743 -0.887209 -0.876392 -0.865390 -0.854300 -0.843216 -0.832231 -0.821432 -0.810902 -0.800720 -0.790956 -0.781675 -0.772934 -0.764784 -0.757269 -0.750424 -0.744280 -0.738858 -0.734175 -0.730239 -0.727056 -0.724622 -0.722932 -0.721974 -0.721731 -0.722185 -0.723313 -0.725088 -0.727483 -0.730467 -0.734009 -0.738075 -0.742630 -0.747641 -0.753072 -0.758887 -0.765052 -0.771532 -0.778292 -0.785300 -0.792523 -0.799930 -0.807491 -0.815176 -0.822960 -0.830814 -0.838715 -0.846638 -0.854557 -0.862445 -0.870271 -0.877998 -0.885587 -0.892990 -0.900161 -0.907042 -0.913577 -0.919703 -0.925357 -0.930476 -0.934994 -0.938850 -0.941983 -0.944336 -0.945858 -0.946504 -0.946239 -0.945038 -0.942887 -0.939788 -0.935756 -0.930815 -0.925005 -0.918377 -0.910993 -0.902925 -0.894251 -0.885059 -0.875437 -0.865480 -0.855283 -0.844942 -0.834549 -0.824199 -0.813978 -0.803971 -0.794257 -0.784909 -0.775994 -0.767572 -0.759697 -0.752415 -0.745766 -0.739781 -0.734486 -0.729900 -0.726037 -0.722902 -0.720497 -0.718818 -0.717855 -0.717596 -0.718024 -0.719116 -0.720851 -0.723201 -0.726137 -0.729630 -0.733647 -0.738155 -0.743121 -0.748510 -0.754287 -0.760418 -0.766869 -0.773606 -0.780596 -0.787808 -0.795209 -0.802770 -0.810462 -0.818257 -0.826129 -0.834054 -0.842006 -0.849962 -0.857895 -0.865775 -0.873570 -0.881240 -0.888743 -0.896030 -0.903049 -0.909744 -0.916054 -0.921916 -0.927267 -0.932042 -0.936179 -0.939616 -0.942294 -0.944160 -0.945163 -0.945260 -0.944411 -0.942584 -0.939754 -0.935902 -0.931016 -0.925091 -0.918128 -0.910136 -0.901129 -0.891128 -0.880159 -0.868251 -0.855441 -0.841769 -0.827277 -0.812012 -0.796023 -0.779361 -0.762078 -0.744229 -0.725868 -0.707051 -0.687831 -0.668265 -0.648406 -0.628306 -0.608018 -0.587592 -0.567080 -0.546538 -0.526025 -0.505609 -0.485367 -0.465383 -0.445756 -0.426588 -0.407993 -0.390089 -0.373001 -0.356857 -0.341785 -0.327913 -0.315364 -0.304257 -0.294705 -0.286809 -0.280665 -0.276354 -0.273947 -0.273501 -0.275061 -0.278658 -0.284311 -0.292023 -0.301788 -0.313586 -0.327384 -0.343139 -0.360799 -0.380301 -0.401576 -0.424544 -0.449121 -0.475218 -0.502739 -0.531586 -0.561659 -0.592853 -0.625065 -0.658190 -0.692124 -0.726764 -0.762007 -0.797754 -0.833907 -0.870373 -0.907059 -0.943880 -0.980750 -1.017591 -1.054327 -1.090887 -1.127205 -1.163218 -1.198868 -1.234102 -1.268871 -1.303130 -1.336835 -1.369942 -1.402406 -1.434175 -1.465188 -1.495379 -1.524672 -1.552982 -1.580217 -1.606279 -1.631063 -1.654463 -1.676369 -1.696673 -1.715271 -1.732060 -1.746947 -1.759846 -1.770686 -1.779411 -1.785986 -1.790399 -1.792659 -1.792804 -1.790893 -1.787009 -1.781259 -1.773766 -1.764673 -1.754137 -1.742328 -1.729421 -1.715600 -1.701051 -1.685960 -1.670510 -1.654880 -1.639242 -1.623761 -1.608591 -1.593875 -1.579745 -1.566319 -1.553705 -1.541994 -1.531267 -1.521590 -1.513017 -1.505589 -1.499335 -1.494275 -1.490415 -1.487754 -1.486281 -1.485976 -1.486812 -1.488756 -1.491770 -1.495809 -1.500824 -1.506764 -1.513574 -1.521197 -1.529574 -1.538648 -1.548357 -1.558641 -1.569443 -1.580702 -1.592363 -1.604368 -1.616664 -1.629200 -1.641925 -1.654791 -1.667753 -1.680770 -1.693798 -1.706796 -1.719717 -1.732511 -1.745118 -1.757471 -1.769493 -1.781095 -1.792182 -1.802651 -1.812394 -1.821296 -1.829241 -1.836110 -1.841790 -1.846168 -1.849137 -1.850599 -1.850462 -1.848652 -1.845106 -1.839784 -1.832667 -1.823760 -1.813092 -1.800718 -1.786716 -1.771186 -1.754248 -1.736040 -1.716716 -1.696441 -1.675390 -1.653744 -1.631687 -1.609403 -1.587074 -1.564877 -1.542984 -1.521558 -1.500751 -1.480705 -1.461550 -1.443401 -1.426363 -1.410526 -1.395965 -1.382744 -1.370911 -1.360504 -1.351547 -1.344052 -1.338022 -1.333448 -1.330313 -1.328589 -1.328244 -1.329236 -1.331519 -1.335041 -1.339745 -1.345571 -1.352457 -1.360337 -1.369145 -1.378814 -1.389274 -1.400459 -1.412300 -1.424732 -1.437689 -1.451108 -1.464927 -1.479087 -1.493530 -1.508203 -1.523052 -1.538030 -1.553088 -1.568179 -1.583255 -1.598262 -1.613140 -1.627820 -1.642225 -1.656267 -1.669850 -1.682871 -1.695219 -1.706780 -1.717433 -1.727060 -1.735540 -1.742759 -1.748604 -1.752971 -1.755767 -1.756912 -1.756342 -1.754016 -1.749915 -1.744044 -1.736435 -1.727141 -1.716240 -1.703832 -1.690036 -1.674988 -1.658839 -1.641750 -1.623891 -1.605439 -1.586569 -1.567460 -1.548286 -1.529219 -1.510420 -1.492046 -1.474241 -1.457138 -1.440861 -1.425520 -1.411210 -1.398016 -1.386009 -1.375246 -1.365773 -1.357623 -1.350816 -1.345364 -1.341267 -1.338514 -1.337089 -1.336964 -1.338106 -1.340475 -1.344027 -1.348711 -1.354474 -1.361257 -1.369000 -1.377643 -1.387122 -1.397372 -1.408329 -1.419930 -1.432111 -1.444810 -1.457965 -1.471516 -1.485407 -1.499582 -1.513987 -1.528572 -1.543289 -1.558091 -1.572933 -1.587770 -1.602551 -1.617220 -1.631714 -1.645960 -1.659875 -1.673367 -1.686338 -1.698680 -1.710280 -1.721020 -1.730783 -1.739448 -1.746898 -1.753021 -1.757709 -1.760863 -1.762391 -1.762214 -1.760260 -1.756474 -1.750810 -1.743235 -1.733730 -1.722288 -1.708915 -1.693629 -1.676458 -1.657442 -1.636633 -1.614089 -1.589877 -1.564074 -1.536761 -1.508025 -1.477958 -1.446657 -1.414220 -1.380748 -1.346342 -1.311107 -1.275144 -1.238554 -1.201438 -1.163894 -1.126017 -1.087903 -1.049644 -1.011332 -0.973061 -0.934927 -0.897027 -0.859460 -0.822330 -0.785738 -0.749787 -0.714581 -0.680222 -0.646812 -0.614446 -0.583218 -0.553217 -0.524523 -0.497212 -0.471351 -0.446999 -0.424208 -0.403018 -0.383464 -0.365569 -0.349348 -0.334808 -0.321947 -0.310754 -0.301212 -0.293297 -0.286976 -0.282211 -0.278961 -0.277175 -0.276802 -0.277786 -0.280068 -0.283584 -0.288271 -0.294064 -0.300897 -0.308701 -0.317410 -0.326957 -0.337276 -0.348302 -0.359970 -0.372219 -0.384987 -0.398216 -0.411850 -0.425835 -0.440118 -0.454651 -0.469386 -0.484280 -0.499290 -0.514378 -0.529507 -0.544643 -0.559754 -0.574807 -0.589770 -0.604609 -0.619285 -0.633756 -0.647976 -0.661891 -0.675448 -0.688588 -0.701249 -0.713369 -0.724882 -0.735722 -0.745828 -0.755137 -0.763590 -0.771134 -0.777719 -0.783303 -0.787854 -0.791349 -0.793776 -0.795139 -0.795454 -0.794750 -0.793068 -0.790460 -0.786993 -0.782738 -0.777780 -0.772207 -0.766113 -0.759594 -0.752750 -0.745679 -0.738480 -0.731247 -0.724074 -0.717046 -0.710247 -0.703754 -0.697635 -0.691953 -0.686765 -0.682120 -0.678058 -0.674614 -0.671815 -0.669681 -0.668226 -0.667458 -0.667378 -0.667983 -0.669264 -0.671208 -0.673797 -0.677012 -0.680827 -0.685217 -0.690151 -0.695600 -0.701530 -0.707909 -0.714701 -0.721872 -0.729387 -0.737211 -0.745309 -0.753647 -0.762191 -0.770911 -0.779773 -0.788747 -0.797806 -0.806921 -0.816065 -0.825215 -0.834346 -0.843436 -0.852459 -0.861389 -0.870195 -0.878842 -0.887289 -0.895490 -0.903398 -0.910958 -0.918113 -0.924803 -0.930965 -0.936536 -0.941454 -0.945659 -0.949092 -0.951698 -0.953429 -0.954242 -0.954105 -0.952994 -0.950901 -0.947828 -0.943791 -0.938822 -0.932961 -0.926261 -0.918786 -0.910611 -0.901817 -0.892492 -0.882728 -0.872620 -0.862266 -0.851763 -0.841205 -0.830687 -0.820298 -0.810123 -0.800242 -0.790729 -0.781651 -0.773070 -0.765039 -0.757605 -0.750808 -0.744680 -0.739247 -0.734529 -0.730537 -0.727279 -0.724756 -0.722964 -0.721894 -0.721531 -0.721860 -0.722858 -0.724503 -0.726767 -0.729622 -0.733036 -0.736979 -0.741416 -0.746313 -0.751637 -0.757351 -0.763423 -0.769816 -0.776498 -0.783435 -0.790595 -0.797946 -0.805459 -0.813104 -0.820854 -0.828682 -0.836564 -0.844474 -0.852389 -0.860281 -0.868123 -0.875879 -0.883511 -0.890978 -0.898228 -0.905210 -0.911869 -0.918142 -0.923969 -0.929285 -0.934027 -0.938130 -0.941533 -0.944179 -0.946013 -0.946989 -0.947065 -0.946215 -0.944418 -0.941672 -0.937984 -0.933376 -0.927884 -0.921552 -0.914438 -0.906611 -0.898146 -0.889127 -0.879643 -0.869786 -0.859651 -0.849334 -0.838929 -0.828530 -0.818226 -0.808103 -0.798243 -0.788720 -0.779605 -0.770961 -0.762843 -0.755300 -0.748376 -0.742105 -0.736515 -0.731628 -0.727459 -0.724017 -0.721306 -0.719323 -0.718062 -0.717510 -0.717652 -0.718469 -0.719939 -0.722034 -0.724729 -0.727993 -0.731795 -0.736102 -0.740880 -0.746095 -0.751713 -0.757700 -0.764020 -0.770640 -0.777527 -0.784649 -0.791973 -0.799469 -0.807107 -0.814861 -0.822702 -0.830605 -0.838547 -0.846502 -0.854446 -0.862349 -0.870181 -0.877906 -0.885481 -0.892861 -0.899993 -0.906824 -0.913295 -0.919344 -0.924907 -0.929921 -0.934322 -0.938047 -0.941037 -0.943236 -0.944592 -0.945058 -0.944594 -0.943164 -0.940741 -0.937302 -0.932834 -0.927328 -0.920783 -0.913204 -0.904605 -0.895003 -0.884421 -0.872888 -0.860438 -0.847110 -0.832945 -0.817987 -0.802286 -0.785891 -0.768854 -0.751229 -0.733071 -0.714433 -0.695372 -0.675943 -0.656198 -0.636193 -0.615978 -0.595605 -0.575127 -0.554597 -0.534075 -0.513627 -0.493329 -0.473265 -0.453529 -0.434225 -0.415464 -0.397364 -0.380051 -0.363650 -0.348292 -0.334104 -0.321212 -0.309736 -0.299789 -0.291478 -0.284898 -0.280134 -0.277259 -0.276334 -0.277406 -0.280511 -0.285667 -0.292884 -0.302157 -0.313467 -0.326785 -0.342071 -0.359274 -0.378333 -0.399180 -0.421739 -0.445925 -0.471651 -0.498821 -0.527339 -0.557105 -0.588014 -0.619964 -0.652849 -0.686566 -0.721010 -0.756080 -0.791675 -0.827697 -0.864052 -0.900647 -0.937395 -0.974211 -1.011014 -1.047729 -1.084283 -1.120609 -1.156644 -1.192328 -1.227609 -1.262435 -1.296760 -1.330542 -1.363737 -1.396299 -1.428178 -1.459315 -1.489645 -1.519094 -1.547578 -1.575008 -1.601286 -1.626308 -1.649968 -1.672157 -1.692768 -1.711692 -1.728830 -1.744084 -1.757367 -1.768605 -1.777739 -1.784728 -1.789557 -1.792230 -1.792778 -1.791257 -1.787747 -1.782348 -1.775180 -1.766384 -1.756113 -1.744534 -1.731823 -1.718161 -1.703734 -1.688729 -1.673329 -1.657714 -1.642058 -1.626528 -1.611278 -1.596456 -1.582194 -1.568616 -1.555828 -1.543927 -1.532995 -1.523101 -1.514302 -1.506641 -1.500150 -1.494850 -1.490750 -1.487850 -1.486141 -1.485605 -1.486217 -1.487944 -1.490749 -1.494588 -1.499414 -1.505176 -1.511819 -1.519287 -1.527522 -1.536464 -1.546054 -1.556232 -1.566938 -1.578115 -1.589703 -1.601648 -1.613895 -1.626391 -1.639086 -1.651932 -1.664884 -1.677897 -1.690931 -1.703943 -1.716889 -1.729717 -1.742372 -1.754787 -1.766886 -1.778584 -1.789787 -1.800394 -1.810296 -1.819380 -1.827530 -1.834629 -1.840561 -1.845212 -1.848476 -1.850252 -1.850448 -1.848988 -1.845812 -1.840880 -1.834176 -1.825705 -1.815500 -1.803618 -1.790139 -1.775162 -1.758811 -1.741222 -1.722549 -1.702957 -1.682617 -1.661708 -1.640410 -1.618905 -1.597370 -1.575978 -1.554896 -1.534282 -1.514284 -1.495038 -1.476670 -1.459291 -1.443000 -1.427883 -1.414013 -1.401448 -1.390236 -1.380409 -1.371990 -1.364990 -1.359409 -1.355238 -1.352456 -1.351039 -1.350952 -1.352154 -1.354599 -1.358236 -1.363009 -1.368859 -1.375725 -1.383544 -1.392250 -1.401778 -1.412061 -1.423034 -1.434632 -1.446789 -1.459443 -1.472534 -1.486000 -1.499785 -1.513835 -1.528095 -1.542518 -1.557054 -1.571657 -1.586282 -1.600878 -1.615389 -1.629752 -1.643897 -1.657741 -1.671194 -1.684157 -1.696523 -1.708181 -1.719013 -1.728900 -1.737721 -1.745360 -1.751700 -1.756634 -1.760060 -1.761887 -1.762037 -1.760452 -1.757091 -1.751938 -1.745002 -1.736315 -1.725936 -1.713943 -1.700440 -1.685549 -1.669409 -1.652175 -1.634010 -1.615089 -1.595590 -1.575694 -1.555583 -1.535434 -1.515421 -1.495710 -1.476460 -1.457818 -1.439920 -1.422891 -1.406842 -1.391873 -1.378068 -1.365498 -1.354223 -1.344289 -1.335727 -1.328561 -1.322799 -1.318441 -1.315477 -1.313887 -1.313645 -1.314716 -1.317057 -1.320623 -1.325361 -1.331216 -1.338128 -1.346035 -1.354874 -1.364579 -1.375084 -1.386323 -1.398230 -1.410739 -1.423786 -1.437307 -1.451242 -1.465531 -1.480116 -1.494944 -1.509961 -1.525117 -1.540366 -1.555661 -1.570956 -1.586201 -1.601341 -1.616313 -1.631046 -1.645459 -1.659461 -1.672955 -1.685835 -1.697987 -1.709297 -1.719644 -1.728909 -1.736974 -1.743726 -1.749056 -1.752862 -1.755052 -1.755544 -1.754264 -1.751155 -1.746167 -1.739267 -1.730431 -1.719651 -1.706931 -1.692285 -1.675741 -1.657337 -1.637121 -1.615150 -1.591492 -1.566219 -1.539413 -1.511161 -1.481552 -1.450684 -1.418653 -1.385562 -1.351511 -1.316604 -1.280942 -1.244629 -1.207764 -1.170446 -1.132772 -1.094836 -1.056731 -1.018550 -0.980388 -0.942341 -0.904509 -0.866996 -0.829909 -0.793357 -0.757450 -0.722303 -0.688026 -0.654733 -0.622532 -0.591529 -0.561825 -0.533514 -0.506683 -0.481413 -0.457774 -0.435827 -0.415623 -0.397206 -0.380605 -0.365842 -0.352927 -0.341864 -0.332642 -0.325246 -0.319649 -0.315818 -0.313712 -0.313284 -0.314481 -0.317243 -0.321507 -0.327206 -0.334270 -0.342625 -0.352198 -0.362911 -0.374687 -0.387449 -0.401120 -0.415624 -0.430884 -0.446827 -0.463381 -0.480475 -0.498041 -0.516013 -0.534330 -0.552929 -0.571755 -0.590752 -0.609870 -0.629060 -0.648276 -0.667477 -0.686624 -0.705678 -0.724605 -0.743369 -0.761931 -0.780250 -0.798280 -0.815969 -0.833259 -0.850088 -0.866391 -0.882097 -0.897132 -0.911421 -0.924888 -0.937457 -0.949057 -0.959617 -0.969073 -0.977369 -0.984458 -0.990308 -0.994898 -0.998225 -1.000300 -1.001152 -1.000824 -0.999371 -0.996863 -0.993383 -0.989022 -0.983878 -0.978058 -0.971671 -0.964830 -0.957646 -0.950232 -0.942698 -0.935148 -0.927685 -0.920402 -0.913389 -0.906726 -0.900489 -0.894742 -0.889544 -0.884944 -0.880983 -0.877696 -0.875108 -0.873238 -0.872096 -0.871689 -0.872014 -0.873065 -0.874829 -0.877290 -0.880427 -0.884215 -0.888627 -0.893631 -0.899195 -0.905286 -0.911865 -0.918898 -0.926346 -0.934172 -0.942337 -0.950804 -0.959537 -0.968498 -0.977653 -0.986967 -0.996407 -1.005942 -1.015542 -1.025177 -1.034821 -1.044447 -1.054028 -1.063535 -1.072936 -1.082192 -1.091261 -1.100092 -1.108631 -1.116813 -1.124574 -1.131846 -1.138553 -1.144623 -1.149979 -1.154547 -1.158257 -1.161039 -1.162833 -1.163585 -1.163254 -1.161810 -1.159241 -1.155546 -1.150744 -1.144868 -1.137965 -1.130098 -1.121340 -1.111774 -1.101497 -1.090607 -1.079213 -1.067424 -1.055351 -1.043106 -1.030800 -1.018540 -1.006428 -0.994563 -0.983036 -0.971933 -0.961330 -0.951297 -0.941897 -0.933182 -0.925199 -0.917983 -0.911566 -0.905969 -0.901205 -0.897283 -0.894204 -0.891963 -0.890550 -0.889949 -0.890140 -0.891099 -0.892800 -0.895210 -0.898298 -0.902029 -0.906365 -0.911268 -0.916700 -0.922621 -0.928991 -0.935771 -0.942922 -0.950405 -0.958182 -0.966216 -0.974471 -0.982913 -0.991510 -1.000228 -1.009039 -1.017913 -1.026823 -1.035737 -1.044625 -1.053448 -1.062166 -1.070730 -1.079087 -1.087176 -1.094932 -1.102283 -1.109158 -1.115481 -1.121176 -1.126165 -1.130373 -1.133729 -1.136164 -1.137618 -1.138040 -1.137390 -1.135641 -1.132783 -1.128821 -1.123775 -1.117681 -1.110589 -1.102566 -1.093688 -1.084041 -1.073720 -1.062828 -1.051473 -1.039763 -1.027812 -1.015730 -1.003627 -0.991609 -0.979777 -0.968228 -0.957050 -0.946328 -0.936137 -0.926543 -0.917607 -0.909378 -0.901901 -0.895209 -0.889330 -0.884284 -0.880081 -0.876729 -0.874225 -0.872563 -0.871730 -0.871709 -0.872479 -0.874013 -0.876284 -0.879260 -0.882905 -0.887184 -0.892060 -0.897493 -0.903443 -0.909872 -0.916737 -0.924000 -0.931621 -0.939561 -0.947782 -0.956246 -0.964919 -0.973765 -0.982752 -0.991848 -1.001023 -1.010249 -1.019496 -1.028734 -1.037931 -1.047048 -1.056043 -1.064866 -1.073462 -1.081771 -1.089725 -1.097254 -1.104282 -1.110736 -1.116538 -1.121613 -1.125884 -1.129282 -1.131739 -1.133192 -1.133586 -1.132871 -1.131005 -1.127955 -1.123695 -1.118206 -1.111479 -1.103513 -1.094314 -1.083897 -1.072283 -1.059501 -1.045584 -1.030573 -1.014513 -0.997454 -0.979451 -0.960560 -0.940842 -0.920359 -0.899175 -0.877354 -0.854964 -0.832069 -0.808735 -0.785027 -0.761009 -0.736744 -0.712291 -0.687712 -0.663066 -0.638414 -0.613819 -0.589348 -0.565070 -0.541059 -0.517390 -0.494145 -0.471405 -0.449257 -0.427781 -0.407063 -0.387184 -0.368223 -0.350256 -0.333355 -0.317584 -0.303002 -0.289662 -0.277608 -0.266879 -0.257503 -0.249501 -0.242887 -0.237667 -0.233837 -0.231390 -0.230307 -0.230566 -0.232139 -0.234989 -0.239076 -0.244358 -0.250784 -0.258304 -0.266861 -0.276400 -0.286861 -0.298184 -0.310307 -0.323170 -0.336710 -0.350865 -0.365576 -0.380783 -0.396427 -0.412452 -0.428802 -0.445424 -0.462268 -0.479284 -0.496426 -0.513649 -0.530913 -0.548177 -0.565405 -0.582563 -0.599619 -0.616543 -0.633307 -0.649885 -0.666246 -0.682362 -0.698198 -0.713715 -0.728871 -0.743620 -0.757908 -0.771681 -0.784880 -0.797445 -0.809315 -0.820428 -0.830725 -0.840146 -0.848636 -0.856146 -0.862630 -0.868054 -0.872393 -0.875632 -0.877771 -0.878823 -0.878814 -0.877782 -0.875778 -0.872865 -0.869113 -0.864600 -0.859414 -0.853645 -0.847389 -0.840742 -0.833801 -0.826663 -0.819423 -0.812170 -0.804993 -0.797972 -0.791186 -0.784704 -0.778589 -0.772899 -0.767683 -0.762986 -0.758841 -0.755280 -0.752323 -0.749989 -0.748286 -0.747219 -0.746788 -0.746987 -0.747806 -0.749230 -0.751243 -0.753822 -0.756945 -0.760586 -0.764716 -0.769307 -0.774328 -0.779747 -0.785532 -0.791652 -0.798073 -0.804764 -0.811693 -0.818829 -0.826141 -0.833601 -0.841180 -0.848851 -0.856589 -0.864367 -0.872165 -0.879958 -0.887724 -0.895440 -0.903078 -0.910607 -0.917993 -0.925194 -0.932165 -0.938856 -0.945211 -0.951173 -0.956680 -0.961672 -0.966085 -0.969857 -0.972927 -0.975239 -0.976737 -0.977375 -0.977109 -0.975909 -0.973753 -0.970632 -0.966550 -0.961524 -0.955585 -0.948778 -0.941154 -0.932781 -0.923731 -0.914088 -0.903940 -0.893379 -0.882502 -0.871406 -0.860188 -0.848943 -0.837765 -0.826744 -0.815964 -0.805506 -0.795442 -0.785840 -0.776761 -0.768257 -0.760376 -0.753155 -0.746628 -0.740819 -0.735746 -0.731422 -0.727853 -0.725038 -0.722974 -0.721650 -0.721052 -0.721162 -0.721958 -0.723416 -0.725508 -0.728205 -0.731475 -0.735286 -0.739603 -0.744392 -0.749618 -0.755245 -0.761239 -0.767564 -0.774185 -0.781070 -0.788185 -0.795499 -0.802981 -0.810601 -0.818332 -0.826147 -0.834020 -0.841926 -0.849842 -0.857739 -0.865588 -0.873356 -0.881004 -0.888489 -0.895762 -0.902770 -0.909455 -0.915758 -0.921615 -0.926964 -0.931740 -0.935879 -0.939319 -0.942004 -0.943877 -0.944892 -0.945009 -0.944196 -0.942435 -0.939719 -0.936057 -0.931466 -0.925984 -0.919653 -0.912530 -0.904683 -0.896187 -0.887125 -0.877587 -0.867665 -0.857453 -0.847049 -0.836548 -0.826043 -0.815626 -0.805384 -0.795398 -0.785747 -0.776500 -0.767722 -0.759471 -0.751796 -0.744740 -0.738341 -0.732628 -0.727622 -0.723341 -0.719793 -0.716983 -0.714910 -0.713566 -0.712941 -0.713019 -0.713781 -0.715205 -0.717265 -0.719934 -0.723180 -0.726974 -0.731282 -0.736071 -0.741305 -0.746950 -0.752971 -0.759334 -0.766004 -0.772947 -0.780130 -0.787522 -0.795091 -0.802808 -0.810644 -0.818571 -0.826565 -0.834600 -0.842652 -0.850695 -0.858703 -0.866643 -0.874482 -0.882178 -0.889687 -0.896957 -0.903935 -0.910563 -0.916778 -0.922519 -0.927721 -0.932320 -0.936253 -0.939461 -0.941887 -0.943477 -0.944185 -0.943968 -0.942790 -0.940621 -0.937439 -0.933227 -0.927977 -0.921686 -0.914359 -0.906006 -0.896644 -0.886295 -0.874989 -0.862756 -0.849636 -0.835668 -0.820898 -0.805373 -0.789143 -0.772259 -0.754775 -0.736745 -0.718224 -0.699268 -0.679931 -0.660267 -0.640330 -0.620173 -0.599849 -0.579411 -0.558920 -0.538439 -0.518042 -0.497811 -0.477839 -0.458227 -0.439086 -0.420534 -0.402695 -0.385697 -0.369671 -0.354746 -0.341051 -0.328711 -0.317844 -0.308560 -0.300961 -0.295138 -0.291170 -0.289124 -0.289053 -0.291000 -0.294990 -0.301039 -0.309146 -0.319300 -0.331478 -0.345642 -0.361749 -0.379741 -0.399553 -0.421112 -0.444338 -0.469144 -0.495439 -0.523127 -0.552109 -0.582282 -0.613543 -0.645789 -0.678913 -0.712814 -0.747387 -0.782531 -0.818148 -0.854142 -0.890419 -0.926890 -0.963468 -1.000072 -1.036623 -1.073049 -1.109278 -1.145247 -1.180894 -1.216164 -1.251005 -1.285368 -1.319211 -1.352488 -1.385157 -1.417168 -1.448467 -1.478991 -1.508669 -1.537422 -1.565162 -1.591793 -1.617214 -1.641320 -1.664003 -1.685154 -1.704666 -1.722434 -1.738360 -1.752351 -1.764326 -1.774211 -1.781952 -1.787510 -1.790868 -1.792034 -1.791038 -1.787936 -1.782809 -1.775757 -1.766905 -1.756394 -1.744382 -1.731040 -1.716548 -1.701095 -1.684872 -1.668073 -1.650888 -1.633505 -1.616106 -1.598865 -1.581944 -1.565499 -1.549668 -1.534581 -1.520353 -1.507084 -1.494862 -1.483760 -1.473840 -1.465147 -1.457716 -1.451569 -1.446718 -1.443163 -1.440895 -1.439895 -1.440137 -1.441587 -1.444206 -1.447947 -1.452762 -1.458595 -1.465388 -1.473083 -1.481617 -1.490927 -1.500950 -1.511621 -1.522877 -1.534656 -1.546895 -1.559535 -1.572517 -1.585784 -1.599284 -1.612963 -1.626773 -1.640667 -1.654600 -1.668531 -1.682413 -1.696200 -1.709837 -1.723262 -1.736406 -1.749187 -1.761516 -1.773296 -1.784422 -1.794783 -1.804264 -1.812748 -1.820118 -1.826258 -1.831059 -1.834414 -1.836227 -1.836413 -1.834904 -1.831648 -1.826617 -1.819806 -1.811234 -1.800947 -1.789013 -1.775521 -1.760583 -1.744330 -1.726907 -1.708472 -1.689193 -1.669246 -1.648809 -1.628062 -1.607185 -1.586351 -1.565729 -1.545482 -1.525760 -1.506706 -1.488449 -1.471107 -1.454784 -1.439573 -1.425550 -1.412783 -1.401322 -1.391208 -1.382468 -1.375118 -1.369164 -1.364601 -1.361415 -1.359583 -1.359075 -1.359854 -1.361877 -1.365096 -1.369457 -1.374905 -1.381379 -1.388817 -1.397157 -1.406334 -1.416282 -1.426936 -1.438231 -1.450104 -1.462490 -1.475330 -1.488563 -1.502132 -1.515981 -1.530058 -1.544311 -1.558694 -1.573159 -1.587661 -1.602152 -1.616579 -1.630882 -1.644995 -1.658839 -1.672329 -1.685368 -1.697854 -1.709676 -1.720720 -1.730866 -1.739995 -1.747988 -1.754728 -1.760106 -1.764015 -1.766362 -1.767066 -1.766062 -1.763307 -1.758778 -1.752480 -1.744439 -1.734710 -1.723366 -1.710506 -1.696247 -1.680724 -1.664088 -1.646500 -1.628129 -1.609151 -1.589746 -1.570092 -1.550365 -1.530737 -1.511374 -1.492432 -1.474060 -1.456393 -1.439556 -1.423660 -1.408806 -1.395079 -1.382551 -1.371283 -1.361321 -1.352700 -1.345443 -1.339562 -1.335057 -1.331921 -1.330135 -1.329673 -1.330504 -1.332587 -1.335878 -1.340326 -1.345876 -1.352472 -1.360052 -1.368555 -1.377917 -1.388072 -1.398956 -1.410505 -1.422653 -1.435337 -1.448495 -1.462068 -1.475995 -1.490222 -1.504693 -1.519357 -1.534165 -1.549069 -1.564026 -1.578987 -1.593904 -1.608723 -1.623380 -1.637805 -1.651916 -1.665625 -1.678832 -1.691431 -1.703311 -1.714355 -1.724444 -1.733459 -1.741281 -1.747796 -1.752897 -1.756481 -1.758456 -1.758738 -1.757257 -1.753952 -1.748776 -1.741693 -1.732681 -1.721731 -1.708846 -1.694042 -1.677344 -1.658792 -1.638434 -1.616326 -1.592535 -1.567135 -1.540207 -1.511836 -1.482114 -1.451136 -1.419001 -1.385809 -1.351661 -1.316661 -1.280911 -1.244512 -1.207566 -1.170170 -1.132422 -1.094415 -1.056245 -1.018006 -0.979795 -0.941712 -0.903858 -0.866341 -0.829272 -0.792760 -0.756920 -0.721867 -0.687713 -0.654573 -0.622555 -0.591766 -0.562303 -0.534262 -0.507728 -0.482778 -0.459480 -0.437893 -0.418066 -0.400036 -0.383834 -0.369476 -0.356970 -0.346315 -0.337499 -0.330503 -0.325298 -0.321849 -0.320111 -0.320036 -0.321569 -0.324648 -0.329210 -0.335185 -0.342503 -0.351090 -0.360870 -0.371767 -0.383703 -0.396602 -0.410386 -0.424979 -0.440306 -0.456293 -0.472869 -0.489965 -0.507513 -0.525448 -0.543709 -0.562236 -0.580973 -0.599867 -0.618867 -0.637927 -0.657001 -0.676050 -0.695033 -0.713916 -0.732662 -0.751234 -0.769593 -0.787696 -0.805493 -0.822932 -0.839951 -0.856488 -0.872475 -0.887839 -0.902506 -0.916401 -0.929446 -0.941568 -0.952695 -0.962759 -0.971696 -0.979453 -0.985984 -0.991259 -0.995259 -0.997981 -0.999439 -0.999662 -0.998696 -0.996600 -0.993445 -0.989315 -0.984302 -0.978510 -0.972046 -0.965023 -0.957554 -0.949755 -0.941740 -0.933621 -0.925505 -0.917497 -0.909692 -0.902182 -0.895048 -0.888368 -0.882207 -0.876624 -0.871671 -0.867389 -0.863811 -0.860965 -0.858869 -0.857533 -0.856963 -0.857158 -0.858108 -0.859802 -0.862222 -0.865346 -0.869148 -0.873600 -0.878669 -0.884322 -0.890523 -0.897235 -0.904419 -0.912037 -0.920050 -0.928418 -0.937102 -0.946065 -0.955268 -0.964676 -0.974252 -0.983963 -0.993776 -1.003659 -1.013583 -1.023520 -1.033443 -1.043324 -1.053135 -1.062843 -1.072410 -1.081796 -1.090950 -1.099819 -1.108341 -1.116449 -1.124077 -1.131151 -1.137596 -1.143338 -1.148302 -1.152415 -1.155609 -1.157819 -1.158988 -1.159068 -1.158023 -1.155831 -1.152483 -1.147987 -1.142368 -1.135664 -1.127933 -1.119239 -1.109664 -1.099296 -1.088237 -1.076591 -1.064471 -1.051989 -1.039262 -1.026403 -1.013527 -1.000741 -0.988151 -0.975856 -0.963948 -0.952513 -0.941628 -0.931363 -0.921779 -0.912929 -0.904856 -0.897597 -0.891180 -0.885624 -0.880943 -0.877141 -0.874218 -0.872167 -0.870975 -0.870625 -0.871095 -0.872357 -0.874384 -0.877141 -0.880594 -0.884706 -0.889437 -0.894749 -0.900600 -0.906948 -0.913753 -0.920973 -0.928568 -0.936498 -0.944722 -0.953204 -0.961906 -0.970793 -0.979831 -0.988986 -0.998230 -1.007531 -1.016861 -1.026190 -1.035484 -1.044706 -1.053815 -1.062762 -1.071493 -1.079947 -1.088058 -1.095756 -1.102969 -1.109622 -1.115636 -1.120935 -1.125445 -1.129093 -1.131811 -1.133537 -1.134219 -1.133816 -1.132298 -1.129651 -1.125878 -1.120997 -1.115039 -1.108056 -1.100109 -1.091273 -1.081633 -1.071285 -1.060332 -1.048881 -1.037044 -1.024934 -1.012665 -1.000349 -0.988094 -0.976005 -0.964181 -0.952714 -0.941692 -0.931193 -0.921287 -0.912036 -0.903495 -0.895709 -0.888717 -0.882546 -0.877219 -0.872750 -0.869147 -0.866409 -0.864530 -0.863501 -0.863304 -0.863918 -0.865319 -0.867477 -0.870362 -0.873938 -0.878169 -0.883018 -0.888444 -0.894408 -0.900868 -0.907784 -0.915116 -0.922821 -0.930861 -0.939196 -0.947789 -0.956603 -0.965601 -0.974751 -0.984019 -0.993375 -1.002789 -1.012232 -1.021675 -1.031086 -1.040428 -1.049661 -1.058737 -1.067605 -1.076205 -1.084472 -1.092337 -1.099727 -1.106569 -1.112784 -1.118297 -1.123032 -1.126917 