0.00000000000000001701 0.00000000000000000000 0.00000000000000005442 
0.00000000000000003386 0.00000000000000000000 -0.00000000000000000680 
-0.00000000000000004423 0.00000000000000010885 0.00000000000000000000 
-0.00000000000000016009 0.00000000000000000000 -0.00000000000000001361 
0.00000000000000001323 -0.00000000000000010885 0.00000000000000005442 
-0.00000000000000001066 0.00000000000000000000 -0.00000000000000004082 
-0.00000000000000001048 0.00000000000000005442 -0.00000000000000005442 
-0.00000000000000005900 -0.00000000000000016327 -0.00000000000000009524 
-0.00000000000000007195 0.00000000000000005442 -0.00000000000000007483 
-0.00000000000000010511 0.00000000000000000000 -0.00000000000000002041 
-0.00000000000000000464 0.00000000000000000000 -0.00000000000000004082 
-0.00000000000000008424 0.00000000000000000000 -0.00000000000000009524 
0.00000000000000006780 -0.00000000000000010885 0.00000000000000001361 
0.00000000000000003981 -0.00000000000000005442 0.00000000000000000000 
-0.00000000000000002659 0.00000000000000005442 -0.00000000000000005442 
0.00000000000000000199 0.00000000000000005442 -0.00000000000000004082 
-0.00000000000000000558 0.00000000000000005442 0.00000000000000002721 
-0.00000000000000005034 0.00000000000000005442 0.00000000000000001361 
-0.00000000000000004445 -0.00000000000000005442 -0.00000000000000000680 
-0.00000000000000012902 -0.00000000000000005442 -0.00000000000000003401 
0.00000000000000007840 0.00000000000000005442 -0.00000000000000006803 
0.00000000000000002495 0.00000000000000000000 0.00000000000000000680 
-0.00000000000000000921 -0.00000000000000005442 -0.00000000000000008164 
0.00000000000000010839 0.00000000000000005442 0.00000000000000004082 
0.00000000000000007574 0.00000000000000000000 -0.00000000000000008164 
0.00000000000000001594 -0.00000000000000010885 -0.00000000000000001361 
0.00000000000000002539 0.00000000000000005442 -0.00000000000000006803 
0.00000000000000001304 0.00000000000000000000 -0.00000000000000001361 
0.00000000000000000976 0.00000000000000010885 0.00000000000000000680 
-0.00000000000000004451 0.00000000000000005442 0.00000000000000002721 
0.00000000000000008297 0.00000000000000005442 0.00000000000000000000 
-0.00000000000000002027 -0.00000000000000005442 -0.00000000000000008164 
0.00000000000000008110 -0.00000000000000005442 -0.00000000000000002041 
0.00000000000000007660 0.00000000000000005442 0.00000000000000006803 
0.00000000000000010314 0.00000000000000005442 0.00000000000000000680 
-0.00000000000000001066 -0.00000000000000005442 0.00000000000000000000 
0.00000000000000003789 0.00000000000000005442 0.00000000000000004082 
-0.00000000000000006158 0.00000000000000000000 0.00000000000000004082 
0.00000000000000004998 -0.00000000000000010885 -0.00000000000000004082 
-0.00000000000000002615 -0.00000000000000005442 -0.00000000000000002721 
-0.00000000000000006815 0.00000000000000005442 -0.00000000000000007483 
-0.00000000000000004935 0.00000000000000005442 0.00000000000000005442 
0.00000000000000004601 -0.00000000000000005442 -0.00000000000000007143 
-0.00000000000000006684 0.00000000000000005442 0.00000000000000001020 
0.00000000000000009700 0.00000000000000000000 -0.00000000000000006463 
-0.00000000000000002804 0.00000000000000010885 -0.00000000000000000340 
0.00000000000000002369 0.00000000000000000000 -0.00000000000000002721 
0.00000000000000000316 -0.00000000000000005442 0.00000000000000000000 
-0.00000000000000000922 0.00000000000000000000 0.00000000000000002041 
0.00000000000000000609 0.00000000000000016327 -0.00000000000000005102 
0.00000000000000000708 -0.00000000000000010885 0.00000000000000001361 
-0.00000000000000006840 -0.00000000000000005442 0.00000000000000006123 
-0.00000000000000004074 0.00000000000000016327 -0.00000000000000004422 
-0.00000000000000011095 0.00000000000000010885 0.00000000000000002721 
-0.00000000000000003619 0.00000000000000005442 0.00000000000000005782 
0.00000000000000005896 0.00000000000000005442 -0.00000000000000002041 
0.00000000000000003959 0.00000000000000005442 0.00000000000000003742 
0.00000000000000004690 0.00000000000000016327 0.00000000000000003742 
-0.00000000000000000360 0.00000000000000000000 0.00000000000000002041 
-0.00000000000000003714 0.00000000000000005442 -0.00000000000000007823 
0.00000000000000002263 -0.00000000000000016327 -0.00000000000000000680 
-0.00000000000000007576 0.00000000000000010885 -0.00000000000000008844 
0.00000000000000004640 0.00000000000000010885 -0.00000000000000004762 
0.00000000000000001476 0.00000000000000000000 -0.00000000000000007823 
0.00000000000000007575 -0.00000000000000005442 -0.00000000000000002721 
-0.00000000000000006242 0.00000000000000005442 0.00000000000000009864 
-0.00000000000000002849 0.00000000000000010885 0.00000000000000000680 
-0.00000000000000001730 0.00000000000000010885 -0.00000000000000006633 
0.00000000000000012308 0.00000000000000005442 -0.00000000000000006973 
0.00000000000000006262 0.00000000000000010885 -0.00000000000000002041 
-0.00000000000000005497 0.00000000000000000000 -0.00000000000000005102 
-0.00000000000000006592 -0.00000000000000016327 -0.00000000000000013606 
-0.00000000000000002279 0.00000000000000016327 -0.00000000000000011225 
-0.00000000000000001998 0.00000000000000010885 -0.00000000000000001531 
-0.00000000000000002595 0.00000000000000000000 0.00000000000000002041 
-0.00000000000000012817 0.00000000000000000000 -0.00000000000000005442 
0.00000000000000002604 0.00000000000000010885 -0.00000000000000004082 
-0.00000000000000011452 0.00000000000000000000 -0.00000000000000009694 
-0.00000000000000001611 0.00000000000000005442 0.00000000000000002551 
-0.00000000000000000264 0.00000000000000005442 -0.00000000000000004422 
-0.00000000000000005415 0.00000000000000005442 -0.00000000000000002721 
-0.00000000000000015512 0.00000000000000005442 0.00000000000000009864 
-0.00000000000000007681 0.00000000000000000000 -0.00000000000000000680 
-0.00000000000000000928 0.00000000000000000000 -0.00000000000000005442 
-0.00000000000000003679 0.00000000000000016327 -0.00000000000000001020 
0.00000000000000002853 0.00000000000000010885 0.00000000000000004252 
-0.00000000000000011533 -0.00000000000000010885 -0.00000000000000006973 
0.00000000000000003414 0.00000000000000010885 -0.00000000000000005697 
-0.00000000000000000987 0.00000000000000010885 -0.00000000000000002211 
0.00000000000000006108 0.00000000000000000000 -0.00000000000000000680 
-0.00000000000000002782 -0.00000000000000010885 -0.00000000000000007398 
-0.00000000000000000871 0.00000000000000005442 -0.00000000000000005442 
0.00000000000000001834 0.00000000000000000000 -0.00000000000000006548 
-0.00000000000000003076 0.00000000000000005442 -0.00000000000000002466 
-0.00000000000000000335 0.00000000000000010885 -0.00000000000000001701 
-0.00000000000000002004 0.00000000000000010885 -0.00000000000000009439 
0.00000000000000008563 0.00000000000000005442 -0.00000000000000000340 
-0.00000000000000006729 0.00000000000000016327 0.00000000000000000850 
-0.00000000000000005150 0.00000000000000010885 -0.00000000000000007483 
-0.00000000000000003939 0.00000000000000005442 -0.00000000000000005017 
0.00000000000000005100 -0.00000000000000005442 -0.00000000000000005187 
-0.00000000000000006141 0.00000000000000016327 0.00000000000000002891 
0.00000000000000000015 0.00000000000000010885 0.00000000000000006378 
-0.00000000000000008329 0.00000000000000000000 -0.00000000000000009779 
0.00000000000000002419 0.00000000000000010885 -0.00000000000000001786 
0.00000000000000003970 0.00000000000000010885 -0.00000000000000000638 
0.00000000000000002248 0.00000000000000010885 0.00000000000000001020 
0.00000000000000003457 0.00000000000000016327 0.00000000000000000000 
0.00000000000000010063 0.00000000000000000000 -0.00000000000000010545 
0.00000000000000001486 0.00000000000000016327 0.00000000000000004379 
-0.00000000000000001131 0.00000000000000010885 -0.00000000000000009226 
-0.00000000000000001422 0.00000000000000005442 0.00000000000000002041 
0.00000000000000009111 -0.00000000000000005442 -0.00000000000000005570 
-0.00000000000000000563 0.00000000000000005442 -0.00000000000000001871 
0.00000000000000003605 0.00000000000000000000 -0.00000000000000002764 
-0.00000000000000003537 0.00000000000000016327 0.00000000000000004592 
0.00000000000000004815 0.00000000000000016327 -0.00000000000000005442 
0.00000000000000002151 0.00000000000000016327 -0.00000000000000000850 
-0.00000000000000006104 0.00000000000000005442 -0.00000000000000000043 
0.00000000000000002315 0.00000000000000000000 0.00000000000000000383 
0.00000000000000009941 0.00000000000000000000 -0.00000000000000003231 
0.00000000000000006890 0.00000000000000010885 0.00000000000000007398 
-0.00000000000000002858 0.00000000000000010885 -0.00000000000000003338 
-0.00000000000000005397 0.00000000000000010885 -0.00000000000000005315 
0.00000000000000016068 0.00000000000000016327 -0.00000000000000006930 
0.00000000000000003599 0.00000000000000010885 -0.00000000000000001127 
-0.00000000000000003796 0.00000000000000005442 0.00000000000000000531 
0.00000000000000002318 0.00000000000000000000 -0.00000000000000006633 
0.00000000000000009156 0.00000000000000005442 -0.00000000000000006654 
0.00000000000000003679 0.00000000000000021769 -0.00000000000000001913 
0.00000000000000008625 0.00000000000064698658 -0.00000000000000004103 
-0.00000000000000006033 0.00000000721390678579 0.00000000000000003061 
0.00000000000000012097 0.00000020717801741250 -0.00000000000000005655 
0.00000000000000002936 0.00000166741839754921 -0.00000000000000007760 
0.00000000000000001600 0.00000750888188155635 -0.00000000000000005942 
-0.00000000000000001578 0.00002420444768173207 -0.00000000000000002519 
-0.00000000000000000329 0.00006275750687573267 -0.00000000000000007483 
-0.00000000000000001462 0.00013961598586299619 -0.00000000000000002998 
-0.00000000000000003015 0.00027725110079241034 -0.00000000000000006590 
-0.00000000000000000394 0.00050438185824108468 -0.00000000000000005410 
0.00000000000000006522 0.00085586106640599710 -0.00000000000000013383 
0.00000000000000004577 0.00137226054535555426 0.00000000000000008089 
0.00000000000000012204 0.00209920562027491849 -0.00000000000000006984 
0.00000000000000006401 0.00308651444368311916 -0.00000000000000008621 
0.00000000000000010139 0.00438719824807005943 0.00000000000000002657 
0.00000000000000005909 0.00605637584640885372 0.00000000000000003455 
-0.00000000000000010481 0.00815015077170325695 0.00000000000000001765 
-0.00000000000000000883 0.01072449327957276585 -0.00000000000000004124 
0.00000000000000005298 0.01383416269619595559 -0.00000000000000009067 
0.00000000000000009121 0.01753169875857946841 -0.00000000000000004619 
-0.00000000000000003306 0.02186650400103938574 -0.00000000000000011278 
0.00000000000000012004 0.02688403311453530994 -0.00000000000000008445 
0.00000000000000008057 0.03262509968192975340 -0.00000000000000010167 
-0.00000000000000002029 0.03912530584550371476 0.00000000000000001281 
-0.00000000000000001316 0.04641459631856528073 -0.00000000000000004236 
0.00000000000000003860 0.05451693470182274875 -0.00000000000000005060 
0.00000000000000015385 0.06345009727451099424 -0.00000000000000013383 
-0.00000000000000002393 0.07322557725149517194 -0.00000000000000002615 
0.00000000000000009693 0.08384859087269247446 -0.00000000000000002030 
0.00000000000000001800 0.09531817555728937241 -0.00000000000000014063 
0.00000000000000019539 0.10762736964831802478 -0.00000000000000011416 
0.00000000000000004602 0.12076346293033124457 0.00000000000000003587 
-0.00000000000000000299 0.13470830706439521074 -0.00000000000000004480 
0.00000000000000000278 0.14943867529473728317 -0.00000000000000009739 
0.00000000000000012279 0.16492666118948529075 -0.00000000000000011087 
0.00000000000000000839 0.18114010673849337274 -0.00000000000000011905 
0.00000000000000003199 0.19804305080421899521 -0.00000000000000011384 
0.00000000000000010530 0.21559618967210189555 -0.00000000000000011592 
0.00000000000000006576 0.23375734224512520476 -0.00000000000000012591 
0.00000000000000007458 0.25248191324806740221 -0.00000000000000005798 
0.00000000000000004466 0.27172334862964658830 -0.00000000000000013590 
-0.00000000000000000383 0.29143357815841020031 -0.00000000000000009625 
-0.00000000000000001485 0.31156344098755450744 -0.00000000000000016736 
0.00000000000000008434 0.33206309070455802823 -0.00000000000000008081 
0.00000000000000006992 0.35288237707605762949 -0.00000000000000008419 
0.00000000000000004939 0.37397120234154618279 -0.00000000000000010321 
0.00000000000000012530 0.39527985049792907501 -0.00000000000000005363 
0.00000000000000001778 0.41675928854915972321 -0.00000000000000012223 
0.00000000000000004279 0.43836143917078385090 -0.00000000000000005934 
-0.00000000000000007234 0.46003942465911812354 -0.00000000000000002873 
0.00000000000000010361 0.48174778240066762347 -0.00000000000000007785 
0.00000000000000005828 0.50344265241163677072 -0.00000000000000005430 
-0.00000000000000002968 0.52508193776289080468 -0.00000000000000006062 
0.00000000000000007418 0.54662543892569681603 -0.00000000000000010155 
0.00000000000000016344 0.56803496325149849255 -0.00000000000000003351 
0.00000000000000009247 0.58927441093840615682 -0.00000000000000012269 
0.00000000000000003079 0.61030983894165058423 -0.00000000000000008563 
0.00000000000000001956 0.63110950435851154161 -0.00000000000000008574 
0.00000000000000011051 0.65164388886369817300 -0.00000000000000013776 
0.00000000000000000343 0.67188570579216844170 -0.00000000000000006666 
0.00000000000000006135 0.69180989146610316620 -0.00000000000000008247 
0.00000000000000006732 0.71139357968214722572 -0.00000000000000012892 
0.00000000000000011160 0.73061595766238862648 -0.00000000000000014032 
0.00000000000000008613 0.74945763731038805844 0.00000000000000001392 
0.00000000000000005673 0.76789949335187424051 -0.00000000000000013858 
0.00000000000000001298 0.78592130199082987918 -0.00000000000000008788 
0.00000000000000011470 0.80350045228991695545 -0.00000000000000015002 
0.00000000000000003146 0.82061089411362020396 -0.00000000000000009439 
0.00000000000000002231 0.83722240731157759885 -0.00000000000000009291 
0.00000000000000006189 0.85330022102608860113 -0.00000000000000005670 
0.00000000000000011678 0.86880497414306367965 -0.00000000000000011334 
0.00000000000000010214 0.88369298362252235446 -0.00000000000000001890 
-0.00000000000000008546 0.89791677329013763753 0.00000000000000005315 
0.00000000000000001078 0.91142580892166480400 -0.00000000000000002914 
0.00000000000000004098 0.92416738397684949913 -0.00000000000000008145 
0.00000000000000006524 0.93608760248777089785 -0.00000000000000014196 
0.00000000000000004688 0.94713241011415083559 -0.00000000000000001622 
0.00000000000000009365 0.95724863028991447056 -0.00000000000000003323 
0.00000000000000000457 0.96638496916434113437 0.00000000000000002090 
-0.00000000000000004401 0.97449299373998643503 0.00000000000000003026 
-0.00000000000000000308 0.98152834205351513486 -0.00000000000000005040 
0.00000000000000004592 0.98745241081397894245 -0.00000000000000002156 
0.00000000000000008908 0.99223426145081428107 -0.00000000000000020781 
0.00000000000000002253 0.99585242143908270229 -0.00000000000000007795 
-0.00000000000000000361 0.99829637654877823039 0.00000000000000001570 
0.00000000000000007653 0.99956764345652959758 -0.00000000000000015687 
0.00000000000000002806 0.99968037938273557330 -0.00000000000000010611 
0.00000000000000008376 0.99866153206066865522 -0.00000000000000008474 
0.00000000000000000510 0.99655056422192911381 -0.00000000000000013162 
0.00000000000000005442 0.99339880574692696058 -0.00000000000000011517 
0.00000000000000004932 0.98926849674203187757 -0.00000000000000011242 
-0.00000000000000001020 0.98423158848330483117 0.00000000000000008301 
0.00000000000000000680 0.97836836830167617229 -0.00000000000000001228 
0.00000000000000001786 0.97176597054160929190 -0.00000000000000012594 
0.00000000000000008674 0.96451682982715369885 -0.00000000000000008293 
0.00000000000000010204 0.95671712586283852442 -0.00000000000000002168 
-0.00000000000000000680 0.94846526150994636684 -0.00000000000000013700 
0.00000000000000004252 0.93986040836545103883 -0.00000000000000007353 
0.00000000000000003572 0.93100114684946266852 -0.00000000000000023229 
0.00000000000000006463 0.92198422108962685417 -0.00000000000000005470 
-0.00000000000000000680 0.91290342280874647862 -0.00000000000000005369 
0.00000000000000001020 0.90384861304462760234 -0.00000000000000006917 
0.00000000000000001361 0.89490488588295324934 -0.00000000000000008293 
0.00000000000000003401 0.88615187445591903082 0.00000000000000005065 
-0.00000000000000007143 0.87766319621946653484 -0.00000000000000011289 
0.00000000000000003401 0.86950603192266895380 -0.00000000000000004200 
0.00000000000000000000 0.86174083066734230574 -0.00000000000000011089 
0.00000000000000008504 0.85442113196233326899 -0.00000000000000002786 
-0.00000000000000008504 0.84759349464179056799 -0.00000000000000005411 
-0.00000000000000003061 0.84129752187754258674 -0.00000000000000010335 
0.00000000000000001020 0.83556597121259013061 -0.00000000000000013065 
0.00000000000000006463 0.83042493851964160889 0.00000000000000005347 
-0.00000000000000004762 0.82589410499410531585 -0.00000000000000006703 
0.00000000000000000340 0.82198703667839945197 0.00000000000000002696 
0.00000000000000009864 0.81871152654249601532 -0.00000000000000005910 
0.00000000000000014286 0.81606996977777102042 0.00000000000000004225 
-0.00000000000000005442 0.81405976366605203864 -0.00000000000000007700 
0.00000000000000017688 0.81267372413620464489 -0.00000000000000007920 
0.00000000000000002721 0.81190051189405965104 0.00000000000000006570 
-0.00000000000000000680 0.81172506178908865326 -0.00000000000000002200 
-0.00000000000000004762 0.81212900984774261115 -0.00000000000000005618 
0.00000000000000000680 0.81309111314655468927 -0.00000000000000003421 
-0.00000000000000004762 0.81458765840857261242 -0.00000000000000005466 
0.00000000000000007483 0.81659285587736551992 -0.00000000000000005126 
-0.00000000000000002721 0.81907921564878194420 -0.00000000000000007980 
0.00000000000000004762 0.82201790421856324453 -0.00000000000000004310 
0.00000000000000002721 0.82537907953209066481 -0.00000000000000002197 
0.00000000000000016327 0.82913220330039427708 0.00000000000000001882 
-0.00000000000000010885 0.83324632977453938487 0.00000000000000002768 
0.00000000000000016327 0.83769037054982531387 -0.00000000000000000448 
0.00000000000000003401 0.84243333530375019702 -0.00000000000000011837 
0.00000000000000004082 0.84744454865971219348 0.00000000000000002265 
-0.00000000000000000680 0.85269384361456013188 -0.00000000000000007986 
0.00000000000000009524 0.85815173217526807825 -0.00000000000000000832 
-0.00000000000000003401 0.86378955402115176199 -0.00000000000000007056 
0.00000000000000004762 0.86957960414627011314 0.00000000000000005980 
-0.00000000000000007483 0.87549524054496397074 -0.00000000000000003120 
-0.00000000000000006123 0.88151097308491299653 -0.00000000000000001493 
0.00000000000000004762 0.88760253474857753186 -0.00000000000000009331 
0.00000000000000001361 0.89374691977023068556 0.00000000000000010823 
-0.00000000000000000680 0.89992217112080141739 0.00000000000000001997 
-0.00000000000000000680 0.90610658545995981239 0.00000000000000002472 
0.00000000000000016327 0.91227750385672068401 0.00000000000000003374 
0.00000000000000005442 0.91841002314662900652 0.00000000000000016348 
0.00000000000000006803 0.92447585312158842008 0.00000000000000007853 
0.00000000000000004082 0.93044244847427626244 -0.00000000000000007941 
0.00000000000000001361 0.93627247536998847721 0.00000000000000003770 
0.00000000000000002721 0.94192362451280253755 -0.00000000000000000524 
-0.00000000000000006803 0.94734875063437340437 0.00000000000000000790 
0.00000000000000002721 0.95249629849480699217 0.00000000000000002091 
0.00000000000000000000 0.95731096460296927209 0.00000000000000008874 
-0.00000000000000008164 0.96173453946702236461 0.00000000000000010279 
-0.00000000000000008164 0.96570687534894261717 0.00000000000000008110 
0.00000000000000010885 0.96916692773337398403 0.00000000000000003024 
0.00000000000000010885 0.97205382389944006150 0.00000000000000002260 
0.00000000000000008164 0.97430791842648334367 0.00000000000000010581 
-0.00000000000000002721 0.97587183611276662187 0.00000000000000002152 
0.00000000000000012245 0.97669175737857505393 -0.00000000000000005369 
0.00000000000000012245 0.97671918807421820308 -0.00000000000000004546 
0.00000000000000004082 0.97591295151273949049 0.00000000000000014639 
-0.00000000000000009524 0.97424107686644501047 -0.00000000000000002948 
0.00000000000000013606 0.97168237726366102347 -0.00000000000000000275 
0.00000000000000005442 0.96822760512524830290 -0.00000000000000015032 
-0.00000000000000002721 0.96388013989611343035 0.00000000000000006633 
0.00000000000000002721 0.95865621033161463327 -0.00000000000000007281 
0.00000000000000008164 0.95258468470233204073 -0.00000000000000000606 
0.00000000000000005442 0.94570648153255243429 0.00000000000000006379 
0.00000000000000010885 0.93807366384955070959 0.00000000000000006898 
0.00000000000000008164 0.92974828380986951348 0.00000000000000003316 
0.00000000000000008164 0.92080104387851757775 0.00000000000000008841 
0.00000000000000000000 0.91130983693555733804 0.00000000000000000910 
0.00000000000000005442 0.90135822189730518961 0.00000000000000002914 
0.00000000000000000000 0.89103388451662768333 0.00000000000000016837 
0.00000000000000010885 0.88042712559962577057 0.00000000000000008359 
0.00000000000000016327 0.86962941140175564758 0.00000000000000004832 
0.00000000000000016327 0.85873201376626639991 0.00000000000000004368 
-0.00000000000000010885 0.84782476085691149681 0.00000000000000005041 
0.00000000000000005442 0.83699491324894204070 0.00000000000000008166 
0.00000000000000016327 0.82632617474955361025 0.00000000000000003487 
0.00000000000000016327 0.81589784264742937214 0.00000000000000009790 
0.00000000000000005442 0.80578409813384743732 0.00000000000000001928 
0.00000000000000027212 0.79605343436451336814 0.00000000000000012054 
0.00000000000000000000 0.78676821699586230174 0.00000000000000001813 
0.00000000000000021769 0.77798436997623954259 0.00000000000000006030 
0.00000000000000005442 0.76975117784031443779 0.00000000000000007635 
0.00000000000000010885 0.76211119468163035506 0.00000000000000008742 
0.00000000000000000000 0.75510024930155439371 -0.00000000000000000747 
0.00000000000000005442 0.74874753569364371764 0.00000000000000005831 
0.00000000000000010885 0.74307577796500934308 0.00000000000000002527 
0.00000000000000010885 0.73810145896935386300 0.00000000000000006950 
0.00000000000000005442 0.73383510228374215778 -0.00000000000000001034 
0.00000000000000021769 0.73028159766140454678 0.00000000000000002643 
-0.00000000000000010885 0.72744056069973950240 0.00000000000000007029 
0.00000000000000005442 0.72530671814454239499 0.00000000000000011252 
0.00000000000000010885 0.72387031098145704355 -0.00000000000000003682 
0.00000000000000010885 0.72311750822087905721 0.00000000000000009227 
0.00000000000000000000 0.72303082504421434251 -0.00000000000000008408 
0.00000000000000016327 0.72358953973203665733 0.00000000000000004864 
0.00000000000000005442 0.72477010452604717639 0.00000000000000003234 
0.00000000000000021769 0.72654654627718762150 0.00000000000000010612 
-0.00000000000000010885 0.72889085339467873936 0.00000000000000005116 
0.00000000000000016327 0.73177334622996148550 0.00000000000000001516 
0.00000000000000010885 0.73516302860217752624 -0.00000000000000001479 
0.00000000000000000000 0.73902791869598849495 0.00000000000000010111 
0.00000000000000010885 0.74333535803756267679 0.00000000000000007953 
0.00000000000000021769 0.74805229768069858576 0.00000000000000002220 
0.00000000000000021769 0.75314556111347552569 -0.00000000000000002527 
0.00000000000000010885 0.75858208372818347609 0.00000000000000005442 
0.00000000000000010885 0.76432912898585059214 0.00000000000000004364 
0.00000000000000021769 0.77035448165393949349 0.00000000000000000452 
0.00000000000000000000 0.77662661870453308932 0.00000000000000003632 
0.00000000000000021769 0.78311485863349350467 0.00000000000000013028 
0.00000000000000000000 0.78978949010159993360 0.00000000000000007237 
0.00000000000000021769 0.79662188090958163666 0.00000000000000004285 
0.00000000000000005442 0.80358456840315228842 0.00000000000000004791 
0.00000000000000016327 0.81065133244355580544 0.00000000000000005863 
0.00000000000000005442 0.81779723542848303808 0.00000000000000000877 
0.00000000000000010885 0.82499841177628330247 0.00000000000000005411 
0.00000000000000000000 0.83223127495668614007 0.00000000000000011449 
0.00000000000000005442 0.83947131033613553441 0.00000000000000006801 
-0.00000000000000005442 0.84669178867564454105 0.00000000000000007741 
0.00000000000000005442 0.85386262545000424229 0.00000000000000002331 
-0.00000000000000005442 0.86094951488592841304 0.00000000000000005538 
0.00000000000000000000 0.86791339857034988103 0.00000000000000005842 
0.00000000000000016327 0.87471028047678633932 -0.00000000000000006717 
0.00000000000000010885 0.88129136832160848147 -0.00000000000000006893 
-0.00000000000000005442 0.88760350132557597203 -0.00000000000000006984 
0.00000000000000005442 0.89358981357614453156 0.00000000000000007232 
-0.00000000000000005442 0.89919057779160460608 0.00000000000000002634 
0.00000000000000005442 0.90434417445301595873 0.00000000000000005503 
0.00000000000000021769 0.90898813450835636019 0.00000000000000001210 
0.00000000000000027212 0.91306020903322104854 0.00000000000000014516 
0.00000000000000000000 0.91649942550434970734 0.00000000000000009271 
0.00000000000000005442 0.91924709974304186222 0.00000000000000002068 
-0.00000000000000005442 0.92124787992098411404 -0.00000000000000009319 
0.00000000000000010885 0.92245116990044362382 0.00000000000000007799 
0.00000000000000000000 0.92281296735218443228 0.00000000000000005156 
0.00000000000000010885 0.92229777532441836740 -0.00000000000000010337 
0.00000000000000010885 0.92088031194995789708 0.00000000000000001036 
0.00000000000000010885 0.91854685523653112345 0.00000000000000001918 
0.00000000000000010885 0.91529614224455813076 0.00000000000000009679 
0.00000000000000005442 0.91113980029761343360 0.00000000000000009017 
0.00000000000000005442 0.90610232768412113380 -0.00000000000000006470 
0.00000000000000027212 0.90022066700190284116 -0.00000000000000003761 
0.00000000000000010885 0.89354342938726161183 -0.00000000000000003357 
0.00000000000000010885 0.88612983514550125452 0.00000000000000006080 
0.00000000000000021769 0.87804843795357268021 0.00000000000000015159 
0.00000000000000010885 0.86937569754812249467 0.00000000000000001702 
0.00000000000000000000 0.86019446096294605031 -0.00000000000000009567 
0.00000000000000016327 0.85059240594358931364 -0.00000000000000002044 
0.00000000000000005442 0.84066049289695554680 -0.00000000000000005145 
0.00000000000000010885 0.83049146418361274868 0.00000000000000002927 
0.00000000000000010885 0.82017842212583758066 0.00000000000000000924 
0.00000000000000000000 0.80981351005774371288 0.00000000000000002134 
0.00000000000000016327 0.79948671426236928017 0.00000000000000002995 
0.00000000000000010885 0.78928479882875302032 0.00000000000000005383 
0.00000000000000000000 0.77929038036968756309 0.00000000000000004950 
0.00000000000000016327 0.76958114517751863293 -0.00000000000000002807 
0.00000000000000010885 0.76022920774195890115 -0.00000000000000010527 
0.00000000000000010885 0.75130060657130959267 0.00000000000000003746 
0.00000000000000010885 0.74285493089496723584 -0.00000000000000007438 
0.00000000000000010885 0.73494507002118791839 -0.00000000000000004658 
0.00000000000000021769 0.72761707581703338743 -0.00000000000000003120 
0.00000000000000016327 0.72091012790386765907 0.00000000000000003910 
0.00000000000000000000 0.71485659066011075780 0.00000000000000009419 
0.00000000000000010885 0.70948215093472377646 -0.00000000000000005536 
-0.00000000000000005442 0.70480602544579673552 -0.00000000000000006230 
0.00000000000000010885 0.70084122711909180303 0.00000000000000004253 
0.00000000000000010885 0.69759488006696224183 0.00000000000000003605 
0.00000000000000000000 0.69506857347926820356 -0.00000000000000000500 
0.00000000000000005442 0.69325874536034193252 0.00000000000000008216 
0.00000000000000010885 0.69215708777001760943 -0.00000000000000003911 
0.00000000000000010885 0.69175096598703667006 -0.00000000000000006367 
0.00000000000000000000 0.69202384478866973971 0.00000000000000002466 
0.00000000000000000000 0.69295571581378068160 -0.00000000000000000657 
0.00000000000000021769 0.69452352073379153286 0.00000000000000000903 
0.00000000000000010885 0.69670156568605412506 -0.00000000000000012580 
0.00000000000000010885 0.69946192311851618229 0.00000000000000005211 
0.00000000000000016327 0.70277481784713535795 -0.00000000000000004335 
0.00000000000000016327 0.70660899473395233361 0.00000000000000006475 
0.00000000000000005442 0.71093206595148072946 0.00000000000000006341 
0.00000000000000010885 0.71571083630681520127 0.00000000000000005809 
0.00000000000000010885 0.72091160555649902442 0.00000000000000007662 
0.00000000000000010885 0.72650044705143645984 -0.00000000000000000805 
0.00000000000000000000 0.73244346241153457377 0.00000000000000005003 
0.00000000000000005442 0.73870701224426638110 -0.00000000000000003529 
0.00000000000000005442 0.74525792319249684059 -0.00000000000000004375 
0.00000000000000016327 0.75206367182735545107 0.00000000000000008073 
0.00000000000000000000 0.75909254609465326435 -0.00000000000000000541 
0.00000000000000016327 0.76631378518132686750 -0.00000000000000006287 
0.00000000000000000000 0.77369769879469540985 -0.00000000000000004134 
0.00000000000000010885 0.78121576694497663063 0.00000000000000001061 
0.00000000000000005442 0.78884072139347527486 -0.00000000000000005179 
0.00000000000000016327 0.79654660918210828946 0.00000000000000002731 
0.00000000000000010885 0.80430877721674431946 -0.00000000000000000066 
0.00000000000000016327 0.81210344372633136434 -0.00000000000000000833 
0.00000000000000000000 0.81990669412268446514 -0.00000000000000000366 
0.00000000000000010885 0.82769320513258615168 0.00000000000000005542 
0.00000000000000000000 0.83543499319965330852 -0.00000000000000002889 
0.00000000000000027212 0.84310037012656802169 0.00000000000000000605 
0.00000000000000000000 0.85065320436467517506 0.00000000000000001015 
0.00000000000000010885 0.85805252639694440386 -0.00000000000000005286 
0.00000000000000010885 0.86525247561792040241 0.00000000000000008703 
-0.00000000000000005442 0.87220255944224434064 0.00000000000000009331 
0.00000000000000000000 0.87884817945406668027 0.00000000000000010052 
0.00000000000000000000 0.88513137138564734752 0.00000000000000006329 
0.00000000000000000000 0.89099170334545751970 0.00000000000000002291 
0.00000000000000016327 0.89636727826562245802 0.00000000000000004073 
0.00000000000000016327 0.90119579067077637546 0.00000000000000013656 
0.00000000000000010885 0.90541559357403667008 -0.00000000000000000565 
0.00000000000000005442 0.90896673782745496251 -0.00000000000000000327 
0.00000000000000016327 0.91179195304452742565 0.00000000000000003715 
0.00000000000000005442 0.91383754588187682266 0.00000000000000003506 
0.00000000000000005442 0.91505419775118923553 0.00000000000000008549 
0.00000000000000000000 0.91539764976177895317 0.00000000000000011170 
0.00000000000000000000 0.91482926777202799862 -0.00000000000000008537 
0.00000000000000005442 0.91331648481179061871 0.00000000000000009691 
0.00000000000000010885 0.91083312182423004089 -0.00000000000000009001 
0.00000000000000005442 0.90735959068886795631 0.00000000000000003028 
0.00000000000000010885 0.90288298587093018810 0.00000000000000012149 
0.00000000000000005442 0.89739707285022940475 0.00000000000000009820 
0.00000000000000016327 0.89090218277716837214 -0.00000000000000005818 
0.00000000000000000000 0.88340502364781681166 0.00000000000000008537 
0.00000000000000010885 0.87491841874790987621 0.00000000000000004046 
0.00000000000000016327 0.86546098324815035063 -0.00000000000000003458 
0.00000000000000010885 0.85505674969758771464 0.00000000000000000220 
0.00000000000000016327 0.84373475281082244148 -0.00000000000000003631 
0.00000000000000010885 0.83152858342568358729 0.00000000000000003633 
0.00000000000000005442 0.81847592086309495230 0.00000000000000009507 
0.00000000000000010885 0.80461805218677884266 -0.00000000000000002296 
0.00000000000000000000 0.78999938606899944293 -0.00000000000000005126 
0.00000000000000005442 0.77466696814648594582 0.00000000000000000177 
0.00000000000000000000 0.75867000392038907997 0.00000000000000005680 
0.00000000000000000000 0.74205939443382817888 -0.00000000000000000886 
0.00000000000000005442 0.72488728916490741128 0.00000000000000012263 
0.00000000000000000000 0.70720665981331254368 -0.00000000000000003198 
0.00000000000000000000 0.68907089794326348287 0.00000000000000002490 
0.00000000000000016327 0.67053343878069437967 0.00000000000000003709 
0.00000000000000010885 0.65164741285200755705 -0.00000000000000000623 
0.00000000000000005442 0.63246532659773946339 0.00000000000000001110 
0.00000000000000000000 0.61303877259768624342 0.00000000017197912028 
0.00000000000000005442 0.59341816960397186786 0.00000003528659480933 
0.00000000000000005442 0.57365253219371270532 0.00000052531419708615 
0.00000000000000005442 0.55378926952117535354 0.00000320450577030564 
0.00000000000000000000 0.53387401236784548519 0.00001238119261229454 
-0.00000000000000010885 0.51395046745447492409 0.00003621151684329100 
-0.00000000000000010885 0.49406029778851828782 0.00008778483853311016 
0.00000000000000000000 0.47424302766980286350 0.00018590880476508279 
0.00000000000000005442 0.45453597086316982478 0.00035554640354417701 
0.00000000000000016327 0.43497418036551066534 0.00062790170098474371 
0.00000000000000005442 0.41559099117999676043 0.00104018013275938436 
0.00000000000000005442 0.39641709274241804239 0.00163506698046882843 
0.00000000000000016327 0.37747976564653040743 0.00245997700871458452 
0.00000000000000005442 0.35880489623616546035 0.00356613152282294786 
-0.00000000000000005442 0.34041612529539883036 0.00500751816134385394 
0.00000000000000005442 0.32233489307932133849 0.00683978497093962017 
0.00000000000000021769 0.30458049469808301524 0.00911911479486667356 
0.00000000000000010885 0.28717014441709848294 0.01190111954071360056 
0.00000000000000010885 0.27011904750984239154 0.01523978706513856585 
0.00000000000000016327 0.25344047837846311877 0.01918650664154739408 
0.00000000000000000000 0.23714586373991189405 0.02378919254840567571 
0.00000000000000000000 0.22124486975998072791 0.02909151941761629195 
0.00000000000000000000 0.20574549210333850646 0.03513227772378043484 
-0.00000000000000005442 0.19065414795327154107 0.04194485322846382147 
0.00000000000000000000 0.17597576913946741395 0.04955683032903851482 
0.00000000000000000000 0.16171389559503779321 0.05798971607968522735 
-0.00000000000000005442 0.14787076844445204427 0.06725877911270047860 
0.00000000000000000000 0.13444742210158230900 0.07737299573837300160 
0.00000000000000005442 0.12144377483127000161 0.08833509408089156023 
0.00000000000000016327 0.10885871729836432698 0.10014168615232961479 
0.00000000000000005442 0.09669019869483543028 0.11278347721288789485 
0.00000000000000016327 0.08493531009816890354 0.12624554155142425627 
0.00000000000000000000 0.07359036477269391419 0.14050765388765393271 
0.00000000000000010885 0.06265097517976869756 0.15554466589250987019 
0.00000000000000005442 0.05211212651283825964 0.17132691779739059323 
-0.00000000000000010885 0.04196824661933912237 0.18782067567305657518 
0.00000000000000016327 0.03221327221335927582 0.20498858566681063542 
0.00000000000000000000 0.02284071132095142481 0.22279013725948598745 
-0.00000000000000005442 0.01384370193421725036 0.24118212841379496614 
0.00000000000000000000 0.00521506688084962325 0.26011912630942968239 
0.00000000000000000000 -0.00305263505706834543 0.27955391817880059779 
0.00000000000000000000 -0.01096706171737741806 0.29943794755503944094 
0.00000000000000010885 -0.01853604374691935480 0.31972173200884346222 
0.00000000000000005442 -0.02576754430920197986 0.34035525917374237492 
0.00000000000000010885 -0.03266962219937594170 0.36128835853387147869 
0.00000000000000000000 -0.03925039824266362415 0.38247104706989648593 
0.00000000000000000000 -0.04551802484213180594 0.40385384742479812914 
0.00000000000000005442 -0.05148065853359862915 0.42538807776074449851 
0.00000000000000005442 -0.05714643539932397209 0.44702611293144584037 
0.00000000000000000000 -0.06252344918778771077 0.46872161699243031219 
0.00000000000000005442 -0.06761973198411716512 0.49042974741658990068 
0.00000000000000005442 -0.07244323727446817796 0.51210733167672684019 
0.00000000000000005442 -0.07700182524767244796 0.53371301710371898963 
-0.00000000000000010885 -0.08130325017866206483 0.55520739513165395795 
0.00000000000000005442 -0.08535514974037196334 0.57655310120336944468 
-0.00000000000000010885 -0.08916503609391679408 0.59771489173489278368 
0.00000000000000000000 -0.09274028861068402130 0.61865969962889166833 
0.00000000000000000000 -0.09608814808449801792 0.63935666988897743579 
0.00000000000000005442 -0.09921571229705407335 0.65977717692199400190 
-0.00000000000000010885 -0.10212993280532929596 0.67989482512755061716 
0.00000000000000000000 -0.10483761282553458183 0.69968543434520580337 
0.00000000000000005442 -0.10734540609430912039 0.71912699501478549724 
-0.00000000000000010885 -0.10965981659420392935 0.73819937577327643385 
0.00000000000000016327 -0.11178719903697198479 0.75688345182602767558 
0.00000000000000010885 -0.11373376000473463254 0.77515982256315463239 
0.00000000000000005442 -0.11550555965565643957 0.79300745341418932277 
0.00000000000000005442 -0.11710851390729984378 0.81040246722143860492 
0.00000000000000000000 -0.11854839701728897561 0.82731721410168457265 
0.00000000000000000000 -0.11983084448725714322 0.84371967968379124603 
0.00000000000000000000 -0.12096135622226050765 0.85957324357447417729 
0.00000000000000000000 -0.12194558804013844178 0.87483676793992526388 
0.00000000000000010885 -0.12278959490300130064 0.88946497622940901007 
0.00000000000000010885 -0.12349730882740457549 0.90340907116514612696 
0.00000000000000005442 -0.12407372615730487275 0.91661753670939705163 
0.00000000000000000000 -0.12452372509123044164 0.92903706886841819212 
0.00000000000000010885 -0.12485206928305250806 0.94061358341784084836 
0.00000000000000005442 -0.12506341137931847873 0.95129325380281481994 
0.00000000000000005442 -0.12516229646706067413 0.96102353872925505573 
0.00000000000000000000 -0.12515316541005322426 0.96975416569499317543 
0.00000000000000000000 -0.12504035805525354208 0.97743805067018396660 
0.00000000000000021769 -0.12482811629467317760 0.98403229008203108030 
0.00000000000000010885 -0.12452058697114987140 0.98949957917165276555 
0.00000000000000010885 -0.12412182461945861500 0.99380998272307852215 
0.00000000000000010885 -0.12363579403691855874 0.99694271290556746301 
0.00000000000000000000 -0.12306637268010352237 0.99888766662494810067 
0.00000000000000010885 -0.12241735288648115942 0.99964658044483256649 
-0.00000000000000005442 -0.12169244392179988379 0.99923373768332390821 
0.00000000000000010885 -0.12089527385579186547 0.99767621605484813063 
0.00000000000000005442 -0.12002825815293238776 0.99501370047313664191 
0.00000000000000000000 -0.11909578833905830331 0.99129790857789690239 
0.00000000000000000000 -0.11810154571798389678 0.98659168955399512146 
0.00000000000000005442 -0.11704884503580947896 0.98096786253575385395 
0.00000000000000000000 -0.11594092704117624215 0.97450786141587486533 
0.00000000000000010885 -0.11478095944793953453 0.96730024983010998163 
0.00000000000000000000 -0.11357203777743060669 0.95943916471186663220 
0.00000000000000005442 -0.11231718609020377442 0.95102274005099451948 
0.00000000000000005442 -0.11101935761741277275 0.94215155505334824415 
0.00000000000000010885 -0.10968143530208848690 0.93292714329683179564 
0.00000000000000010885 -0.10830623226061586450 0.92345059208011104346 
0.00000000000000010885 -0.10689649217464312903 0.91382125420969873009 
0.00000000000000016327 -0.10545488962350316187 0.90413558812729410974 
0.00000000000000005442 -0.10398403036701074631 0.89448613663123055506 
0.00000000000000005442 -0.10248645158819989776 0.88496064953165398670 
0.00000000000000000000 -0.10096462210523092506 0.87564135139924448303 
0.00000000000000010885 -0.09942094256129693775 0.86660435209601882622 
0.00000000000000010885 -0.09785774560092895535 0.85791919497016400076 
0.00000000000000021769 -0.09627729604062838786 0.84964853539973894669 
0.00000000000000010885 -0.09468179104126354939 0.84184794072079471849 
0.00000000000000000000 -0.09307336028914996173 0.83456580140992520089 
0.00000000000000000000 -0.09145406619220491917 0.82784334264545345050 
0.00000000000000005442 -0.08982590409702692624 0.82171472498369946269 
0.00000000000000010885 -0.08819080253220598631 0.81620722279885349337 
0.00000000000000010885 -0.08655062348262730632 0.81134146929318273767 
0.00000000000000010885 -0.08490716269898772317 0.80713175723981633869 
0.00000000000000010885 -0.08326215004621510818 0.80358638512956614974 
0.00000000000000005442 -0.08161724989395457985 0.80070803901764731059 
0.00000000000000016327 -0.07997406155177748388 0.79849420107233715083 
0.00000000000000010885 -0.07833411975127901883 0.79693757658681629863 
0.00000000000000016327 -0.07669889517675083923 0.79602653200344308804 
0.00000000000000005442 -0.07506979504566436978 0.79574553729630204124 
0.00000000000000005442 -0.07344816373976811863 0.79607560684654199434 
0.00000000000000000000 -0.07183528348718623557 0.79699473371255269427 
0.00000000000000010885 -0.07023237509552918145 0.79847831293310267409 
0.00000000000000000000 -0.06864059873565675485 0.80049955019839569292 
0.00000000000000010885 -0.06706105477540277859 0.80302985287601158504 
0.00000000000000010885 -0.06549478466225844286 0.80603920098213710510 
0.00000000000000005442 -0.06394277185372532202 0.80949649624124153657 
0.00000000000000010885 -0.06240594279378881143 0.81336988787853103933 
0.00000000000000016327 -0.06088516793373092290 0.81762707423937530660 
0.00000000000000010885 -0.05938126279528659762 0.82223557972949545825 
0.00000000000000000000 -0.05789498907396709027 0.82716300692081401458 
0.00000000000000010885 -0.05642705578020890816 0.83237726397273181789 
0.00000000000000005442 -0.05497812041586708914 0.83784676777987054930 
0.00000000000000000000 -0.05354879018346099528 0.84354062347789759979 
0.00000000000000010885 -0.05213962322547694567 0.84942878112197373053 
0.00000000000000000000 -0.05075112989096104699 0.85548217050077157708 
0.00000000000000013606 -0.04938377402658448295 0.86167281516605598313 
0.00000000000000008164 -0.04803797428931497193 0.86797392684653806860 
0.00000000000000008164 -0.04671410547781953970 0.87435998147819782300 
0.00000000000000010885 -0.04541249987971143071 0.88080677546221908258 
0.00000000000000005442 -0.04413344863177223049 0.88729136020447185729 
0.00000000000000010885 -0.04287720309029634941 0.89379148857951351559 
0.00000000000000010885 -0.04164397620875557454 0.90028452474745479517 
0.00000000000000012245 -0.04043394392001570248 0.90674615084614196281 
0.00000000000000010885 -0.03924724652041564760 0.91314914269834424054 
0.00000000000000009524 -0.03808399005307334245 0.91946237833826671704 
0.00000000000000008164 -0.03694424768787280683 0.92565016403229194442 
0.00000000000000019048 -0.03582806109567075736 0.93167190670338051461 
0.00000000000000002721 -0.03473629649366691274 0.93748212382846085600 
0.00000000000000010885 -0.03366858813255939331 0.94303075761649712838 
0.00000000000000009524 -0.03262430935300307533 0.94826374613883013254 
0.00000000000000006803 -0.03160339345236017755 0.95312379734950447574 
0.00000000000000000680 -0.03060574872400977434 0.95755131047122532539 
0.00000000000000012926 -0.02963125976098274564 0.96148539138176369878 
0.00000000000000010204 -0.02867978873900731140 0.96486491315180722417 
-0.00000000000000004762 -0.02775117667738209379 0.96762957880424993462 
0.00000000000000011565 -0.02684524467621811350 0.96972095718549589094 
0.00000000000000005782 -0.02596179512870511186 0.97108361911539964328 
0.00000000000000008504 -0.02510061290717590168 0.97166671953861216693 
0.00000000000000012245 -0.02426146652185336844 0.97142594416843619509 
0.00000000000000016497 -0.02344410925128781117 0.97032546879395087380 
0.00000000000000009949 -0.02264828024359214279 0.96833967804957321590 
0.00000000000000004932 -0.02187370558770260556 0.96545449707257102734 
0.00000000000000006803 -0.02112009935399470836 0.96166826693392293279 
0.00000000000000005272 -0.02038716460368395628 0.95699214933895893065 
0.00000000000000001701 -0.01967346124916991706 0.95145008310625434067 
0.00000000000000013606 -0.01897959412028546455 0.94507833855744549645 
0.00000000000000010545 -0.01830552620369186451 0.93792472954488814718 
0.00000000000000004422 -0.01765092194534068418 0.93004754906790043645 
-0.00000000000000002721 -0.01701543955574706668 0.92151429537165274741 
0.00000000000000013606 -0.01639873181548374276 0.91240025271311264721 
0.00000000000000007483 -0.01580044684857308604 0.90278698586937156101 
0.00000000000000003401 -0.01522022886388791144 0.89276080090824816438 
0.00000000000000002721 -0.01465771886474949784 0.88241121745198380921 
0.00000000000000004762 -0.01411255532696739298 0.87182949016405886233 
-0.00000000000000000680 -0.01358437484563684156 0.86110720984830413371 
0.00000000000000004082 -0.01307281275105859689 0.85033500762286040597 
0.00000000000000001361 -0.01257750369420264358 0.83960137928282485564 
0.00000000000000002041 -0.01209808220218381615 0.82899164128929714312 
0.00000000000000006803 -0.01163418320426630112 0.81858702486189394154 
-0.00000000000000003401 -0.01118544252894879999 0.80846391041159759716 
0.00000000000000000680 -0.01075149737272274204 0.79869320100896568082 
-0.00000000000000003401 -0.01033198674113004756 0.78933983069860980120 
0.00000000000000000680 -0.00992655186277129238 0.78046240119201726326 
-0.00000000000000008164 -0.00953483657694889977 0.77211293873790687314 
0.00000000000000003401 -0.00915648769564342269 0.76433676172015996286 
-0.00000000000000000680 -0.00879115534055056880 0.75717244870551059233 
-0.00000000000000004082 -0.00843849325591137026 0.75065189619610217520 
-0.00000000000000001361 -0.00809815909789419336 0.74480045517847881520 
0.00000000000000003401 -0.00776981470128476018 0.73963713564751354390 
0.00000000000000003401 -0.00745312632425852283 0.73517486857288760760 
0.00000000000000001361 -0.00714776487200837699 0.73142081522367485835 
0.00000000000000005442 -0.00685340610000863010 0.72837671433503881069 
-0.00000000000000001361 -0.00656973079768947543 0.72603925825658877091 
-0.00000000000000005442 -0.00629642495330523175 0.72440048993580130610 
-0.00000000000000002721 -0.00603317990076594410 0.72344821333769315785 
0.00000000000000004082 -0.00577969244920069347 0.72316641066321574183 
-0.00000000000000002721 -0.00553566499601838152 0.72353566048690876045 
0.00000000000000005442 -0.00530080562421478101 0.72453355167563615602 
-0.00000000000000005442 -0.00507482818466818263 0.72613508866418075005 
0.00000000000000006803 -0.00485745236416083252 0.72831308434194985679 
-0.00000000000000010885 -0.00464840373983807249 0.73103853744214020161 
0.00000000000000008164 -0.00444741382081525246 0.73428099191641649224 
0.00000000000000008164 -0.00425422007762151291 0.73800887632194611676 
0.00000000000000001361 -0.00406856596015562223 0.74218982174243508521 
-0.00000000000000006803 -0.00389020090481343893 0.74679095721048494028 
-0.00000000000000002721 -0.00371888033142890638 0.75177918199600191063 
-0.00000000000000017688 -0.00355436563065313158 0.75712141447599834443 
-0.00000000000000002721 -0.00339642414237914135 0.76278481760698446656 
-0.00000000000000002041 -0.00324482912579990854 0.76873700128464605985 
-0.00000000000000007483 -0.00309935972167044377 0.77494620209936659894 
-0.00000000000000004762 -0.00295980090732364271 0.78138144118322361287 
-0.00000000000000008164 -0.00282594344497465351 0.78801266099734290638 
-0.00000000000000004082 -0.00269758382382280374 0.79481084203092045026 
-0.00000000000000002041 -0.00257452419644938401 0.80174810047776723376 
0.00000000000000002721 -0.00245657230998085974 0.80879776802580671813 
-0.00000000000000009524 -0.00234354143247954717 0.81593445228020855531 
-0.00000000000000012926 -0.00223525027499069844 0.82313397579002800519 
-0.00000000000000008164 -0.00213152290967158096 0.83037282724368499665 
-0.00000000000000004762 -0.00203218868439643480 0.83762707619036169682 
-0.00000000000000008164 -0.00193708213422114865 0.84487108474478433973 
-0.00000000000000003401 -0.00184604289006998885 0.85207628835621473939 
-0.00000000000000004762 -0.00175891558498979706 0.85921020939304693087 
-0.00000000000000005442 -0.00167554975829944377 0.86623578817070556735 
-0.00000000000000001361 -0.00159579975794707399 0.87311106029052898414 
0.00000000000000005442 -0.00152037932068265196 0.87978917132243916743 
-0.00000000000000004082 -0.00144880360321544529 0.88621869560747390526 
-0.00000000000000002041 -0.00138035879429929532 0.89234421182479539691 
0.00000000000000007483 -0.00131492155104220745 0.89810708123825855331 
-0.00000000000000005442 -0.00125237262387982245 0.90344637307959485550 
0.00000000000000004082 -0.00119259676403264854 0.90829988368818714850 
-0.00000000000000004082 -0.00113548263044274482 0.91260520054705518422 
0.00000000000000004082 -0.00108092269640302227 0.91630076827684503460 
-0.00000000000000012245 -0.00102881315606901595 0.91932692747307742653 
0.00000000000000008164 -0.00097905383104200596 0.92162705355060869916 
-0.00000000000000006803 -0.00093154807718606692 0.92314914131774472583 
-0.00000000000000006803 -0.00088620269184360269 0.92384775377292749354 
-0.00000000000000006803 -0.00084292782158926845 0.92368598329843887296 
-0.00000000000000008164 -0.00080163687066132753 0.92263717205563910984 
-0.00000000000000002721 -0.00076224641019178338 0.92068624501404816574 
-0.00000000000000004762 -0.00072467608834950507 0.91783058650771731646 
-0.00000000000000004082 -0.00068884854150111450 0.91408044582442793402 
0.00000000000000000680 -0.00065440115019976580 0.90945889434618498726 
-0.00000000000000002721 -0.00062044621194088853 0.90400138038440636112 
-0.00000000000000013606 -0.00058809652383694732 0.89775494144802236995 
-0.00000000000000004762 -0.00055728164619026988 0.89077713990696838486 
0.00000000000000004082 -0.00052793391571999155 0.88313478895719943473 
-0.00000000000000002721 -0.00049998835409379664 0.87490253308387766484 
-0.00000000000000008164 -0.00047338257843487986 0.86616134211042028479 
-0.00000000000000010885 -0.00044805671382918864 0.85699697136565022859 
-0.00000000000000002721 -0.00042395330784525978 0.84749843321213347291 
-0.00000000000000010545 -0.00040101724708216239 0.83775651767784597990 
-0.00000000000000001020 -0.00037919567574938199 0.82786239259222527131 
-0.00000000000000005442 -0.00035843791628266148 0.81790630670076680531 
-0.00000000000000006803 -0.00033869539199151154 0.80797641288327137765 
0.00000000000000000000 -0.00031992155173656857 0.79815772292435271940 
0.00000000000000006463 -0.00030207179662282560 0.78853120032375034754 
-0.00000000000000006463 -0.00028510340869983942 0.77917299339335877040 
-0.00000000000000011225 -0.00026897548165167375 0.77015380734556493358 
-0.00000000000000003061 -0.00025364885345836174 0.76153841119289389372 
-0.00000000000000007143 -0.00023908604100783787 0.75338527299961854933 
-0.00000000000000006803 -0.00022525117663605449 0.74574631529260815288 
-0.00000000000000003061 -0.00021210994656906297 0.73866678118901885064 
-0.00000000000000002381 -0.00019962953124042036 0.73218520097005712621 
0.00000000000000002721 -0.00018777854745481772 0.72633344836246671594 
-0.00000000000000003742 -0.00017652699236680051 0.72113687562532835518 
0.00000000000000000000 -0.00016584618924649801 0.71661451662620856418 
0.00000000000000000680 -0.00015570873499365348 0.71277934737930570552 
-0.00000000000000002721 -0.00014608844937125993 0.70963859396570871940 
-0.00000000000000001020 -0.00013696032592201146 0.70719407832387226609 
-0.00000000000000004762 -0.00012830048453184092 0.70544259305350209832 
-0.00000000000000011565 -0.00012008612560564515 0.70437629708947369078 
-0.00000000000000006803 -0.00011229548581734575 0.70398312484976821590 
-0.00000000000000011905 -0.00010490779539930525 0.70424720222231407263 
-0.00000000000000007483 -0.00009790323693230787 0.70514926351329010323 
-0.00000000000000001361 -0.00009126290559879784 0.70666706422039993196 
-0.00000000000000003742 -0.00008496877086436715 0.70877578520823703023 
-0.00000000000000002041 -0.00007900363954734206 0.71144842454100787332 
-0.00000000000000009694 -0.00007335112024037169 0.71465617386471103067 
-0.00000000000000002891 -0.00006799558904773202 0.71836877682226696340 
-0.00000000000000011055 -0.00006292215660009912 0.72255486752866415756 
-0.00000000000000006293 -0.00005811663631152516 0.72718228762772119111 
-0.00000000000000006123 -0.00005356551384186780 0.73221838089755175716 
-0.00000000000000015477 -0.00004925591772765126 0.73763026476901716322 
-0.00000000000000001531 -0.00004517559114920855 0.74338507847189561062 
0.00000000000000003061 -0.00004131286479539595 0.74945020782918170266 
-0.00000000000000012245 -0.00003765663079469524 0.75579348698329906764 
-0.00000000000000014286 -0.00003419631767629428 0.76238337756173846227 
-0.00000000000000006123 -0.00003092186632962109 0.76918912597659006014 
-0.00000000000000001531 -0.00002782370693042581 0.77618089970560888435 
0.00000000000000002041 -0.00002489273679732753 0.78332990352478537588 
-0.00000000000000011905 -0.00002212029915400907 0.79060847675688028513 
-0.00000000000000008164 -0.00001949816275807877 0.79799017266989158426 
-0.00000000000000014456 -0.00001701850237658509 0.80544981854464470228 
0.00000000000000003231 -0.00001467388006846847 0.81296345437983619231 
-0.00000000000000006208 -0.00001245722725252116 0.82050778379831401654 
0.00000000000000005272 -0.00001036182753103097 0.82805908851010734395 
-0.00000000000000010715 -0.00000838130024027812 0.83559193978809365166 
-0.00000000000000000595 -0.00000650958470182987 0.84307797903556702668 
0.00000000000000001191 -0.00000474092515181592 0.85048493119554258168 
0.00000000000000000340 -0.00000306985631826530 0.85777593562795573234 
-0.00000000000000006293 -0.00000149118962530663 0.86490922332092234903 
-0.00000000000000005272 0.00000000000000008164 0.87183813146737620947 
-0.00000000000000008419 0.00000000000000004082 0.87851142218170263920 
-0.00000000000000009949 0.00000000000000019048 0.88487385799957118948 
-0.00000000000000002296 0.00000000000000001361 0.89086698007467313154 
-0.00000000000000011225 0.00000000000000012245 0.89643003352808459105 
-0.00000000000000005782 0.00000000000000006803 0.90150098656895383264 
-0.00000000000000007313 0.00000000000000010885 0.90601759452489305513 
-0.00000000000000012075 0.00000000000000008164 0.90991846584203417425 
-0.00000000000000003401 0.00000000000000005442 0.91314409372949345567 
-0.00000000000000002721 0.00000000000000005442 0.91563782391685921702 
-0.00000000000000006633 0.00000000000000012245 0.91734673560444346396 
0.00000000000000000808 0.00000000000000010885 0.91822241887086697432 
-0.00000000000000000638 -0.00000000000000001361 0.91822163740809881194 
-0.00000000000000014584 0.00000000000000005442 0.91730687039580083297 
-0.00000000000000012075 0.00000000000000019048 0.91544673157102385286 
-0.00000000000000003487 0.00000000000000008164 0.91261626709893362008 
-0.00000000000000014286 0.00000000000000005442 0.90879713673410411623 
-0.00000000000000010545 -0.00000000000000004082 0.90397768502592135142 
-0.00000000000000009439 0.00000000000000019048 0.89815291102232563958 
-0.00000000000000007483 0.00000000000000005442 0.89132434612560373921 
-0.00000000000000012118 0.00000000000000005442 0.88349985051620849585 
-0.00000000000000013606 0.00000000000000005442 0.87469333894879608415 
-0.00000000000000008674 0.00000000000000010885 0.86492444679923463635 
-0.00000000000000012585 0.00000000000000006803 0.85421814705871301765 
-0.00000000000000003401 0.00000000000000004082 0.84260432858281164581 
-0.00000000000000004549 0.00000000000000008164 0.83011734535598491469 
0.00000000000000004975 0.00000000000000010885 0.81679554586631764046 
-0.00000000000000015753 -0.00000000000000004082 0.80268079093747801700 
0.00000000000000005336 0.00000000000000008164 0.78781796756514177460 
0.00000000000000000999 0.00000000000000000000 0.77225450547972340765 
-0.00000000000000009800 0.00000000000000017688 0.75603990232751960843 
-0.00000000000000009886 0.00000000000000005442 0.73922526254581633065 
0.00000000000000000425 0.00000000000000016327 0.72186285421807461216 
-0.00000000000000004294 -0.00000000000000008164 0.70400568744369995677 
-0.00000000000000002806 0.00000000000000021769 0.68570711705107201261 
-0.00000000000000010906 0.00000000000000004082 0.66702047182810042525 
-0.00000000000000012458 0.00000000000000001361 0.64799871184504431731 
-0.00000000000000009056 0.00000000000000009524 0.62869411490160709288 
0.00000000017197910583 0.00000000000000013606 0.60915799264477943353 
0.00000003528659467008 -0.00000000000000001361 0.58944043647485666604 
0.00000052531419708203 0.00000000000000020409 0.56959009298288698631 
0.00000320450577007583 0.00000000000000014966 0.54965396834117197233 
0.00001238119261225413 0.00000000000000012245 0.52967726079649612991 
0.00003621151684316223 0.00000000000000012245 0.50970322019026914617 
0.00008778483853287427 0.00000000000000005442 0.48977303324728516110 
0.00018590880476498692 0.00000000000000010885 0.46992573323164704702 
0.00035554640354404826 0.00000000000000019048 0.45019813246103473903 
0.00062790170098456905 0.00000000000000000000 0.43062477609516236488 
0.00104018013275937004 0.00000000000000019048 0.41123904868488608821 
0.00163506698046865279 0.00000000000000014966 0.39206997847408686653 
0.00245997700871461228 0.00000000000000000000 0.37314493283449368111 
0.00356613152282284551 0.00000000000000008164 0.35448929831010200786 
0.00500751816134357812 0.00000000000000025851 0.33612622473311454252 
0.00683978497093951348 0.00000000000000008164 0.31807667236409187250 
0.00911911479486653478 0.00000000000000013606 0.30035946909805849581 
0.01190111954071339240 0.00000000000000016327 0.28299137631387799585 
0.01523978706513847738 0.00000000000000019048 0.26598716201887262489 
0.01918650664154723101 0.00000000000000024491 0.24935968002024758161 
0.02378919254840569306 0.00000000000000016327 0.23311995393783901953 
0.02909151941761608726 0.00000000000000010885 0.21727726495764257408 
0.03513227772378055280 0.00000000000000025851 0.20183924231128630433 
0.04194485322846380759 0.00000000000000008164 0.18681195555205698522 
0.04955683032903848706 0.00000000000000012245 0.17220000778238306327 
0.05798971607968500530 0.00000000000000024491 0.15800662907007617664 
0.06725877911270035370 0.00000000000000021769 0.14423376937052020952 
0.07737299573837297384 0.00000000000000016327 0.13088219034887579872 
0.08833509408089135206 0.00000000000000012245 0.11795155556984007750 
0.10014168615232948989 0.00000000000000008164 0.10544051859226556689 
0.11278347721288789485 0.00000000000000023130 0.09334680857178809243 
0.12624554155142425627 0.00000000000000009524 0.08166731303637042583 
0.14050765388765371067 0.00000000000000014966 0.07039815755728875968 
0.15554466589250973141 0.00000000000000023130 0.05953478209150805250 
0.17132691779739059323 0.00000000000000004082 0.04907201382065790041 
0.18782067567305654743 0.00000000000000010885 0.03900413635696813736 
0.20498858566681057991 0.00000000000000012245 0.02932495522766056031 
0.22279013725948595970 0.00000000000000008164 0.02002785958652615259 
0.24118212841379491063 0.00000000000000014966 0.01110588013490008095 
0.26011912630942946034 0.00000000000000020409 0.00255174326412190748 
0.27955391817880048677 0.00000000000000017688 -0.00564207854198182229 
0.29943794755503944094 0.00000000000000005442 -0.01348331998284769441 
0.31972173200884351774 0.00000000000000008164 -0.02097987981327712609 
0.34035525917374209737 0.00000000000000012245 -0.02813978121272716487 
0.36128835853387142318 0.00000000000000017688 -0.03497113553803222336 
0.38247104706989637490 0.00000000000000006803 -0.04148210933368672026 
0.40385384742479790710 0.00000000000000019048 -0.04768089446399137454 
0.42538807776074438749 0.00000000000000013606 -0.05357568122366394153 
0.44702611293144584037 0.00000000000000016327 -0.05917463427772649831 
0.46872161699243020117 0.00000000000000013606 -0.06448587127745521175 
0.49042974741658990068 0.00000000000000014966 -0.06951744399673806529 
0.51210733167672661814 0.00000000000000021769 -0.07427732183216274875 
0.53371301710371898963 0.00000000000000013606 -0.07877337751042358394 
0.55520739513165395795 0.00000000000000016327 -0.08301337484800383471 
0.57655310120336933366 0.00000000000000010885 -0.08700495841048068446 
0.59771489173489267266 0.00000000000000013606 -0.09075564492202373157 
0.61865969962889189038 0.00000000000000014966 -0.09427281627964430311 
0.63935666988897743579 0.00000000000000019048 -0.09756371403136374076 
0.65977717692199366883 0.00000000000000009524 -0.10063543518259984721 
0.67989482512755061716 0.00000000000000012245 -0.10349492920065064827 
0.69968543434520558133 0.00000000000000006803 -0.10614899609305543382 
0.71912699501478538622 0.00000000000000017688 -0.10860428544179698274 
0.73819937577327621181 0.00000000000000016327 -0.11086729628166788753 
0.75688345182602767558 0.00000000000000016327 -0.11294437771761123290 
0.77515982256315463239 0.00000000000000004082 -0.11484173018239628161 
0.79300745341418910073 0.00000000000000016327 -0.11656540724254421670 
0.81040246722143860492 0.00000000000000016327 -0.11812131786693541580 
0.82731721410168457265 0.00000000000000009524 -0.11951522907897102477 
0.84371967968379113501 0.00000000000000012245 -0.12075276891946451485 
0.85957324357447406626 0.00000000000000015647 -0.12183942965361556354 
0.87483676793992515286 0.00000000000000010885 -0.12278142584070875221 
0.88946497622940889904 0.00000000000000014966 -0.12358363998453525401 
0.90340907116514623798 0.00000000000000015647 -0.12425059584488788722 
0.91661753670939716265 0.00000000000000010885 -0.12478728160916391365 
0.92903706886841819212 0.00000000000000000680 -0.12519856724933356440 
0.94061358341784040427 0.00000000000000017688 -0.12548920812373628997 
0.95129325380281470892 0.00000000000000006803 -0.12566384851089412722 
0.96102353890123415336 0.00000000000000014966 -0.12572702505002536499 
0.96975420098094078369 0.00000000000000013606 -0.12568317006692869553 
0.97743856877047430309 0.00000000000000002721 -0.12553661476763494642 
0.98403528740978407630 0.00000000000000016327 -0.12529159228566191797 
0.98951029294586700935 0.00000000000000019729 -0.12495224057189205369 
0.99383868535804020805 0.00000000000000007823 -0.12452260511900840878 
0.99700629329641854426 0.00000000000000015987 -0.12400664151508507260 
0.99901081792283752403 0.00000000000000009864 -0.12340821782333886991 
0.99986251086251409781 0.00000000000000009864 -0.12273111678722180284 
0.99958438828351614536 -0.00000000000000000340 -0.12197903786197490661 
0.99821201432936657039 0.00000000000000014966 -0.12115559907548348328 
0.99579290638719941686 0.00000000000000002721 -0.12026376568534132006 
0.99238562504125593655 0.00000000000000020749 -0.11930676734195039268 
0.98805861545654305456 -0.00000000000000000850 -0.11828886746285013909 
0.98288886625341453929 0.00000000000000010204 -0.11721336961920891806 
0.97696044813874416413 0.00000000000000011735 -0.11608350310478041112 
0.97036298877856763667 0.00000000000000007653 -0.11490242389299125392 
0.96319013348087711979 0.00000000000000014286 -0.11367321547549903704 
0.95553803383656010784 0.00000000000000007143 -0.11239888959213599484 
0.94750389899869935650 0.00000000000000007568 -0.11108238686238025572 
0.93918463708665778089 0.00000000000000002721 -0.10972657732859766866 
0.93067560749668765130 0.00000000000000002381 -0.10833426092131728802 
0.92206949881894406662 0.00000000000000009439 -0.10690816785671510003 
0.91345534167382835822 0.00000000000000012968 -0.10545095897632106308 
0.90491766111476534817 0.00000000000000014626 -0.10396522603872795920 
0.89653576929277400964 0.00000000000000006537 -0.10245349197278258435 
0.88838319581012215043 0.00000000000000004826 -0.10091821110139082007 
0.88052725055988079195 0.00000000000000020664 -0.09936176934465981714 
0.87302871179956043068 0.00000000000000008674 -0.09778648441067090691 
0.86594163067937623968 0.00000000000000002339 -0.09619460598169750354 
0.85931324237639328256 0.00000000000000006038 -0.09458831590319131954 
0.85318397331303152953 0.00000000000000006803 -0.09296972838233862058 
0.84758753360277605537 0.00000000000000013436 -0.09134089020246091706 
0.84255108381181431643 0.00000000000000016922 -0.08970378095899229909 
0.83809546530150691446 0.00000000000000007738 -0.08806031332222798158 
0.83423548377675427190 0.00000000000000013606 -0.08641233333148880258 
0.83098023616813376790 0.00000000000000007483 -0.08476162072481428778 
0.82833347158483328077 0.00000000000000006123 -0.08310988930776522232 
0.82629397775934032566 0.00000000000000008674 -0.08145878736439657319 
0.82485598513664193376 0.00000000000000014116 -0.07980989811295942371 
0.82400958151754966075 0.00000000000000019388 -0.07816474020840152859 
0.82374113092883605169 0.00000000000000010204 -0.07652476829326231023 
0.82403369114673541418 0.00000000000000014796 -0.07489137359812080008 
0.82486742503272980631 0.00000000000000017858 -0.07326588459230977401 
0.82622000154186625576 0.00000000000000019048 -0.07164956768522214026 
0.82806698292694147501 0.00000000000000003912 -0.07004362797814400743 
0.83038219528164736172 0.00000000000000005442 -0.06844921006619723858 
0.83313808013882673098 0.00000000000000011225 -0.06686739888964575440 
0.83630602536442333328 0.00000000000000007143 -0.06529922063350779293 
0.83985667406288799786 0.00000000000000010885 -0.06374564367414375932 
0.84376021063600281646 0.00000000000000013266 -0.06220757957123227572 
0.84798662351543463434 0.00000000000000006803 -0.06068588410331562932 
0.85250594442157767716 0.00000000000000014966 -0.05918135834489362396 
0.85728846428957727888 0.00000000000000011055 -0.05769474978286404793 
0.86230492625040444654 0.00000000000000013606 -0.05622675346995027745 
0.86752669626326495145 0.00000000000000014966 -0.05477801321262176781 
0.87292591216838355539 0.00000000000000015647 -0.05334912279090434778 
0.87847561206930047106 0.00000000000000006463 -0.05194062720737942923 
0.88414984306425403737 0.00000000000000013436 -0.05055302396260877296 
0.88992375142990853831 0.00000000000000014286 -0.04918676435416145104 
0.89577365539957543028 -0.00000000000000002551 -0.04784225479639140494 
0.90167708502688026506 0.00000000000000000850 -0.04651985815809368124 
0.90761257155334806868 0.00000000000000010374 -0.04521989511516928684 
0.91355885436811123945 0.00000000000000010374 -0.04394264551543967945 
0.91949367383227997852 0.00000000000000014286 -0.04268834975278411326 
0.92539248480976976641 0.00000000000000009354 -0.04145721014780527625 
0.93122731607675079957 0.00000000000000013436 -0.04024939233229170299 
0.93696590451011219081 0.00000000000000009014 -0.03906502663479871629 
0.94257116390843764808 0.00000000000000009694 -0.03790420946474628433 
0.94800100029518841183 0.00000000000000003742 -0.03676700469251063808 
0.95320845361721673328 0.00000000000000004762 -0.03565344502307771918 
0.95814212591480640846 0.00000000000000019558 -0.03456382151719931961 
0.96274684515912123395 0.00000000000000021429 -0.03349892468596130796 
0.96696450955809032379 0.00000000000000004592 -0.03245752016355511055 
0.97073505729625808591 0.00000000000000008504 -0.03143953368531492848 
0.97399750991221656360 0.00000000000000010545 -0.03044486630041526656 
0.97669104269680762087 0.00000000000000006123 -0.02947339567183239473 
0.97875604176691144431 0.00000000000000013776 -0.02852497735526277403 
0.98013511500389316478 0.00000000000000008674 -0.02759944605545153543 
0.98077409227455236707 0.00000000000000006123 -0.02669661685850275787 
0.98062332997825363279 0.00000000000000008844 -0.02581628643885690300 
0.97963946922420264141 0.00000000000000008164 -0.02495823423973892591 
0.97778733592606825731 0.00000000000000002721 -0.02412222362599622527 
0.97504168361193499504 0.00000000000000011225 -0.02330800300835580985 
0.97138859670189903195 0.00000000000000005782 -0.02251530693824492849 
0.96682645980376735739 0.00000000000000002891 -0.02174385717242359461 
0.96136646111799228809 0.00000000000000006293 -0.02099336370678982558 
0.95503264106239327269 0.00000000000000010715 -0.02026352577881292139 
0.94786152533413348120 0.00000000000000009694 -0.01955345980071957965 
0.93990139850277576450 0.00000000000000003401 -0.01886261592725162195 
0.93121128279633458291 0.00000000000000016242 -0.01819154695616768957 
0.92185968930445150171 0.00000000000000008504 -0.01753991435453029768 
0.91192320717720265488 -0.00000000000000005017 -0.01690737357251766507 
0.90148499193464248780 0.00000000000000004677 -0.01629357484130537423 
0.89063320778230892216 0.00000000000000004762 -0.01569816393884952699 
0.87945947164966420395 0.00000000000000009354 -0.01512078292370111661 
0.86805733912045246470 0.00000000000000013436 -0.01456107083705471435 
0.85652086492954682129 0.00000000000000013946 -0.01401866437329354030 
0.84494326355368443160 0.00000000000000019048 -0.01349319851935812907 
0.83341568881706973304 0.00000000000000004592 -0.01298430716332069773 
0.82202614548367425318 -0.00000000000000001446 -0.01249162367259448216 
0.81085854057500783565 0.00000000000000010204 -0.01201478144226295411 
0.79999187765108503712 0.00000000000000008844 -0.01155341441405078121 
0.78949959350855225537 0.00000000000000014456 -0.01110715756650088211 
0.77944903364725526274 0.00000000000000017773 -0.01067564737695930570 
0.76990106038477457151 0.00000000000000011990 -0.01025852225599843334 
0.76090978559905697587 0.00000000000000009099 -0.00985542295494101252 
0.75252241868950209280 0.00000000000000005527 -0.00946599294717160103 
0.74477921940311120341 0.00000000000000002976 -0.00908987878394136584 
0.73771354461224503130 0.00000000000000007143 -0.00872673042539611962 
0.73135197789484651665 0.00000000000000004167 -0.00837620154756738011 
0.72571453080137449110 0.00000000000000013776 -0.00803794982608342819 
0.72081490494453293039 0.00000000000000004082 -0.00771163719736329967 
0.71666080447261859554 0.00000000000000007398 -0.00739693009806777560 
0.71325428904442811362 0.00000000000000008419 -0.00709349968358163451 
0.71059215807779552154 -0.00000000000000005953 -0.00680102202630871160 
0.70866635776431208260 0.00000000000000009567 -0.00651917829455734340 
0.70746440310359237635 0.00000000000000006675 -0.00624765491279281361 
0.70696980798969066839 0.00000000000000009567 -0.00598614370403178966 
0.70716251716193501142 0.00000000000000011948 -0.00573434201514427897 
0.70801933459784893721 0.00000000000000005442 -0.00549195282582441019 
0.70951434366547450061 0.00000000000000003444 -0.00525868484198011021 
0.71161931505734143943 -0.00000000000000007101 -0.00503425257428366177 
0.71430409919201687252 0.00000000000000011820 -0.00481837640261048410 
0.71753700038701029307 0.00000000000000000043 -0.00461078262708420131 
0.72128513067593569286 0.00000000000000004507 -0.00441120350642849879 
0.72551474166174767522 0.00000000000000003954 -0.00421937728431518236 
0.73019153326629793188 0.00000000000000003061 -0.00403504820437871128 
0.73528093865499000170 0.00000000000000005272 -0.00385796651455398666 
0.74074838498539508080 0.00000000000000018240 -0.00368788846137483662 
0.74655952995223251456 0.00000000000000010757 -0.00352457627485454773 
0.75268047438058083287 0.00000000000000005910 -0.00336779814455217662 
0.75907795135723377111 -0.00000000000000003316 -0.00321732818740701936 
0.76571949258970595231 0.00000000000000002594 -0.00307294640790961972 
0.77257357284651995144 0.00000000000000000000 -0.00293443865115486065 
0.77960973346418549479 0.00000000000000018559 -0.00280159654930383934 
0.78679868600871782913 0.00000000000000014881 -0.00267421746196632934 
0.79411239725567306369 0.00000000000000009312 -0.00255210441099103800 
0.80152415653337505397 0.00000000000000015264 -0.00243506601013381788 
0.80900859259522939215 0.00000000000000014031 -0.00232291639005776165 
0.81654135936408822616 0.00000000000000010460 -0.00221547511909497927 
0.82409822950385247520 0.00000000000000006335 -0.00211256712018517961 
0.83165384482518833753 0.00000000000000006038 -0.00201402258438673244 
0.83918044153253568140 0.00000000000000016773 -0.00191967688133629555 
0.84664675375006648306 0.00000000000000006271 -0.00182937046701598825 
0.85401720848127971042 0.00000000000000015264 -0.00174294878917197844 
0.86125146076975855891 0.00000000000000000383 -0.00166026219070435359 
0.86830427339884963533 0.00000000000000000085 -0.00158116581134048768 
0.87512571623777957175 0.00000000000000005495 -0.00150580764416179775 
0.88166164252199563656 -0.00000000000000005145 -0.00143486817540747604 
0.88785438994894594344 0.00000000000000008355 -0.00136703461474063344 
0.89364365112436316974 0.00000000000000019335 -0.00130218444530591417 
0.89896745877806660818 0.00000000000000007388 -0.00124019922511918825 
0.90376323487375009869 0.00000000000000007132 -0.00118096449440294139 
0.90796885819380368510 0.00000000000000006495 -0.00112436968244589543 
0.91152371155963429761 0.00000000000000014095 -0.00107030801419230105 
0.91436971053055760006 -0.00000000000000000744 -0.00101867641675548542 
0.91645256997922719400 -0.00000000000000000787 -0.00096937542603316542 
0.91772355170459107843 -0.00000000000000002955 -0.00092230909359268857 
0.91814143202627329643 0.00000000000000001648 -0.00087738489398278953 
0.91767436449036521307 0.00000000000000001881 -0.00083451363261234570 
0.91630143187410306727 0.00000000000000009248 -0.00079360935433262305 
0.91401377574087661060 0.00000000000000009168 -0.00075458925283998512 
0.91081525927941842102 0.00000000000000012054 -0.00071737358101635177 
0.90672266604160423054 0.00000000000000000159 -0.00068188556230294934 
0.90176546828412806889 0.00000000000000005480 -0.00064747826576686191 
0.89598521777092277052 -0.00000000000000002641 -0.00061385014910610028 
0.88943462216746227433 0.00000000000000018187 -0.00058181296809107141 
0.88217637397237680386 0.00000000000000008631 -0.00055129684571913605 
0.87428179817880979918 0.00000000000000000840 -0.00052223466295355501 
0.86582938100504835965 0.00000000000000002078 -0.00049456196764897876 
0.85690323620559516460 0.00000000000000015102 -0.00046821688545631887 
0.84759155851927392433 -0.00000000000000003202 -0.00044314003273161539 
0.83798510636013157082 0.00000000000000003675 -0.00041927443146085947 
0.82817574836617957601 -0.00000000000000001148 -0.00039656542621366319 
0.81825510121048794510 0.00000000000000005950 -0.00037496060313027584 
0.80831327936304386839 0.00000000000000003048 -0.00035440971094429148 
0.79843777140295846273 0.00000000000000016755 -0.00033486458403702278 
0.78871245209035734103 0.00000000000000013093 -0.00031627906751760288 
0.77921673474116504021 -0.00000000000000000237 -0.00029860894432021568 
0.77002486449831397675 0.00000000000000008849 -0.00028181186430280546 
0.76120534982874143992 0.00000000000000006783 -0.00026584727533284213 
0.75282052695031020928 0.00000000000000005771 -0.00025067635634089480 
0.74492624985040800656 0.00000000000000003413 -0.00023626195232029378 
0.73757169703720015796 0.00000000000000003340 -0.00022256851124918787 
0.73079928510244063222 0.00000000000000000795 -0.00020956202291016126 
0.72464467850933211857 0.00000000000000017349 -0.00019720995957914867 
0.71913688469059422470 0.00000000000000013234 -0.00018548121855513992 
0.71429842349487515651 -0.00000000000000007607 -0.00017434606649815665 
0.71014556020263919223 0.00000000000000005473 -0.00016377608554755089 
0.70668859169921560692 0.00000000000000005912 -0.00015374412118234198 
0.70393217590151102581 0.00000000000000000256 -0.00014422423179547559 
0.70187569514949954552 0.00000000000000005486 -0.00013519163994075826 
0.70051364496259005410 0.00000000000000008555 -0.00012662268522304840 
0.69983604029723689433 0.00000000000000010513 -0.00011849477879127385 
0.69982883220306568717 0.00000000000000005884 -0.00011078635939929516 
0.70047432854138935721 0.00000000000000007354 -0.00010347685099861364 
0.70175161318696044344 0.00000000000000005881 -0.00009654662182367790 
0.70363695886883170783 -0.00000000000000005682 -0.00008997694493427417 
0.70610422950980644696 0.00000000000000016092 -0.00008374996017732412 
0.70912526858894686654 0.00000000000000009982 -0.00007784863752940509 
0.71267027067296129239 0.00000000000000004387 -0.00007225674178506998 
0.71670813383660569862 0.00000000000000001721 -0.00006695879855236364 
0.72120679121770914222 0.00000000000000012380 -0.00006194006151956493 
0.72613352042837209233 -0.00000000000000003916 -0.00005718648095423166 
0.73145522997067025095 0.00000000000000014036 -0.00005268467340459169 
0.73713872218393972080 0.00000000000000006129 -0.00004842189255893001 
0.74315093258322051373 0.00000000000000002398 -0.00004438600123547776 
0.74945914573687555382 0.00000000000000000463 -0.00004056544446305715 
0.75603118807840363758 0.00000000000000014398 -0.00003694922362097262 
0.76283559825579183578 0.00000000000000008432 -0.00003352687160230871 
0.76984177579437407246 -0.00000000000000000874 -0.00003028842896945853 
0.77702010898905959912 0.00000000000000003207 -0.00002722442106888000 
0.78434208305198482858 0.00000000000000006388 -0.00002432583607085781 
0.79178036962506981311 0.00000000000000003544 -0.00002158410390794694 
0.79930889880555444638 0.00000000000000015937 -0.00001899107607588924 
0.80690289818109695030 -0.00000000000000001392 -0.00001653900627150909 
0.81453868129824202882 0.00000000000000010260 -0.00001422053183568392 
0.82219285365748440153 0.00000000000000009860 -0.00001202865597470440 
0.82984110451221748672 0.00000000000000010534 -0.00000995673073047381 
0.83745691931780608108 -0.00000000000000008464 -0.00000799844067430881 
0.84501043800714448206 0.00000000000000002269 -0.00000614778729533281 
0.85246758799702204712 -0.00000000000000003040 -0.00000439907406146901 
0.85978955178249050206 -0.00000000000000002827 -0.00000274689212369200 
0.86693258097240799565 0.00000000000000008388 -0.00000118610664364528 
0.87384813668255723051 0.00000000000000016400 0.00000000000000006463 
0.88048331636562593427 0.00000000000000006910 0.00000000000000005697 
0.88678151627685553038 0.00000000000000001844 -0.00000000000000005102 
0.89268327437915384603 -0.00000000000000012050 0.00000000000000001616 
0.89812723865584453975 -0.00000000000000001940 0.00000000000000002211 
0.90305120903717683856 0.00000000000000012520 0.00000000000000007398 
0.90739320632620046325 0.00000000000000006957 0.00000000000000007143 
0.91109252778112181925 0.00000000000000005969 -0.00000000000000001956 
0.91409075574959064436 0.00000000000000004398 -0.00000000000000002891 
0.91633269250686455454 0.00000000000000007359 0.00000000000000008334 
0.91776720091367725018 0.00000000000000015245 -0.00000000000000000723 
0.91834793647652512849 0.00000000000000002116 -0.00000000000000001828 
0.91803396173977380723 0.00000000000000004352 0.00000000000000000680 
0.91679023860318653583 0.00000000000000001301 -0.00000000000000000808 
0.91458799812258517736 0.00000000000000014288 -0.00000000000000000425 
0.91140499062992796908 0.00000000000000008465 0.00000000000000008674 
0.90722562163858944118 0.00000000000000018853 0.00000000000000009354 
0.90204098103097340999 0.00000000000000006246 0.00000000000000014541 
0.89584877451804922899 0.00000000000000003114 0.00000000000000005697 
0.88865316737720145834 -0.00000000000000003861 0.00000000000000002211 
0.88046455107989807232 0.00000000000000002584 0.00000000000000000850 
0.87129924367630784410 0.00000000000000002754 0.00000000000000012670 
0.86117913476913199311 0.00000000000000003388 0.00000000000000008206 
0.85013128563808304516 0.00000000000000001910 0.00000000000000002509 
0.83818749461922592570 0.00000000000000007027 0.00000000000000007186 
0.82538383724408104225 0.00000000000000008439 0.00000000000000000935 
0.81176018994085585856 0.00000000000000003260 0.00000000000000009226 
0.79735974532815057092 -0.00000000000000011680 0.00000000000000008078 
0.78222852631868666773 -0.00000000000000001767 0.00000000000000002551 
0.76641490542112777895 -0.00000000000000006965 0.00000000000000008759 
0.74996913480174443034 0.00000000000000003787 -0.00000000000000001191 
0.73294289186052286045 -0.00000000000000000787 0.00000000000000013542 
0.71538884430093174771 0.00000000000000000019 0.00000000000000007356 
0.69736023793848356256 -0.00000000000000006699 0.00000000000000006399 
0.67891050980748590682 0.00000000000000013545 0.00000000000000001701 
0.66009292849262313219 0.00000000000000003588 -0.00000000000000010630 
0.64096026303513875533 0.00000000000000003578 -0.00000000000000007696 
0.62156448124359486851 -0.00000000000000002011 0.00000000017197914537 
0.60195647777645500121 0.00000000000000013544 0.00000003528659484292 
0.58218583195691386845 0.00000000000000004309 0.00000052531419714283 
0.56230059492762896056 0.00000000000000004805 0.00000320450577013621 
0.54234710545165976114 0.00000000000000003989 0.00001238119261237372 
0.52236983341302134498 0.00000000000000014454 0.00003621151684329096 
0.50241124986244301009 -0.00000000000000004331 0.00008778483853288096 
0.48251172228767397199 0.00000000000000003386 0.00018590880476502042 
0.46270943365931677116 -0.00000000000000002144 0.00035554640354406230 
0.44304032370909629535 0.00000000000000008394 0.00062790170098468701 
0.42353805083403722742 0.00000000000000000096 0.00104018013275945309 
0.40423510610114249397 0.00000000000000010069 0.00163506698046879959 
0.38515962434197970055 0.00000000000000005279 0.00245997700871458018 
0.36633808572258175218 0.00000000000000000576 0.00356613152282291837 
0.34779500127728008030 -0.00000000000000002891 0.00500751816134374899 
0.32955266188605564226 -0.00000000000000006781 0.00683978497093953950 
0.31163118967040709384 0.00000000000000001420 0.00911911479486672213 
0.29404859887557355247 -0.00000000000000005536 0.01190111954071360924 
0.27682086484544793370 -0.00000000000000009520 0.01523978706513858319 
0.25996199977338962928 0.00000000000000000207 0.01918650664154743571 
0.24348413399327770157 -0.00000000000000011037 0.02378919254840571040 
0.22739760165907921263 0.00000000000000015330 0.02909151941761627461 
0.21171102974660804819 -0.00000000000000011902 0.03513227772378053199 
0.19643142939688762461 0.00000000000000001205 0.04194485322846367575 
0.18156428870563359745 0.00000000000000002153 0.04955683032903848706 
0.16711366614700567945 0.00000000000000001578 0.05798971607968514408 
0.15308228390125006024 -0.00000000000000001674 0.06725877911270038145 
0.13947162043461325265 0.00000000000000009506 0.07737299573837308486 
0.12628200175546355766 0.00000000000000001395 0.08833509408089161574 
0.11351269084260282027 0.00000000000000010393 0.10014168615232962867 
0.10116197480996155789 -0.00000000000000011068 0.11278347721288795036 
0.08922724943611386184 -0.00000000000000001929 0.12624554155142428402 
0.07770510074715637761 -0.00000000000000005885 0.14050765388765398822 
0.06659138339744549717 0.00000000000000004112 0.15554466589251000896 
0.05588129564443505837 0.00000000000000003169 0.17132691779739062099 
0.04556945076147977947 0.00000000000000009151 0.18782067567305654743 
0.03564994477599224554 -0.00000000000000003685 0.20498858566681080196 
0.02611642045990543448 0.00000000000000008495 0.22279013725948604296 
0.01696212753510985272 -0.00000000000000003047 0.24118212841379488287 
0.00817997908854884749 0.00000000000000007457 0.26011912630942962688 
-0.00023739577985949892 -0.00000000000000002114 0.27955391817880059779 
-0.00829760302817479298 0.00000000000000010170 0.29943794755503955196 
-0.01600843839201501057 -0.00000000000000012837 0.31972173200884346222 
-0.02337784566354049812 0.00000000000000008115 0.34035525917374226390 
-0.03041387842444726042 0.00000000000000000980 0.36128835853387147869 
-0.03712466511399074159 -0.00000000000000003827 0.38247104706989659695 
-0.04351837730189530434 -0.00000000000000000756 0.40385384742479807363 
-0.04960320102704920270 -0.00000000000000004037 0.42538807776074438749 
-0.05538731105597952120 -0.00000000000000002780 0.44702611293144584037 
-0.06087884791003477652 0.00000000000000000179 0.46872161699243031219 
-0.06608589750684389086 -0.00000000000000012011 0.49042974741659001170 
-0.07101647325976316594 -0.00000000000000006597 0.51210733167672695121 
-0.07567850047854052242 -0.00000000000000011514 0.53371301710371921168 
-0.08007980291515440219 0.00000000000000002538 0.55520739513165395795 
-0.08422809130058510341 -0.00000000000000011122 0.57655310120336955571 
-0.08813095372100845926 -0.00000000000000003537 0.59771489173489289470 
-0.09179584768546585061 -0.00000000000000004850 0.61865969962889189038 
-0.09523009374130056437 -0.00000000000000004713 0.63935666988897765783 
-0.09844087049849697957 -0.00000000000000007141 0.65977717692199389088 
-0.10143521092937970995 0.00000000000000003365 0.67989482512755083921 
-0.10421999981585210182 -0.00000000000000012595 0.69968543434520580337 
-0.10680197222238109467 -0.00000000000000008713 0.71912699501478571928 
-0.10918771287920138457 -0.00000000000000006186 0.73819937577327632283 
-0.11138365636663080660 0.00000000000000000764 0.75688345182602767558 
-0.11339608799791595084 -0.00000000000000015653 0.77515982256315463239 
-0.11523114530457935489 0.00000000000000004357 0.79300745341418932277 
-0.11689482003479900740 -0.00000000000000012763 0.81040246722143871594 
-0.11839296058183089444 -0.00000000000000001151 0.82731721410168457265 
-0.11973127476588787954 -0.00000000000000002890 0.84371967968379146807 
-0.12091533289914239979 -0.00000000000000007020 0.85957324357447428831 
-0.12195057106962124693 -0.00000000000000004025 0.87483676793992526388 
-0.12284314926497642839 0.00000000000000003053 0.88946497622940901007 
-0.12359789705639170898 -0.00000000000000007230 0.90340907116514623798 
-0.12421928692513505010 -0.00000000000000001944 0.91661753670939716265 
-0.12471225743286097620 -0.00000000000000010809 0.92903706886841841417 
-0.12508163056288254533 -0.00000000000000007945 0.94061358341784062631 
-0.12533211529373652904 0.00000000000000000215 0.95129325380281470892 
-0.12546831109397707515 -0.00000000000000012617 0.96102353875019397300 
-0.12549471131452744066 0.00000000000000003631 0.96975418255171896842 
-0.12541570645879232537 -0.00000000000000008460 0.97743837982156955846 
-0.12523558731434850100 -0.00000000000000001641 0.98403441732676100173 
-0.12495854793337030086 0.00000000000000000138 0.98950761126001196555 
-0.12458868845202016040 -0.00000000000000005374 0.99383219708033720963 
-0.12413001774184617698 0.00000000000000004442 0.99699294334995114397 
-0.12358645588879166310 -0.00000000000000001954 0.99898636119448702697 
-0.12296183649773406721 0.00000000000000006980 0.99982145329588456573 
-0.12225990882254934855 -0.00000000000000014575 0.99951999691324577846 
-0.12148433972354961974 -0.00000000000000007096 0.99811638934436242021 
-0.12063758233838944856 -0.00000000000000004302 0.99565710551737962586 
-0.11972406482668632166 -0.00000000000000004138 0.99219982924530225610 
-0.11874750416200893777 -0.00000000000000004494 0.98781232462168411246 
-0.11771124986852044003 0.00000000000000006352 0.98257111407281860771 
-0.11661857665018629526 -0.00000000000000007966 0.97656002625536808548 
-0.11547268541874405878 0.00000000000000005244 0.96986867148575706121 
-0.11427670419738004959 -0.00000000000000018815 0.96259089560819188769 
-0.11303368890985240891 -0.00000000000000008248 0.95482325582168792177 
-0.11174662406508507895 -0.00000000000000008782 0.94666355448076722201 
-0.11041842334743819098 0.00000000000000003489 0.93820945960422874599 
-0.10905193012292858923 0.00000000000000002365 0.92955723400477796581 
-0.10764991787164171488 0.00000000000000003991 0.92080058873674841546 
-0.10621509055646607966 -0.00000000000000002522 0.91202967103183818498 
-0.10475008293808188431 -0.00000000000000001210 0.90333019208729348204 
-0.10325746084588129092 -0.00000000000000000761 0.89478269598538873186 
-0.10173972141416759429 0.00000000000000008621 0.88646196763037965471 
-0.10019929329261428874 -0.00000000000000006732 0.87843657484538895108 
-0.09863853683954446061 0.00000000000000016418 0.87076853762228423328 
-0.09705974430613850679 -0.00000000000000009433 0.86351311590202273205 
-0.09546514001919492731 0.00000000000000001863 0.85671870611838152332 
-0.09385688056956305314 0.00000000000000001060 0.85042683600205393191 
-0.09223705501284229502 0.00000000000000001720 0.84467224675462293515 
-0.09060768508840955082 0.00000000000000000587 0.83948305160629732580 
-0.08897072546229095602 -0.00000000000000004525 0.83488095991530042461 
-0.08732806399885502391 0.00000000000000003580 0.83088155630299442844 
-0.08568152206575938012 -0.00000000000000004892 0.82749462480487212535 
-0.08403285487604747472 -0.00000000000000004069 0.82472450861605661743 
-0.08238375187077051631 0.00000000000000009669 0.82257049668848503110 
-0.08073583714498845654 -0.00000000000000004001 0.82102722916762482797 
-0.07909066991951217707 0.00000000000000000329 0.82008511441586573465 
-0.07744974506026314209 -0.00000000000000000979 0.81973075113800075719 
-0.07581449364666861812 0.00000000000000005905 0.81994734988546380539 
-0.07418628359006447515 -0.00000000000000006029 0.82071514895734998252 
-0.07256642030266585719 0.00000000000000003734 0.82201182042768028424 
-0.07095614741726319341 -0.00000000000000011433 0.82381286270232345625 
-0.06935664755743806142 0.00000000000000007912 0.82609197663995848071 
-0.06776904315773962795 -0.00000000000000006127 0.82882142285585913566 
-0.06619439733294980865 -0.00000000000000001549 0.83197235836290961419 
-0.06463371479526140717 -0.00000000000000003300 0.83551515119033115120 
-0.06308794281793173031 0.00000000000000008010 0.83941967205722800571 
-0.06155797224372572263 -0.00000000000000010015 0.84365556256629548049 
-0.06004463853624188163 0.00000000000000008421 0.84819247972451017326 
-0.05854872287202280562 -0.00000000000000003778 0.85300031689451449868 
-0.05707095327117907291 0.00000000000000016263 0.85804940153522957225 
-0.05561200576410710306 0.00000000000000003160 0.86331067030575348031 
-0.05417250559175707664 0.00000000000000009132 0.86875582228577008514 
-0.05275302843680369780 0.00000000000000004524 0.87435745121147900871 
-0.05135410168298757544 0.00000000000000004834 0.88008915774152118860 
-0.04997620569983404065 -0.00000000000000004569 0.88592564285543251579 
-0.04861977514991091404 0.00000000000000006900 0.89184278355011004091 
-0.04728520031575766946 -0.00000000000000010568 0.89781768483291291005 
-0.04597282844361262610 0.00000000000000005467 0.90382855254794169930 
-0.04468296510106473107 -0.00000000000000009005 0.90985401963080836385 
-0.04341587554578160008 0.00000000000000001783 0.91587199179344591649 
-0.04217178610249297521 0.00000000000000000589 0.92185835454421116708 
-0.04095088554545830289 0.00000000000000010568 0.92778578972973901884 
-0.03975332648370197286 -0.00000000000000001670 0.93362284736253176032 
-0.03857922674636439508 -0.00000000000000005867 0.93933334454113703860 
-0.03742867076559809603 -0.00000000000000001191 0.94487611149057448845 
-0.03630171095451412144 0.00000000000000004078 0.95020506994677944590 
-0.03519922375709743506 0.00000000000000005429 0.95526960712676989296 
-0.03412085314067658803 0.00000000000000015829 0.96001519607120555655 
-0.03306598165842779963 -0.00000000000000002563 0.96438420762337895287 
-0.03203455132287269524 0.00000000000000002185 0.96831685869236483466 
-0.03102647865258671353 0.00000000000000004340 0.97175224417170869007 
-0.03004165598385749245 0.00000000000000014366 0.97462940475191806033 
-0.02907995276232603482 -0.00000000000000004247 0.97688838897491991897 
-0.02814121681299478969 0.00000000000000020873 0.97847128177295672469 
-0.02722527558709907439 0.00000000000000000775 0.97932332800065946543 
-0.02633193738445449225 0.00000000000000013872 0.97939449795795141540 
-0.02546099255001553485 -0.00000000000000001311 0.97864141456532949270 
-0.02461221464348713542 0.00000000000000006721 0.97702929140631344929 
-0.02378536158095463648 0.00000000000000005197 0.97453362934338938484 
-0.02298017674760344589 0.00000000000000021337 0.97114152590111868513 
-0.02219639008071255110 0.00000000000000001455 0.96685252893483764058 
-0.02143371912221516892 0.00000000000000006145 0.96167902058715326596 
-0.02069187004022103246 0.00000000000000005864 0.95564615442978073645 
-0.01997053861900088129 0.00000000000000004253 0.94879139220770636332 
-0.01926800283028422961 0.00000000000000001524 0.94116370010483230146 
-0.01858542728680952563 0.00000000000000002384 0.93282247059462886085 
-0.01792247803231593328 0.00000000000000002468 0.92383623681549265072 
-0.01727881458088614125 0.00000000000000012198 0.91428124364520557688 
-0.01665409073451338748 0.00000000000000001214 0.90423993449485262630 
-0.01604795536852894958 0.00000000000000007043 0.89379940625178322389 
-0.01546005318497816437 0.00000000000000001442 0.88304987748535812564 
-0.01489002543410410627 0.00000000000000010196 0.87208320750920353959 
-0.01433751060416535959 0.00000000000000004404 0.86099149654007134380 
-0.01380214507987551076 0.00000000000000005574 0.84986579025954600564 
-0.01328356376981187047 0.00000000000000013310 0.83879490573347659232 
-0.01278140070319587138 0.00000000000000006359 0.82786438996900513221 
-0.01229528959649502269 -0.00000000000000002123 0.81715561743260034522 
-0.01182486439034727624 0.00000000000000005044 0.80674502861879959781 
-0.01136975975734468708 0.00000000000000002465 0.79670350822585001005 
-0.01092961158125754784 0.00000000000000011009 0.78709589861990769677 
-0.01050405740830962810 0.00000000000000005240 0.77798064200105465638 
-0.01009273687115173727 0.00000000000000009544 0.76940954296245545052 
-0.00969529208620028247 0.00000000000000000355 0.76142764189592648805 
-0.00931136802503951776 0.00000000000000017363 0.75407318888040331117 
-0.00894061286060190280 0.00000000000000010864 0.74737770723351659719 
-0.00858267828885954723 0.00000000000000001119 0.74136613575332621640 
-0.00823721982677365697 -0.00000000000000001470 0.73605703877407202551 
-0.00790389708726214196 0.00000000000000007364 0.73146287345814886560 
-0.00758237403195267251 -0.00000000000000002091 0.72759030420304127151 
-0.00727231920249492899 0.00000000000000005932 0.72444055461826517561 
-0.00697340593120949429 0.00000000000000010382 0.72200978819007444187 
-0.00668531253185395032 0.00000000000000013281 0.72028950947197190047 
-0.00640772247128251152 0.00000000000000000520 0.71926697839257802691 
-0.00614032452277706118 0.00000000000000014251 0.71892563103874962405 
-0.00588281290181811006 0.00000000000000007862 0.71924550103429130132 
-0.00563488738506312016 0.00000000000000014934 0.72020363637968776160 
-0.00539625341328621097 0.00000000000000000195 0.72177450733543280226 
-0.00516662217902777356 0.00000000000000002024 0.72393040161269006649 
-0.00494571069968979295 -0.00000000000000000428 0.72664180377430243052 
-0.00473324187680118722 0.00000000000000010156 0.72987775634261264912 
-0.00452894454216322059 -0.00000000000000003270 0.73360620065570403270 
-0.00433255349157285127 0.00000000000000004974 0.73779429600943080558 
-0.00414380950680393566 0.00000000000000006687 0.74240871606897762547 
-0.00396245936651363605 0.00000000000000014360 0.74741592193146477729 
-0.00378825584672072861 0.00000000000000005343 0.75278241157187975041 
-0.00362095771148938711 0.00000000000000003011 0.75847494571040197098 
-0.00346032969443058969 0.00000000000000009130 0.76446075040244643173 
-0.00330614247161924992 0.00000000000000005332 0.77070769687621898392 
-0.00315817262649970010 0.00000000000000000683 0.77718445932913093888 
-0.00301620260734509820 0.00000000000000008982 0.78386065154706163760 
-0.00288002067780222326 0.00000000000000003070 0.79070694333218283223 
-0.00274942086104741634 0.00000000000000007766 0.79769515781886723982 
-0.00262420287805365145 0.00000000000000003216 0.80479835082595729823 
-0.00250417208044980463 0.00000000000000002528 0.81199087077812681645 
-0.00238913937843523950 0.00000000000000009172 0.81924829717739799939 
-0.00227892116419490393 0.00000000000000013589 0.82654689120050861550 
-0.00217333923123877015 -0.00000000000000001424 0.83386250978872400452 
-0.00207222069007377812 0.00000000000000007240 0.84116931669626360257 
-0.00197539788059271273 -0.00000000000000000638 0.84843856258605720999 
-0.00188270828155594878 0.00000000000000007813 0.85563759793135274467 
-0.00179399441751222546 -0.00000000000000002240 0.86272920335723235485 
-0.00170910376349684562 0.00000000000000003453 0.86967126629539337479 
-0.00162788864782396295 0.00000000000000008353 0.87641679498996472031 
-0.00155020615327238777 0.00000000000000015284 0.88291423663478274531 
-0.00147705113433573747 0.00000000000000015815 0.88910805229048062159 
-0.00140736899546631939 -0.00000000000000005902 0.89493949449965981557 
-0.00134074326305354112 0.00000000000000006909 0.90034753205984630053 
-0.00127705306127083628 0.00000000000000003660 0.90526986857640134865 
-0.00121618155216770521 0.00000000000000001604 0.90964400593672878337 
-0.00115801584278968448 0.00000000000000000023 0.91340830976826115073 
-0.00110244689190524430 0.00000000000000010380 0.91650304135291915664 
-0.00104936941654331230 0.00000000000000025767 0.91887138873640639147 
-0.00099868179852511275 0.00000000000000005983 0.92046080954338038715 
-0.00095028599116983115 0.00000000000000006622 0.92122483248737863093 
-0.00090408742633095842 0.00000000000000009411 0.92112500380612793993 
-0.00085999492191959838 0.00000000000000014813 0.92013267764088990663 
-0.00081792059004816308 0.00000000000000012069 0.91823046661260621093 
-0.00077777974592769009 -0.00000000000000002632 0.91541325691659169994 
-0.00073949081763191702 0.00000000000000020531 0.91168875505231050660 
-0.00070297525684048616 0.00000000000000010115 0.90707757655666121366 
-0.00066815745065416129 0.00000000000000002925 0.90161291542417321132 
-0.00063383151719257355 0.00000000000000012946 0.89533984995637849735 
-0.00060084834038776785 -0.00000000000000008148 0.88831434950776000381 
-0.00056942781156130401 0.00000000000000012672 0.88060204929032548371 
-0.00053950116795142616 0.00000000000000006151 0.87227685886258699011 
-0.00051100236809674903 0.00000000000000007403 0.86341946555341775316 
-0.00048386800155009586 0.00000000000000010396 0.85411578792026088269 
-0.00045803720058287958 0.00000000000000009836 0.84445542721473321190 
-0.00043345155389827675 -0.00000000000000001326 0.83453015731757740348 
-0.00041005502236770566 0.00000000000000010114 0.82443248613451092233 
-0.00038779385679679307 -0.00000000000000004147 0.81425431431046602082 
-0.00036661651772647112 0.00000000000000007466 0.80408571051728328083 
-0.00034647359726888217 -0.00000000000000001535 0.79401381661732761685 
-0.00032731774297395865 0.00000000000000003277 0.78412189076299065871 
-0.00030910358371679552 0.00000000000000015416 0.77448849197694369373 
-0.00029178765759752055 0.00000000000000016767 0.76518680595663768340 
-0.00027532834183682776 0.00000000000000001263 0.75628410872380391616 
-0.00025968578465175639 0.00000000000000006197 0.74784136224623343203 
-0.00024482183908960096 0.00000000000000009885 0.73991293423705184473 
-0.00023069999880007369 0.00000000000000014807 0.73254643292398458065 
-0.00021728533571957993 0.00000000000000003818 0.72578264661452351891 
-0.00020454443964167701 0.00000000000000005126 0.71965557730059481756 
-0.00019244535964576105 0.00000000000000004495 0.71419255728922736992 
-0.00018095754735462374 0.00000000000000016744 0.70941443785878977035 
-0.00017005180198699857 0.00000000000000010679 0.70533583917315867406 
-0.00015970021717851408 0.00000000000000011743 0.70196545109319219424 
-0.00014987612953033856 0.00000000000000001530 0.69930637506577697504 
-0.00014055406885720998 0.00000000000000012182 0.69735649791001719233 
-0.00013170971009596145 0.00000000000000012754 0.69610888902729217698 
-0.00012331982684123767 0.00000000000000006313 0.69555221331081107383 
-0.00011536224647013983 -0.00000000000000001027 0.69567115279901536873 
-0.00010781580681989596 -0.00000000000000001349 0.69644683088763248424 
-0.00010066031438275352 0.00000000000000006478 0.69785723367266228045 
-0.00009387650397774928 0.00000000000000003520 0.69987762372942008415 
-0.00008744599986596947 -0.00000000000000013247 0.70248094233201541225 
-0.00008135127826883755 0.00000000000000005166 0.70563819677663364160 
-0.00007557563125345891 -0.00000000000000002304 0.70931883008604090790 
-0.00007010313194864646 0.00000000000000007443 0.71349107093889307940 
-0.00006491860105232757 0.00000000000000007035 0.71812226218412766876 
-0.00006000757459664126 0.00000000000000001468 0.72317916676755467087 
-0.00005535627293155624 -0.00000000000000000609 0.72862825031532774123 
-0.00005095157089408431 0.00000000000000014917 0.73443593998854417304 
-0.00004678096912386116 -0.00000000000000003976 0.74056885954674123163 
-0.00004283256649372510 0.00000000000000001644 0.74699404083781828501 
-0.00003909503361751933 -0.00000000000000002312 0.75367911217062422136 
-0.00003555758740467838 0.00000000000000003547 0.76059246422692439182 
-0.00003220996662233362 0.00000000000000000922 0.76770339433472500890 
-0.00002904240844055735 0.00000000000000013763 0.77498223005799360408 
-0.00002604562591946639 0.00000000000000002833 0.78240043316167728893 
-0.00002321078641283017 -0.00000000000000000301 0.78993068508858466092 
-0.00002052949085447931 0.00000000000000011813 0.79754695496697169954 
-0.00001799375389865729 0.00000000000000010945 0.80522451729055233294 
-0.00001559598488214053 0.00000000000000011991 0.81293963859135465189 
-0.00001332896958330347 0.00000000000000005998 0.82066867203974902534 
-0.00001118585274470195 0.00000000000000001762 0.82838680895927929715 
-0.00000916012133746977 0.00000000000000018603 0.83606680524586141079 
-0.00000724558853492105 -0.00000000000000001608 0.84367788611294292078 
-0.00000543637837414559 0.00000000000000003849 0.85118494230277308432 
-0.00000372691107626933 -0.00000000000000005626 0.85854806651822102026 
-0.00000211188900345961 0.00000000000000009330 0.86572243440120433267 
-0.00000058628322682186 0.00000000000000002634 0.87265850515486831362 
-0.00000000000000009581 0.00000000000000005648 0.87930249908817181836 
-0.00000000000000000562 0.00000000000000012105 0.88559709995614355194 
-0.00000000000000006103 0.00000000000000002457 0.89148232662400284099 
0.00000000000000001179 -0.00000000000000003025 0.89689651946833925944 
-0.00000000000000008645 0.00000000000000003378 0.90177739063490891525 
-0.00000000000000000826 0.00000000000000007502 0.90606309273009011385 
-0.00000000000000013602 0.00000000000000005388 0.90969326693126528749 
0.00000000000000001655 -0.00000000000000003107 0.91261003827397113586 
0.00000000000000001158 -0.00000000000000001024 0.91475893259237317512 
0.00000000000000006099 0.00000000000000003361 0.91608969596722245043 
-0.00000000000000007358 0.00000000000000007079 0.91655700338569223717 
0.00000000000000002311 -0.00000000000000002950 0.91612104853080711386 
-0.00000000000000006175 0.00000000000000001185 0.91474801114235171351 
-0.00000000000000001967 -0.00000000000000009136 0.91241040221601066307 
-0.00000000000000006294 0.00000000000000010059 0.90908729045259295543 
0.00000000000000005856 -0.00000000000000001516 0.90476441587454559112 
-0.00000000000000007462 0.00000000000000002677 0.89943419844548544440 
-0.00000000000000000207 0.00000000000000004937 0.89309565092060483327 
-0.00000000000000002058 0.00000000000000018056 0.88575420608510635478 
0.00000000000000000426 -0.00000000000000000210 0.87742146906809825868 
-0.00000000000000003444 0.00000000000000009166 0.86811490561228443763 
0.00000000000000012844 0.00000000000000003211 0.85785747709348691981 
-0.00000000000000003010 0.00000000000000014246 0.84667723277211892619 
0.00000000000000002285 0.00000000000000009109 0.83460686926972682542 
-0.00000000000000011294 0.00000000000000002864 0.82168326664081503541 
0.00000000000000009467 -0.00000000000000010632 0.80794700969123300904 
-0.00000000000000006044 0.00000000000000013392 0.79344190241210110770 
-0.00000000000000003889 -0.00000000000000001673 0.77821448258036940437 
-0.00000000000000002480 -0.00000000000000002812 0.76231354274683171823 
-0.00000000000000002307 0.00000000000000002223 0.74578966300881222029 
0.00000000000000003787 0.00000000000000002644 0.72869476016308554200 
-0.00000000000000002630 0.00000000000000008990 0.71108165706682913143 
-0.00000000000000004501 -0.00000000000000004106 0.69300367530958695284 
0.00000000000000000731 0.00000000000000009248 0.67451425362379513473 
0.00000000000000000700 0.00000000000000002745 0.65566659383974701392 
0.00000000000000002816 0.00000000000000002759 0.63651333562540879374 
-0.00000000000000007105 0.00000000000000004336 0.61710626074321717205 
-0.00000000000000013532 0.00000000017197907423 0.59749602710460836263 
0.00000000000000000853 0.00000003528659485880 0.57773193250725984882 
0.00000000000000005152 0.00000052531419715746 0.55786170759780373540 
0.00000000000000008817 0.00000320450577012682 0.53793133731142250831 
0.00000000000000002664 0.00001238119261228202 0.51798490979618661001 
-0.00000000000000002965 0.00003621151684334852 0.49806449163082056053 
-0.00000000000000001450 0.00008778483853304248 0.47821002798625561470 
-0.00000000000000011702 0.00018590880476510605 0.45845926626016408889 
0.00000000000000000414 0.00035554640354416102 0.43884770162604957999 
-0.00000000000000007450 0.00062790170098478567 0.41940854288078521783 
0.00000000000000005734 0.00104018013275939129 0.40017383006067425155 
-0.00000000000000007895 0.00163506698046886074 0.38117124881533548386 
0.00000000000000001678 0.00245997700871459059 0.36242683492850508165 
0.00000000000000001139 0.00356613152282293918 0.34396466248129015097 
-0.00000000000000005732 0.00500751816134375419 0.32580659514705279101 
-0.00000000000000002071 0.00683978497093954731 0.30797233960474634795 
0.00000000000000011504 0.00911911479486663366 0.29047950815209716557 
0.00000000000000002145 0.01190111954071362659 0.27334368913991613503 
0.00000000000000009275 0.01523978706513861615 0.25657852392667951369 
-0.00000000000000014436 0.01918650664154736285 0.24019578913436082090 
0.00000000000000002958 0.02378919254840571734 0.22420548307082435735 
-0.00000000000000007448 0.02909151941761642726 0.20861591526966649646 
-0.00000000000000007242 0.03513227772378059444 0.19343379818409037196 
-0.00000000000000007930 0.04194485322846384923 0.17866434015627358223 
-0.00000000000000003215 0.04955683032903854257 0.16431133886695672985 
-0.00000000000000008900 0.05798971607968524122 0.15037727455095836748 
-0.00000000000000004104 0.06725877911270038145 0.13686340234247568182 
-0.00000000000000004646 0.07737299573837302935 0.12376984318892510217 
-0.00000000000000002341 0.08833509408089165738 0.11109567284336231696 
-0.00000000000000009809 0.10014168615232964255 0.09883900851297286461 
-0.00000000000000005088 0.11278347721288797811 0.08699709280453113425 
-0.00000000000000009257 0.12624554155142447831 0.07556637466702188777 
-0.00000000000000005432 0.14050765388765382169 0.06454258708671145595 
0.00000000000000003528 0.15554466589250992570 0.05392082134088822115 
0.00000000000000001711 0.17132691779739070426 0.04369559766327113515 
-0.00000000000000001626 0.18782067567305676947 0.03386093221681733823 
0.00000000000000000259 0.20498858566681069093 0.02441040030843283359 
-0.00000000000000012461 0.22279013725948618174 0.01533719581504962466 
0.00000000000000001557 0.24118212841379485512 0.00663418682182934268 
-0.00000000000000015901 0.26011912630942979341 -0.00170603249895567941 
-0.00000000000000010011 0.27955391817880048677 -0.00969109371534141242 
0.00000000000000000773 0.29943794755503960747 -0.01732880959502767007 
0.00000000000000000740 0.31972173200884346222 -0.02462713310391994107 
-0.00000000000000006820 0.34035525917374231941 -0.03159411983547002339 
-0.00000000000000002840 0.36128835853387147869 -0.03823789374934834923 
0.00000000000000000791 0.38247104706989665246 -0.04456661608728168522 
-0.00000000000000009460 0.40385384742479796261 -0.05058845732535937473 
-0.00000000000000003939 0.42538807776074444300 -0.05631157201559756909 
0.00000000000000001698 0.44702611293144606242 -0.06174407636484205431 
0.00000000000000000099 0.46872161699243053423 -0.06689402839605157469 
-0.00000000000000001620 0.49042974741659012272 -0.07176941053544132199 
-0.00000000000000006973 0.51210733167672684019 -0.07637811446873632448 
-0.00000000000000000051 0.53371301710371910065 -0.08072792811075146791 
-0.00000000000000010623 0.55520739513165395795 -0.08482652453450920116 
0.00000000000000001977 0.57655310120336944468 -0.08868145270902796917 
-0.00000000000000008483 0.59771489173489289470 -0.09230012989861414996 
-0.00000000000000011928 0.61865969962889177935 -0.09568983558087440500 
-0.00000000000000000525 0.63935666988897743579 -0.09885770674560777349 
-0.00000000000000004887 0.65977717692199377986 -0.10181073444215575641 
-0.00000000000000000693 0.67989482512755061716 -0.10455576144857643694 
-0.00000000000000008828 0.69968543434520569235 -0.10709948094209971459 
-0.00000000000000000316 0.71912699501478549724 -0.10944843605661884467 
-0.00000000000000003657 0.73819937577327632283 -0.11160902021942882556 
-0.00000000000000009642 0.75688345182602767558 -0.11358747816595089752 
-0.00000000000000011290 0.77515982256315463239 -0.11538990753775930920 
-0.00000000000000007768 0.79300745341418943379 -0.11702226097575402219 
-0.00000000000000004022 0.81040246722143860492 -0.11849034862681255553 
-0.00000000000000000833 0.82731721410168479469 -0.11979984098861765074 
0.00000000000000005289 0.84371967968379113501 -0.12095627202359102159 
0.00000000000000003453 0.85957324357447417729 -0.12196504247892595019 
0.00000000000000006324 0.87483676793992504184 -0.12283227803488866448 
-0.00000000000000005665 0.88946497622940901007 -0.12356277500279107262 
-0.00000000000000011517 0.90340907116514612696 -0.12416097365623762760 
-0.00000000000000003787 0.91661753670939738470 -0.12463178139779808318 
0.00000000000000000364 0.92903706886841819212 -0.12497999008931551246 
-0.00000000000000009278 0.94061358341784084836 -0.12521027960811462187 
0.00000000000000001548 0.95129325380281493096 -0.12532722131893148099 
0.00000000000000000269 0.96102353872925516676 -0.12533528143872085803 
-0.00000000000000006479 0.96975416571528494369 -0.12523882427532184725 
-0.00000000000000008879 0.97743806031365021436 -0.12504211532451936506 
0.00000000000000005708 0.98403241926930629102 -0.12474932421332275700 
-0.00000000000000005608 0.98950024617600196297 -0.12436452748030694948 
-0.00000000000000007397 0.99381217334795413088 -0.12389171118661790327 
-0.00000000000000011760 0.99694823169702584398 -0.12333477335375875317 
0.00000000000000004633 0.99889934401013769083 -0.12269752622653655461 
0.00000000000000006264 0.99966841653538429657 -0.12198369836157903212 
-0.00000000000000000945 0.99927097541944653880 -0.12119693654363973556 
-0.00000000000000006606 0.99773534452732126621 -0.12033995285418311316 
0.00000000000000003451 0.99510239455448634693 -0.11941658412455269378 
-0.00000000000000011861 0.99142491414319056098 -0.11843082365042920112 
-0.00000000000000007439 0.98676666514648070372 -0.11738600293192319457 
-0.00000000000000011773 0.98120118878003503848 -0.11628537908333341777 
-0.00000000000000010080 0.97481042914855298154 -0.11513213582788353606 
-0.00000000000000006573 0.96768323707126435718 -0.11392938437008810759 
-0.00000000000000000977 0.95991381144221943345 -0.11268016415557266519 
-0.00000000000000003622 0.95160012843945029903 -0.11138744352843271690 
-0.00000000000000005080 0.94284240140741848446 -0.11005412029637649807 
-0.00000000000000000037 0.93374160666186734048 -0.10868302221393906504 
-0.00000000000000009611 0.92439810314504788913 -0.10727690739400745634 
-0.00000000000000004867 0.91491036702086991905 -0.10583846465776512724 
0.00000000000000004219 0.90537385608694953554 -0.10437031383295758413 
-0.00000000000000016261 0.89588001337220057874 -0.10287500601009813561 
0.00000000000000006873 0.88651541451465520893 -0.10135502376590767304 
-0.00000000000000007570 0.87736105946972176017 -0.09981278136289428726 
-0.00000000000000006439 0.86849180575446549568 -0.09825062493355328497 
-0.00000000000000001336 0.85997593774255032262 -0.09667083265720766150 
-0.00000000000000001215 0.85187486443066184894 -0.09507561493702215705 
0.00000000000000006222 0.84424293653848148100 -0.09346711458420800533 
-0.00000000000000000938 0.83712737271648351989 -0.09184740701591542766 
-0.00000000000000005413 0.83056828395556892008 -0.09021850047276688822 
-0.00000000000000002035 0.82459878495880500893 -0.08858233626144627892 
0.00000000000000004382 0.81924518119110956160 -0.08694078902721154301 
0.00000000000000008384 0.81452722051488168908 -0.08529566706065606907 
-0.00000000000000003766 0.81045839870062008625 -0.08364871264251737271 
-0.00000000000000011033 0.80704630862889614740 -0.08200160242979540048 
-0.00000000000000003257 0.80429302363625487793 -0.08035594788594088711 
-0.00000000000000003915 0.80219550617015178418 -0.07871329575737570639 
-0.00000000000000007270 0.80074603367916130647 -0.07707512859812511163 
-0.00000000000000003002 0.79993263445091322694 -0.07544286534389105237 
0.00000000000000001964 0.79973952690209615390 -0.07381786193645174798 
0.00000000000000006271 0.80014755660655934033 -0.07220141199886159766 
-0.00000000000000006716 0.80113462610635699512 -0.07059474756153656660 
-0.00000000000000005806 0.80267611327673049626 -0.06899903983893868054 
0.00000000000000010682 0.80474527470212775526 -0.06741540005623819498 
-0.00000000000000009215 0.80731363116119159162 -0.06584488032501210897 
-0.00000000000000004680 0.81035133291075411854 -0.06428847456674793848 
-0.00000000000000000085 0.81382750300038975144 -0.06274711948266012418 
0.00000000000000005183 0.81771055733928632581 -0.06122169556807979113 
-0.00000000000000004060 0.82196850067652282856 -0.05971302816947336722 
-0.00000000000000004196 0.82656919804544648489 -0.05822188858194637245 
-0.00000000000000012441 0.83148062156457458460 -0.05674899518492784040 
-0.00000000000000001643 0.83667107278362629064 -0.05529501461358507508 
-0.00000000000000008732 0.84210938101656662713 -0.05386056296339784139 
-0.00000000000000007435 0.84776507831687308858 -0.05244620702522407446 
-0.00000000000000001092 0.85360855192660134438 -0.05105246554810217302 
-0.00000000000000000220 0.85961117517341634198 -0.04967981052698910299 
-0.00000000000000006429 0.86574541790161885224 -0.04832866851257615337 
-0.00000000000000003769 0.87198493760744455461 -0.04699942194031610926 
-0.00000000000000005724 0.87830465250783473774 -0.04569241047577642101 
-0.00000000000000002662 0.88468079060089022114 -0.04440793237344984462 
-0.00000000000000008036 0.89109075930995318426 -0.04314624584616970349 
0.00000000000000003407 0.89751246835785036815 -0.04190757044231836759 
0.00000000000000002409 0.90392317191990101399 -0.04069208842806119192 
-0.00000000000000000312 0.91029817200394280707 -0.03949994617189724055 
-0.00000000000000002725 0.91660963128285477541 -0.03833125552888830972 
-0.00000000000000002070 0.92282564117875076626 -0.03718609522200411882 
-0.00000000000000003006 0.92890961703720520415 -0.03606451221810709484 
0.00000000000000003425 0.93482004044715205637 -0.03496709613363050556 
0.00000000000000005285 0.94051053395488470876 -0.03389406496349813003 
0.00000000000000000849 0.94593023143534726849 -0.03284449843268259783 
-0.00000000000000004078 0.95102439492592349968 -0.03181833417511691769 
0.00000000000000000672 0.95573522320252601858 -0.03081548457618275838 
0.00000000000000007464 0.96000279675890098918 -0.02983583808037907487 
0.00000000000000001025 0.96376610657132599780 -0.02887926047868414128 
0.00000000000000003675 0.96696411889558153696 -0.02794559617401498608 
0.00000000000000001668 0.96953683445030480748 -0.02703466942329973977 
-0.00000000000000003040 0.97142630719656741789 -0.02614628555480084243 
0.00000000000000004053 0.97257762861400054444 -0.02528023215943762600 
0.00000000000000001602 0.97294013775065724126 -0.02443628025498001399 
0.00000000000000003611 0.97246910378666728825 -0.02361418542209022670 
-0.00000000000000004050 0.97112762326096546683 -0.02281368891130974505 
0.00000000000000004756 0.96888840988574775892 -0.02203451872019385541 
-0.00000000000000006390 0.96573527350979349038 -0.02127639063990410112 
0.00000000000000000695 0.96166417844371332446 -0.02053900927067587798 
0.00000000000000003235 0.95668383845261695253 -0.01982149596823546897 
0.00000000000000005410 0.95081585224299747239 -0.01912330542495114041 
0.00000000000000004268 0.94409441403786598102 -0.01844499458384391347 
0.00000000000000005220 0.93656565270026048697 -0.01778622867846728350 
-0.00000000000000002353 0.92828666289240557852 -0.01714666656035404232 
-0.00000000000000001583 0.91932429536244630874 -0.01652596151054538595 
-0.00000000000000001835 0.90975377252341116385 -0.01592376201899583718 
0.00000000000000010521 0.89965719149471601312 -0.01533971253195895272 
-0.00000000000000000514 0.88912197083646649087 -0.01477345416752181249 
0.00000000000000001782 0.87823929016715041040 -0.01422462539952725619 
-0.00000000000000001561 0.86710256434277110937 -0.01369286271018623283 
0.00000000000000004249 0.85580598634326843221 -0.01317780121173301941 
0.00000000000000004865 0.84444316577732392304 -0.01267907523753834982 
-0.00000000000000002500 0.83310588319077927277 -0.01219631890313934396 
-0.00000000000000008757 0.82188297427722545319 -0.01172916663769386567 
0.00000000000000003667 0.81085935271083608988 -0.01127725368640319741 
0.00000000000000003091 0.80011517567471057699 -0.01084021658449292082 
0.00000000000000006298 0.78972515223338468626 -0.01041769360336737733 
-0.00000000000000002530 0.77975799146324054067 -0.01000932516958820753 
0.00000000000000000946 0.77027598466141600220 -0.00961475425735323214 
0.00000000000000001310 0.76133471394519491859 -0.00923362675517270907 
-0.00000000000000005435 0.75298287806760999530 -0.00886559180746517711 
0.00000000000000003718 0.74526222524739882402 -0.00851030213180483351 
0.00000000000000007215 0.73820758217985771310 -0.00816741431257405823 
-0.00000000000000005519 0.73184696809945948281 -0.00783658907177936341 
0.00000000000000003225 0.72620178274918745220 -0.00751749151779952315 
0.00000000000000003879 0.72128705732382925042 -0.00720979137284378634 
0.00000000000000000347 0.71711175784831227009 -0.00691316317989274128 
-0.00000000000000001949 0.71367913098611246436 -0.00662728648990682390 
0.00000000000000000455 0.71098708291036272211 -0.00635184603007664036 
-0.00000000000000005302 0.70902858257999790137 -0.00608653185389001865 
0.00000000000000006838 0.70779208151815553585 -0.00583103947378807268 
0.00000000000000007343 0.70726194296741473622 -0.00558506997717021086 
-0.00000000000000001581 0.70741887407753467620 -0.00534833012650522566 
0.00000000000000007482 0.70824035555084707827 -0.00512053244429208458 
