3.897754 3.897754 3.897754 3.897754 3.897754 3.897754 3.897754 3.897754 3.897754 3.832577 3.831619 3.830661 3.829707 3.828749 3.827792 3.826835 3.825878 3.824922 3.823965 3.823009 3.866259 3.865719 3.864752 3.890216 3.889243 3.888271 3.887485 3.886513 3.887083 3.886112 3.885140 3.889433 3.888463 3.887491 3.886519 3.885547 3.884576 3.883615 3.884137 3.883167 3.882196 3.882117 3.881186 3.880216 3.879763 3.878799 3.877831 3.877711 3.876741 3.875772 3.874803 3.873882 3.873784 3.873255 3.874308 3.874175 3.873541 3.872678 3.871836 3.870875 3.870473 3.869505 3.869202 3.868980 3.868031 3.867065 3.866101 3.866073 3.865367 3.864400 3.866512 3.865545 3.864616 3.864294 3.866643 3.865676 3.867982 3.867220 3.892096 3.891123 3.890152 3.889601 3.888628 3.887719 3.886750 3.886625 3.885710 3.899382 3.898593 3.897619 3.897187 3.896852 3.896256 3.895282 3.894309 3.907241 3.906264 3.905294 3.904328 3.908242 3.907265 3.906288 3.907325 3.906399 3.905565 3.905066 3.904525 3.903569 3.902595 3.901619 3.900666 3.902556 3.901620 3.901498 3.900663 3.899688 3.899255 3.898665 3.897780 3.896805 3.895868 3.895218 3.894458 3.893556 3.893872 3.892903 3.891933 3.892785 3.892435 3.893669 3.892748 3.891894 3.895902 3.896882 3.899676 3.898701 3.898486 3.899794 3.899017 3.898043 3.903762 3.904173 3.903342 3.902367 3.902407 3.901752 3.901384 3.900463 3.900536 3.901019 3.900051 3.902574 3.907495 3.906549 3.905710 3.905365 3.904394 3.905422 3.904811 3.904014 3.903038 3.902738 3.901780 3.902402 3.901527 3.901459 3.902828 3.902043 3.905730 3.904755 3.903907 3.902945 3.901989 3.901354 3.900392 3.900461 3.899492 3.899556 3.898582 3.897608 3.898271 3.897416 3.896821 3.895869 3.894969 3.895048 3.894449 3.894605 3.893651 3.893183 3.892215 3.894430 3.896142 3.896093 3.899256 3.898322 3.897347 3.897812 3.899013 3.898319 3.897366 3.896935 3.896037 3.895076 3.895670 3.895070 3.894861 3.894086 3.894026 3.893064 3.892121 3.891515 3.892729 3.892543 3.891583 3.890610 3.891008 3.891623 3.890990 3.890103 3.889859 3.888886 3.888186 3.890083 3.890033 3.889137 3.888171 3.887240 3.888786 3.888352 3.887671 3.889728 3.889025 3.888318 3.888273 3.889082 3.888116 3.887316 3.886636 3.885679 3.886272 3.887283 3.886722 3.888027 3.887073 3.886321 3.885686 3.885039 3.886574 3.885673 3.885768 3.884909 3.884072 3.887700 3.887334 3.887868 3.887607 3.886975 3.890940 3.891200 3.890455 3.890706 3.891997 3.891318 3.891374 3.892406 3.891845 3.891019 3.890496 3.889717 3.890334 3.889955 3.889111 3.888388 3.887572 3.887033 3.886158 3.885595 3.885124 3.884708 3.883759 3.883305 3.882878 3.888058 3.887342 3.887680 3.886957 3.886217 3.885710 3.885813 3.885329 3.884651 3.885770 3.884981 3.884765 3.885112 3.884411 3.883561 3.882919 3.881979 3.881792 3.880883 3.880524 3.879865 3.878978 3.878765 3.878041 3.883793 3.886043 3.887277 3.889025 3.888995 3.888440 3.887736 3.887147 3.886352 3.885495 3.885227 3.884473 3.883520 3.884096 3.883150 3.882896 3.884395 3.884840 3.884519 3.883775 3.882805 3.882820 3.883551 3.882586 3.883596 3.884901 3.884930 3.884266 3.883445 3.883718 3.882766 3.883476 3.882764 3.881836 3.882535 3.884055 3.883390 3.886396 3.885533 3.885491 3.887733 3.887541 3.887455 3.886715 3.887926 3.887114 3.886352 3.888659 3.887931 3.887020 3.887410 3.886496 3.886762 3.886611 3.886138 3.886702 3.886654 3.885753 3.884829 3.884002 3.884730 3.884841 3.886062 3.887643 3.887739 3.887854 3.888174 3.887645 3.886837 3.886717 3.887568 3.886667 3.886098 3.885990 3.886304 3.886132 3.885191 3.884226 3.883786 3.883998 3.885553 3.885207 3.885221 3.884526 3.884246 3.884473 3.886499 3.885818 3.885727 3.885838 3.885310 3.886249 3.886493 3.886872 3.886549 3.886253 3.885712 3.885482 3.886061 3.885331 3.885716 3.884843 3.885056 3.884119 3.883611 3.883228 3.883884 3.883398 3.884402 3.883798 3.888265 3.888808 3.890215 3.889838 3.889567 3.889638 3.889044 3.888456 3.887766 3.886813 3.886499 3.886537 3.887042 3.886579 3.885824 3.885049 3.885564 3.885685 3.884838 3.883982 3.885168 3.884243 3.883717 3.883484 3.887053 3.886088 3.885413 3.884590 3.884211 3.883629 3.883449 3.883279 3.883421 3.882588 3.881916 3.882137 3.884828 3.884598 3.884366 3.883812 3.883179 3.882973 3.884312 3.885152 3.884730 3.883853 3.882905 3.888424 3.887715 3.887563 3.887889 3.888983 3.888983 3.889409 3.889202 3.889861 3.889592 3.889390 3.889154 3.888555 3.887639 3.886935 3.886523 3.885552 3.884689 3.883828 3.883731 3.883632 3.884481 3.884339 3.883778 3.883319 3.885077 3.885408 3.887067 3.886972 3.886298 3.885428 3.884985 3.887097 3.889477 3.889607 3.890120 3.889264 3.888472 3.889114 3.890790 3.890297 3.890708 3.891898 3.892567 3.894057 3.893865 3.893441 3.893619 3.893324 3.892716 3.901665 3.901434 3.900720 3.900164 3.900693 3.899991 3.899497 3.898718 3.898797 3.901639 3.900684 3.899734 3.899652 3.898708 3.897755 3.896888 3.897903 3.898083 3.897522 3.896902 3.896110 3.895900 3.895022 3.895151 3.894383 3.894744 3.896613 3.897058 3.896183 3.895517 3.896615 3.896188 3.895724 3.896855 3.896915 3.896363 3.897265 3.897478 3.899160 3.898349 3.897876 3.897532 3.897934 3.899012 3.899142 3.899631 3.899576 3.899501 3.899320 3.899395 3.900224 3.900900 3.900259 3.901256 3.901431 3.900839 3.900125 3.901075 3.900493 3.899610 3.899405 3.898846 3.898722 3.897905 3.897180 3.896284 3.897064 3.896446 3.896113 3.895165 3.895639 3.895322 3.894413 3.894351 3.895099 3.895355 3.896351 3.896266 3.895607 3.897095 3.899489 3.899865 3.899439 3.898866 3.898630 3.898319 3.897861 3.896948 3.898833 3.898360 3.897827 3.897004 3.899140 3.898918 3.898297 3.898457 3.898681 3.898792 3.899572 3.898865 3.898056 3.898187 3.898433 3.897912 3.897969 3.898563 3.898737 3.898892 3.898220 3.897547 3.897838 3.897150 3.896728 3.896259 3.896487 3.895974 3.896023 3.895571 3.895794 3.895742 3.896230 3.897964 3.898915 3.898409 3.898369 3.898084 3.898411 3.897628 3.897384 3.897411 3.896874 3.896241 3.895427 3.895615 3.895039 3.895241 3.894786 3.894015 3.894717 3.894365 3.893833 3.895186 3.894809 3.895489 3.895121 3.895452 3.895477 3.895399 3.895009 3.895137 3.894503 3.895607 3.895620 3.896314 3.896294 3.895396 3.894841 3.895323 3.894684 3.893770 3.893665 3.893165 3.892949 3.892912 3.893531 3.892802 3.894901 3.894967 3.894176 3.893829 3.894168 3.894734 3.894623 3.894403 3.893919 3.893772 3.893003 3.894534 3.893619 3.893276 3.892428 3.892117 3.891792 3.892799 3.892416 3.891678 3.890858 3.890128 3.889954 3.889199 3.888426 3.889270 3.890023 3.889930 3.889790 3.889687 3.888962 3.890785 3.889881 3.889598 3.889843 3.888972 3.888405 3.887992 3.888370 3.888577 3.887965 3.888194 3.888763 3.888103 3.888350 3.888207 3.887334 3.886660 3.887971 3.889254 3.888720 3.891286 3.890618 3.890426 3.891548 3.890880 3.891800 3.891989 3.892893 3.892034 3.893309 3.893480 3.893628 3.894282 3.893451 3.894205 3.894139 3.894164 3.893943 3.893042 3.893093 3.893298 3.893286 3.894019 3.894032 3.893334 3.894524 3.893791 3.892945 3.892438 3.894015 3.893560 3.893324 3.894251 3.894361 3.894358 3.894248 3.895342 3.895279 3.894597 3.895060 3.894783 3.893920 3.893108 3.893092 3.893179 3.892664 3.891741 3.891636 3.892021 3.891175 3.890249 3.890395 3.890548 3.890241 3.892948 3.892694 3.891773 3.890965 3.891235 3.892415 3.892201 3.892374 3.893769 3.892857 3.892978 3.893045 3.894012 3.893606 3.892976 3.892769 3.892027 3.891978 3.891289 3.890521 3.892979 3.892255 3.892066 3.891322 3.891971 3.891273 3.892923 3.892580 3.892210 3.891923 3.893033 3.892303 3.891748 3.891607 3.891648 3.890859 3.891248 3.890716 3.893730 3.894450 3.894343 3.893477 3.893043 3.895153 3.895279 3.895921 3.895202 3.896139 3.895441 3.895371 3.894562 3.896343 3.896017 3.896378 3.896232 3.896527 3.895560 3.895270 3.896106 3.895898 3.896604 3.896706 3.896420 3.895867 3.895259 3.895112 3.896142 3.895389 3.896013 3.896291 3.897523 3.897394 3.897598 3.897776 3.897962 3.898672 3.899573 3.899487 3.899812 3.899571 3.899477 3.899118 3.898242 3.897630 3.896908 3.895997 3.896352 3.897132 3.897140 3.897480 3.896918 3.897630 3.896850 3.897025 3.896394 3.895828 3.895372 3.895868 3.895353 3.895076 3.894925 3.894673 3.894598 3.894010 3.893844 3.894080 3.894135 3.897168 3.897015 3.896691 3.896230 3.895640 3.896021 3.895461 3.894999 3.895396 3.894687 3.895260 3.896387 3.896334 3.895610 3.895107 3.896192 3.895267 3.895937 3.896276 3.896086 3.897044 3.896170 3.897538 3.897982 3.899644 3.899551 3.900223 3.899977 3.899171 3.898413 3.898354 3.897712 3.898270 3.898399 3.898092 3.898124 3.898253 3.897963 3.898532 3.897940 3.897262 3.896718 3.898415 3.897996 3.897166 3.897509 3.898207 3.898710 3.898989 3.899200 3.899330 3.898884 3.899644 3.898899 3.899231 3.898429 3.898407 3.898224 3.897689 3.899484 3.899918 3.900985 3.900177 3.899617 3.899743 3.899709 3.899082 3.899002 3.900241 3.899689 3.899609 3.898682 3.898670 3.898953 3.898499 3.898488 3.900070 3.900360 3.900664 3.901094 3.901464 3.902133 3.901731 3.902805 3.902637 3.902178 3.901769 3.902203 3.902286 3.901794 3.901104 3.901487 3.901790 3.901099 3.900454 3.900694 3.900434 3.900089 3.899497 3.899907 3.899880 3.899618 3.899988 3.900149 3.899716 3.899756 3.899001 3.898947 3.898412 3.899578 3.899265 3.899597 3.899391 3.898909 3.898385 3.898707 3.899002 3.898648 3.899479 3.900506 3.900141 3.900991 3.901776 3.901674 3.900813 3.900365 3.899748 3.899567 3.899396 3.898892 3.898856 3.899748 3.899873 3.898966 3.899038 3.898779 3.898302 3.897849 3.898153 3.897557 3.897645 3.899145 3.901847 3.900973 3.900830 3.900702 3.901464 3.902051 3.901421 3.902457 3.901778 3.901052 3.901383 3.901605 3.900837 3.900575 3.899726 3.898897 3.899042 3.900315 3.900066 3.900200 3.900996 3.903596 3.904014 3.903534 3.902700 3.901894 3.902395 3.901987 3.902942 3.903040 3.902479 3.902014 3.901536 3.901318 3.900993 3.901238 3.901009 3.900298 3.899660 3.900222 3.901204 3.901336 3.900963 3.900429 3.902919 3.903094 3.903293 3.903254 3.903123 3.902640 3.901997 3.901639 3.900871 3.900754 3.901034 3.900611 3.900036 3.899450 3.898648 3.898398 3.899596 3.899392 3.899203 3.898867 3.899532 3.901267 3.901316 3.900937 3.901149 3.900831 3.901146 3.901323 3.901268 3.900880 3.901948 3.902622 3.902069 3.902340 3.901569 3.901709 3.902637 3.902175 3.901325 3.901383 3.901859 3.902184 3.903333 3.904328 3.904515 3.905108 3.904751 3.904283 3.904335 3.904373 3.903949 3.904081 3.903884 3.903945 3.904613 3.904424 3.903758 3.903311 3.902920 3.902566 3.903026 3.902973 3.903264 3.903203 3.903690 3.902975 3.902707 3.902410 3.902189 3.901447 3.900649 3.899937 3.899941 3.899419 3.899014 3.899174 3.899480 3.899276 3.899447 3.898846 3.899314 3.902189 3.901992 3.902010 3.901545 3.901858 3.901817 3.901852 3.901351 3.901220 3.901191 3.900389 3.900504 3.900396 3.899709 3.900835 3.901500 3.901546 3.901236 3.900797 3.900938 3.901021 3.900495 3.900273 3.899967 3.900114 3.901125 3.902057 3.902501 3.902417 3.902711 3.903018 3.902189 3.901289 3.900709 3.900544 3.900065 3.899913 3.899748 3.900162 3.899725 3.899818 3.900038 3.899243 3.898739 3.898801 3.898953 3.898991 3.899097 3.899583 3.898908 3.898708 3.899674 3.900064 3.899407 3.899323 3.900201 3.899536 3.899578 3.898978 3.900404 3.901125 3.900175 3.899847 3.901425 3.900788 3.902092 3.902855 3.902431 3.902006 3.901844 3.900951 3.901720 3.901947 3.902222 3.901855 3.901085 3.900213 3.899279 3.898406 3.898230 3.898146 3.899168 3.898942 3.898506 3.898035 3.898319 3.897904 3.897490 3.896862 3.897988 3.898748 3.898778 3.898736 3.898327 3.898301 3.897988 3.897153 3.897703 3.897704 3.897646 3.896974 3.897147 3.897966 3.897551 3.897761 3.896920 3.896626 3.896647 3.896004 3.895813 3.895772 3.896371 3.896305 3.895893 3.895921 3.895207 3.896069 3.897006 3.896363 3.895913 3.896511 3.896478 3.895766 3.896825 3.896931 3.896763 3.896678 3.897771 3.897142 3.897879 3.897405 3.897149 3.896498 3.896456 3.896247 3.895726 3.895076 3.894535 3.894381 3.894916 3.895147 3.895077 3.894499 3.894312 3.894705 3.894417 3.893936 3.895657 3.896573 3.896398 3.896057 3.895484 3.895954 3.895782 3.896781 3.897123 3.896615 3.896997 3.897498 3.897036 3.897013 3.897044 3.896542 3.897142 3.896565 3.896110 3.897533 3.897652 3.897242 3.897717 3.897176 3.896467 3.895696 3.895226 3.896000 3.896316 3.896074 3.896250 3.896074 3.896048 3.897350 3.896701 3.897258 3.897078 3.897863 3.897806 3.897323 3.898699 3.897828 3.899067 3.900866 3.900248 3.899469 3.898748 3.898080 3.898054 3.898796 3.898527 3.899579 3.898918 3.898327 3.898089 3.897617 3.896879 3.897238 3.897075 3.897975 3.897354 3.896974 3.897057 3.897197 3.897587 3.896980 3.896415 3.896611 3.898092 3.898340 3.898216 3.898227 3.898020 3.898185 3.898366 3.897951 3.900948 3.900614 3.900300 3.899412 3.898869 3.899161 3.899309 3.899013 3.898476 3.897579 3.897176 3.897296 3.897140 3.897439 3.897221 3.896766 3.896886 3.898858 3.900740 3.900898 3.900293 3.899812 3.899473 3.899436 3.898841 3.899403 3.899390 3.899585 3.899147 3.899776 3.901777 3.902731 3.903966 3.903553 3.903175 3.903142 3.902423 3.902282 3.902260 3.902857 3.903181 3.902956 3.904398 3.904425 3.903993 3.903943 3.904108 3.903261 3.903602 3.903324 3.903515 3.903118 3.902765 3.903073 3.904218 3.903978 3.904451 3.903939 3.903796 3.903681 3.903860 3.904285 3.904462 3.904418 3.903945 3.904450 3.904371 3.904392 3.904167 3.904425 3.905824 3.904946 3.906143 3.907165 3.907005 3.906710 3.906473 3.906497 3.907120 3.906534 3.907094 3.906640 3.907626 3.907145 3.906542 3.905989 3.905198 3.906454 3.906593 3.907145 3.907240 3.906885 3.906584 3.906038 3.905333 3.905809 3.906010 3.906034 3.905388 3.906518 3.906059 3.907046 3.906375 3.906343 3.906259 3.905788 3.905235 3.904748 3.904325 3.904810 3.904345 3.905374 3.905953 3.906418 3.906155 3.905767 3.905800 3.905133 3.904867 3.905499 3.905590 3.905121 3.905803 3.905402 3.905285 3.905582 3.906409 3.907013 3.906923 3.906941 3.906927 3.907381 3.907822 3.907521 3.908386 3.907581 3.907713 3.907288 3.906754 3.906380 3.906102 3.905730 3.905621 3.906020 3.905546 3.905386 3.905764 3.905339 3.905474 3.904946 3.904522 3.904333 3.903918 3.903373 3.903083 3.903730 3.904177 3.904702 3.904744 3.905024 3.906122 3.906246 3.905948 3.905505 3.904917 3.904854 3.904426 3.905102 3.905676 3.904994 3.904464 3.905019 3.904906 3.905302 3.905759 3.905055 3.905667 3.905690 3.905192 3.905924 3.906471 3.906683 3.906357 3.906564 3.905854 3.906228 3.905874 3.906449 3.906164 3.907192 3.906731 3.907705 3.909702 3.909029 3.908353 3.909092 3.909195 3.910258 3.910269 3.910749 3.909930 3.909520 3.909468 3.908866 3.908421 3.908665 3.910081 3.909362 3.909346 3.908855 3.908955 3.908332 3.907958 3.908399 3.908281 3.909037 3.908323 3.907999 3.907821 3.908044 3.908749 3.908295 3.908670 3.907785 3.907782 3.907376 3.907112 3.907159 3.907653 3.907470 3.907473 3.908457 3.908547 3.908518 3.908088 3.907875 3.907641 3.906810 3.907272 3.906888 3.906282 3.906524 3.906261 3.906367 3.905821 3.908362 3.907875 3.907739 3.907305 3.907159 3.907262 3.906921 3.906870 3.906396 3.905925 3.906009 3.906740 3.906515 3.906361 3.905981 3.905622 3.904844 3.904684 3.905160 3.905292 3.905196 3.905540 3.905052 3.905130 3.904906 3.904635 3.904630 3.903962 3.903313 3.903631 3.904101 3.905191 3.904907 3.905260 3.905084 3.905349 3.904752 3.905182 3.907374 3.907024 3.908030 3.907955 3.907762 3.907197 3.906987 3.906579 3.905896 3.905451 3.905572 3.905361 3.905031 3.904779 3.906499 3.906718 3.906354 3.906520 3.906394 3.905615 3.905161 3.905197 3.904621 3.904464 3.905951 3.906840 3.907396 3.907975 3.907579 3.907314 3.907427 3.907333 3.906799 3.907337 3.906955 3.906711 3.906112 3.905637 3.906135 3.905579 3.905317 3.904754 3.904843 3.904520 3.904915 3.905034 3.904590 3.904728 3.905248 3.904815 3.904230 3.904072 3.904528 3.905119 3.904820 3.904217 3.904654 3.905069 3.905264 3.904826 3.904839 3.905106 3.905637 3.905131 3.905854 3.906230 3.906100 3.906451 3.906385 3.905959 3.906104 3.905598 3.905332 3.904879 3.905962 3.907337 3.906893 3.907197 3.906545 3.906640 3.906883 3.907282 3.907917 3.907916 3.907254 3.907176 3.906515 3.906034 3.905481 3.904952 3.904406 3.903710 3.903196 3.902758 3.902675 3.903125 3.902738 3.902371 3.902559 3.902500 3.902930 3.902235 3.901345 3.900800 3.900441 3.901397 3.901016 3.900354 3.899697 3.899404 3.899360 3.899883 3.899235 3.898760 3.897931 3.899421 3.899486 3.899967 3.900825 3.900323 3.900345 3.900724 3.899985 3.900117 3.899901 3.900803 3.900327 3.901265 3.901459 3.901791 3.901572 3.902452 3.902772 3.902633 3.902300 3.902548 3.902181 3.901524 3.901972 3.901105 3.900934 3.901894 3.901694 3.901643 3.901897 3.901354 3.900723 3.900032 3.899810 3.900547 3.900214 3.899778 3.899321 3.898568 3.898773 3.899672 3.899097 3.898482 3.898108 3.897508 3.897787 3.897874 3.898020 3.898195 3.897696 3.897291 3.897120 3.897225 3.897128 3.896905 3.897116 3.896376 3.898603 3.899026 3.899951 3.900900 3.901205 3.901115 3.901809 3.901593 3.901067 3.901201 3.900568 3.900059 3.900632 3.900645 3.901174 3.901553 3.901144 3.901518 3.901761 3.901778 3.901094 3.901023 3.900435 3.900342 3.900541 3.900214 3.899716 3.899551 3.899113 3.898877 3.898552 3.899221 3.899233 3.899184 3.898917 3.898645 3.898066 3.897911 3.898604 3.898209 3.897780 3.897886 3.898305 3.897915 3.897613 3.897470 3.896655 3.896779 3.897039 3.897947 3.897400 3.896864 3.897055 3.897611 3.897452 3.897097 3.896913 3.896518 3.896035 3.895672 3.896148 3.896515 3.896631 3.897016 3.896497 3.897319 3.897313 3.896980 3.896692 3.897443 3.898082 3.898887 3.898922 3.898868 3.898760 3.899691 3.901090 3.900303 3.899970 3.899950 3.899821 3.900576 3.901623 3.901368 3.901697 3.901102 3.901930 3.901510 3.901787 3.901407 3.901754 3.900875 3.900271 3.900644 3.901384 3.901419 3.901469 3.902084 3.901838 3.903581 3.903487 3.904485 3.904147 3.903699 3.903456 3.903216 3.903026 3.903081 3.905110 3.904534 3.903910 3.903178 3.903796 3.903968 3.903551 3.902998 3.902563 3.901832 3.901440 3.901918 3.901773 3.901301 3.902097 3.901927 3.901874 3.902053 3.901853 3.902636 3.902008 3.901997 3.901673 3.901778 3.901834 3.902087 3.901410 3.901693 3.901384 3.900693 3.902280 3.902122 3.901619 3.901247 3.901470 3.902897 3.902129 3.902472 3.902758 3.902602 3.902191 3.901728 3.901571 3.902166 3.902353 3.902335 3.901755 3.900876 3.900906 3.900671 3.901176 3.901167 3.901646 3.901194 3.902077 3.902091 3.902110 3.903487 3.903389 3.903892 3.903527 3.903016 3.903222 3.902697 3.902346 3.902705 3.902808 3.902500 3.902315 3.903160 3.902268 3.902579 3.901960 3.902952 3.903362 3.902850 3.902386 3.903166 3.902961 3.902510 3.901881 3.901922 3.901297 3.901611 3.901080 3.900996 3.900597 3.900556 3.899952 3.899457 3.900240 3.900353 3.900199 3.899951 3.901571 3.900692 3.900444 3.900115 3.899514 3.899297 3.898867 3.899386 3.900490 3.899737 3.899944 3.900036 3.899922 3.900033 3.899774 3.899313 3.898864 3.898736 3.898071 3.898468 3.898904 3.898468 3.897795 3.897103 3.896482 3.896754 3.896831 3.896208 3.897001 3.896882 3.896809 3.896603 3.896638 3.897136 3.897317 3.896877 3.896939 3.897043 3.897238 3.897107 3.896564 3.897587 3.896908 3.896581 3.896086 3.896330 3.896790 3.897143 3.897367 3.896699 3.896088 3.896031 3.896423 3.895735 3.895641 3.896663 3.896548 3.896758 3.896596 3.896356 3.897438 3.897425 3.896794 3.896712 3.896304 3.896422 3.896963 3.896484 3.896797 3.896518 3.897447 3.897535 3.897101 3.896613 3.896554 3.895882 3.895549 3.895474 3.895556 3.896507 3.897195 3.897637 3.896903 3.897033 3.896921 3.897305 3.897522 3.897414 3.898040 3.898316 3.898465 3.899258 3.899969 3.899669 3.899066 3.898478 3.897981 3.897365 3.897081 3.896609 3.897386 3.897104 3.896731 3.896666 3.896368 3.896433 3.895606 3.895395 3.895456 3.895129 3.895084 3.895124 3.895228 3.895889 3.896930 3.896681 3.897222 3.897051 3.896552 3.896567 3.896616 3.896161 3.896251 3.895843 3.895096 3.896920 3.896351 3.895751 3.895831 3.895493 3.895958 3.896008 3.895512 3.894780 3.894444 3.894527 3.895590 3.895016 3.894571 3.894074 3.894164 3.894199 3.894043 3.894334 3.894592 3.894983 3.895119 3.895890 3.895202 3.895971 3.895329 3.895793 3.895846 3.896067 3.895500 3.895772 3.895481 3.895583 3.895422 3.895344 3.894938 3.895031 3.895000 3.894791 3.895991 3.895340 3.895929 3.895252 3.895705 3.896022 3.896949 3.896361 3.895954 3.895976 3.895646 3.895407 3.894913 3.895576 3.895799 3.895639 3.895649 3.895920 3.895958 3.896978 3.896898 3.896783 3.896756 3.897091 3.896900 3.897359 3.896943 3.896794 3.897588 3.897164 3.897124 3.897637 3.897165 3.898040 3.899101 3.899511 3.899193 3.899330 3.898734 3.898834 3.898171 3.898363 3.897786 3.898532 3.899256 3.898834 3.898832 3.899249 3.899778 3.898995 3.898642 3.899169 3.899248 3.898839 3.898117 3.899066 3.900360 3.900072 3.899858 3.899189 3.898766 3.898797 3.899487 3.899808 3.899753 3.901061 3.901056 3.900506 3.900084 3.899282 3.899261 3.898797 3.898149 3.897960 3.898073 3.897937 3.898137 3.898247 3.898353 3.898238 3.897619 3.897745 3.897892 3.898225 3.898243 3.897944 3.897275 3.898532 3.897996 3.898186 3.898795 3.898149 3.898860 3.898713 3.898265 3.897589 3.897234 3.897042 3.897553 3.897557 3.898005 3.898043 3.898256 3.897806 3.898565 3.898099 3.897440 3.897510 3.896722 3.897235 3.896508 3.896256 3.895786 3.895478 3.895831 3.896047 3.896019 3.896987 3.896580 3.896759 3.896568 3.896743 3.896271 3.895776 3.895460 3.896122 3.897361 3.897549 3.897077 3.896317 3.895818 3.895556 3.895700 3.895604 3.895560 3.895513 3.896774 3.896641 3.896613 3.896718 3.896827 3.896382 3.895730 3.895503 3.895006 3.894413 3.894313 3.894924 3.895784 3.895851 3.896139 3.896072 3.895709 3.895290 3.894823 3.894546 3.895278 3.895485 3.895056 3.895553 3.894871 3.895956 3.896399 3.896334 3.896010 3.896625 3.896113 3.896885 3.896638 3.896624 3.897431 3.896806 3.896805 3.896563 3.897186 3.896885 3.896263 3.895729 3.895373 3.894621 3.894150 3.894086 3.893308 3.892672 3.892021 3.892114 3.891878 3.891652 3.891308 3.890814 3.891382 3.891297 3.891185 3.891317 3.891348 3.890792 3.891461 3.890931 3.891298 3.892361 3.892161 3.892608 3.892407 3.892435 3.892364 3.892223 3.891964 3.891320 3.891724 3.891309 3.891140 3.892481 3.891993 3.891634 3.891424 3.891589 3.891216 3.890649 3.890480 3.891613 3.891510 3.892266 3.892046 3.891713 3.891708 3.891662 3.892315 3.891789 3.891444 3.890687 3.890272 3.890248 3.889813 3.890056 3.889997 3.892348 3.892559 3.892715 3.893065 3.893987 3.894532 3.894093 3.893595 3.893315 3.893081 3.892478 3.893676 3.893193 3.892963 3.892430 3.894776 3.893946 3.893152 3.892741 3.892999 3.892991 3.892648 3.892452 3.892436 3.893694 3.893747 3.893603 3.892982 3.892380 3.891912 3.891627 3.891399 3.891421 3.891779 3.891457 3.891162 3.891269 3.891553 3.891450 3.891433 3.891583 3.891630 3.891572 3.891618 3.890938 3.891176 3.890986 3.891289 3.890714 3.890154 3.892499 3.892168 3.891662 3.891337 3.892336 3.891807 3.891515 3.892578 3.893506 3.892700 3.893551 3.893397 3.893664 3.893900 3.894353 3.893730 3.893855 3.894442 3.894944 3.894347 3.894016 3.894750 3.896217 3.896734 3.897604 3.898604 3.898200 3.897452 3.897535 3.897476 3.897473 3.897262 3.896722 3.896638 3.896520 3.896733 3.897434 3.896742 3.896352 3.896190 3.896133 3.895952 3.897284 3.896923 3.896457 3.896578 3.896784 3.896327 3.896475 3.897484 3.896882 3.896863 3.896552 3.896122 3.896535 3.896087 3.896228 3.896075 3.895741 3.895093 3.894860 3.894578 3.894779 3.895879 3.896197 3.896862 3.897715 3.897451 3.897849 3.898076 3.898886 3.898775 3.898912 3.898591 3.899790 3.900249 3.899825 3.899888 3.899612 3.899200 3.899544 3.899312 3.898874 3.898735 3.898622 3.898652 3.898182 3.899213 3.899841 3.899743 3.899629 3.899329 3.898630 3.898168 3.897782 3.897124 3.896886 3.896948 3.896581 3.896136 3.895921 3.895602 3.895165 3.894776 3.894858 3.895139 3.894715 3.894349 3.893884 3.893288 3.893215 3.894639 3.893868 3.893455 3.893592 3.893033 3.893352 3.892842 3.892398 3.891671 3.891142 3.890774 3.890927 3.890687 3.890628 3.890132 3.890467 3.889947 3.889363 3.889291 3.888783 3.889011 3.889789 3.890276 3.890685 3.890417 3.889876 3.889949 3.889875 3.889187 3.888415 3.888555 3.888220 3.888233 3.887834 3.887762 3.887798 3.887135 3.886740 3.887120 3.886909 3.886917 3.887173 3.887076 3.886836 3.886423 3.887477 3.887210 3.887107 3.886545 3.887430 3.886736 3.887765 3.887852 3.888558 3.888162 3.888569 3.889093 3.889121 3.888517 3.888790 3.889106 3.888858 3.888612 3.888505 3.888597 3.888267 3.888385 3.888300 3.888175 3.888097 3.888083 3.887363 3.888136 3.887853 3.887651 3.887911 3.889131 3.888767 3.888472 3.888154 3.888141 3.887834 3.887600 3.887161 3.886492 3.886570 3.886582 3.887293 3.887174 3.887252 3.886941 3.886340 3.886477 3.886841 3.886975 3.886460 3.886126 3.885702 3.886188 3.886536 3.886759 3.886855 3.887510 3.887689 3.887481 3.887744 3.888131 3.888350 3.888878 3.888663 3.889683 3.889106 3.888530 3.888234 3.887900 3.887844 3.887676 3.887512 3.888293 3.889021 3.888495 3.888168 3.888739 3.889007 3.888768 3.888284 3.888162 3.887691 3.887309 3.887791 3.887449 3.887173 3.886371 3.886874 3.886397 3.886134 3.886009 3.885910 3.885981 3.886122 3.886024 3.885438 3.885626 3.885128 3.886098 3.885922 3.885731 3.886004 3.885575 3.886072 3.885341 3.885217 3.884914 3.884962 3.884454 3.883909 3.883676 3.883565 3.883881 3.883412 3.883485 3.883212 3.883149 3.882788 3.882471 3.883184 3.882305 3.882072 3.882180 3.881931 3.881561 3.881191 3.882407 3.881840 3.882676 3.882678 3.882692 3.882660 3.883375 3.882739 3.882120 3.881655 3.881576 3.882137 3.881411 3.881161 3.881014 3.881497 3.881319 3.880459 3.880017 3.879642 3.879655 3.879413 3.878872 3.878781 3.878416 3.878252 3.878071 3.877770 3.877292 3.877149 3.877051 3.876211 3.876463 3.876580 3.876550 3.876462 3.876558 3.876337 3.876651 3.876106 3.876318 3.877081 3.877224 3.877263 3.876926 3.876364 3.875980 3.875527 3.875028 3.874358 3.874145 3.873616 3.873148 3.872924 3.873222 3.873053 3.872485 3.873646 3.873242 3.873765 3.873640 3.874169 3.873663 3.873191 3.872781 3.872401 3.872109 3.871554 3.871070 3.871996 3.871227 3.870788 3.870046 3.870332 3.870978 3.871730 3.871837 3.871546 3.872010 3.871992 3.871384 3.871848 3.871744 3.872046 3.872358 3.872322 3.872543 3.872499 3.872197 3.872136 3.872131 3.872702 3.873205 3.872748 3.873183 3.873020 3.873339 3.873080 3.873295 3.872721 3.872656 3.872453 3.872237 3.872953 3.873053 3.873301 3.872815 3.873298 3.872792 3.872066 3.872219 3.872137 3.872210 3.872232 3.871913 3.872184 3.872834 3.872444 3.872720 3.872954 3.873836 3.873456 3.872710 3.872159 3.872171 3.872499 3.872924 3.874542 3.874654 3.876095 3.875731 3.875126 3.875291 3.875354 3.875272 3.875601 3.875416 3.875191 3.874913 3.874411 3.874154 3.873787 3.874023 3.873554 3.873191 3.872873 3.873169 3.873246 3.873562 3.873953 3.875328 3.874875 3.874405 3.874055 3.873488 3.872990 3.873118 3.873488 3.873028 3.873088 3.873773 3.873658 3.873378 3.873047 3.873445 3.873108 3.872795 3.873194 3.872754 3.872895 3.873557 3.873259 3.874310 3.874354 3.874224 3.873819 3.873362 3.873059 3.872705 3.872473 3.872402 3.872117 3.872626 3.873315 3.873137 3.872338 3.872070 3.871363 3.871686 3.871570 3.872084 3.871708 3.871417 3.871096 3.871016 3.870998 3.870753 3.870252 3.869890 3.869446 3.868768 3.868933 3.869073 3.868496 3.868763 3.869131 3.868627 3.868364 3.867810 3.868237 3.868985 3.869277 3.869918 3.870075 3.870959 3.870956 3.870677 3.871021 3.870814 3.870850 3.870647 3.870465 3.870914 3.870925 3.871014 3.871533 3.871139 3.871454 3.871060 3.870437 3.870361 3.870702 3.870705 3.870092 3.870737 3.871422 3.871432 3.871136 3.871793 3.871469 3.871784 3.871372 3.870645 3.870442 3.870248 3.870175 3.870023 3.870623 3.870439 3.870508 3.870178 3.870394 3.870659 3.870475 3.869740 3.869217 3.868718 3.868419 3.867964 3.868213 3.867966 3.868415 3.868005 3.868149 3.868183 3.867842 3.867605 3.867289 3.867054 3.866834 3.866381 3.866242 3.866203 3.866557 3.866448 3.866637 3.866329 3.866493 3.865882 3.865552 3.864925 3.865333 3.865592 3.865642 3.865998 3.865509 3.865464 3.865550 3.866497 3.866442 3.865943 3.865745 3.865517 3.865165 3.864883 3.864508 3.865779 3.865340 3.864701 3.864760 3.864695 3.864687 3.864844 3.866366 3.865801 3.865080 3.864748 3.864502 3.863927 3.864231 3.863925 3.863552 3.864120 3.864060 3.863642 3.863335 3.863883 3.863108 3.863477 3.863223 3.862454 3.862759 3.862331 3.862183 3.862231 3.862693 3.863160 3.863334 3.863911 3.863747 3.863314 3.864017 3.863976 3.863484 3.863098 3.863433 3.864141 3.864316 3.864340 3.863960 3.863892 3.863933 3.864416 3.863893 3.864006 3.863889 3.864596 3.864431 3.864300 3.863807 3.863532 3.863471 3.864618 3.864737 3.864338 3.864148 3.863696 3.863112 3.863571 3.862912 3.863045 3.862962 3.863338 3.863313 3.863285 3.862844 3.862871 3.863026 3.863458 3.864223 3.863909 3.863635 3.862923 3.863064 3.862736 3.862671 3.862262 3.862885 3.862555 3.862578 3.862435 3.862535 3.862698 3.862415 3.862276 3.862420 3.862351 3.861966 3.862103 3.861571 3.860963 3.860492 3.861305 3.861158 3.860910 3.860800 3.860222 3.860235 3.860472 3.861404 3.861396 3.861192 3.861066 3.861576 3.861192 3.860637 3.860414 3.860223 3.860162 3.859637 3.859364 3.860205 3.860075 3.859586 3.859499 3.860047 3.859924 3.859726 3.859366 3.858917 3.858894 3.858814 3.859205 3.859184 3.859315 3.858817 3.859903 3.859702 3.859853 3.859226 3.859039 3.859477 3.859076 3.858451 3.859034 3.859453 3.859406 3.858826 3.858171 3.857358 3.857417 3.857107 3.856825 3.857592 3.857778 3.858490 3.858912 3.859290 3.859397 3.859207 3.858964 3.859706 3.859404 3.859372 3.859243 3.858882 3.858446 3.858620 3.859070 3.858506 3.859111 3.858691 3.859197 3.859873 3.859949 3.859666 3.859109 3.859421 3.859105 3.859720 3.859583 3.860821 3.860811 3.860274 3.860135 3.860419 3.860606 3.860359 3.860337 3.860480 3.860385 3.860529 3.861621 3.862255 3.861800 3.861795 3.861551 3.861306 3.861824 3.862301 3.861854 3.861448 3.861015 3.860690 3.860310 3.860313 3.859833 3.859520 3.859969 3.859624 3.859496 3.859850 3.859485 3.859820 3.860057 3.860860 3.860524 3.861641 3.861091 3.860888 3.860266 3.860692 3.860626 3.860677 3.860163 3.859878 3.859669 3.859966 3.859206 3.859295 3.859126 3.859180 3.859374 3.858882 3.859062 3.858642 3.858592 3.859437 3.859219 3.859253 3.859330 3.859040 3.858409 3.858024 3.857818 3.858538 3.857843 3.857395 3.857815 3.857322 3.856964 3.857566 3.857751 3.857555 3.857754 3.858000 3.857792 3.857537 3.858039 3.857932 3.857818 3.857270 3.857420 3.856930 3.856796 3.856600 3.856114 3.856525 3.856144 3.856181 3.856138 3.856171 3.855699 3.855441 3.855235 3.855058 3.854894 3.854484 3.853963 3.853788 3.853672 3.853482 3.853827 3.854103 3.853664 3.853749 3.853461 3.853463 3.853574 3.853700 3.853021 3.852794 3.853171 3.853305 3.852828 3.852899 3.852764 3.852221 3.851494 3.851645 3.851757 3.851506 3.851623 3.851880 3.852064 3.851393 3.851143 3.851400 3.850759 3.850565 3.850269 3.849657 3.850403 3.849969 3.849372 3.849367 3.849132 3.848827 3.848223 3.848797 3.849454 3.849178 3.848555 3.848437 3.848110 3.848064 3.849372 3.849001 3.849271 3.849674 3.851080 3.850679 3.849964 3.849839 3.849117 3.849619 3.849352 3.848927 3.848987 3.848556 3.848524 3.848322 3.847916 3.847279 3.846729 3.846608 3.846454 3.845818 3.845828 3.845570 3.845788 3.845724 3.845749 3.845659 3.845434 3.845039 3.845254 3.845486 3.845071 3.844676 3.844247 3.845091 3.844615 3.844338 3.844016 3.843850 3.843451 3.843986 3.845688 3.845182 3.844823 3.845141 3.844852 3.844293 3.844946 3.844487 3.844238 3.844205 3.843775 3.843864 3.844828 3.844357 3.843739 3.843365 3.843663 3.843478 3.843778 3.845176 3.844934 3.844587 3.844141 3.843848 3.844205 3.844289 3.843857 3.844236 3.844101 3.844522 3.844743 3.844621 3.844170 3.843582 3.843279 3.843904 3.843595 3.844042 3.843980 3.844129 3.843481 3.843201 3.842963 3.842850 3.843955 3.843610 3.843235 3.843273 3.843481 3.842956 3.842466 3.841964 3.841906 3.841890 3.841424 3.841482 3.840906 3.841423 3.840720 3.840330 3.840041 3.839885 3.839995 3.839491 3.838764 3.838487 3.838043 3.838365 3.838038 3.837974 3.837344 3.837169 3.836861 3.836704 3.836147 3.836125 3.835447 3.835383 3.835184 3.835525 3.835691 3.835688 3.835279 3.834440 3.833868 3.834332 3.834519 3.834081 3.833767 3.833547 3.833975 3.833674 3.833578 3.834150 3.834496 3.835765 3.835297 3.835860 3.835636 3.835164 3.835003 3.834760 3.834481 3.834200 3.834315 3.833526 3.833373 3.833325 3.833435 3.834273 3.833585 3.832872 3.832250 3.831756 3.831348 3.831579 3.831006 3.831753 3.831594 3.832025 3.832442 3.832727 3.832606 3.832557 3.832751 3.832973 3.832648 3.832723 3.832769 3.832643 3.832506 3.832085 3.831579 3.831024 3.830502 3.830292 3.830487 3.830491 3.830818 3.831209 3.831587 3.832496 3.832001 3.832472 3.831869 3.831623 3.832151 3.832532 3.832569 3.832079 3.831764 3.831250 3.831120 3.830772 3.830927 3.830677 3.830105 3.830552 3.830914 3.830595 3.830302 3.829706 3.829305 3.829325 3.829276 3.829229 3.828971 3.828419 3.828311 3.828793 3.828388 3.828170 3.827741 3.827550 3.827317 3.826859 3.826653 3.826914 3.826827 3.826916 3.826725 3.826720 3.827224 3.826721 3.826297 3.826162 3.826579 3.826590 3.826419 3.826068 3.826141 3.825864 3.825306 3.825428 3.825535 3.825610 3.825937 3.826397 3.825764 3.825566 3.826393 3.826796 3.826466 3.826172 3.825635 3.825257 3.825845 3.825749 3.826110 3.825692 3.825224 3.825296 3.824877 3.824307 3.824848 3.824646 3.823984 3.823231 3.823029 3.823546 3.823385 3.823418 3.823049 3.822747 3.822321 3.823024 3.822648 3.822577 3.822996 3.822839 3.824297 3.824717 3.824841 3.824869 3.824458 3.824503 3.824655 3.824134 3.823694 3.823811 3.824751 3.824314 3.824609 3.824410 3.823917 3.825222 3.825160 3.824434 3.826536 3.826665 3.826426 3.825805 3.825630 3.825600 3.825273 3.825439 3.825204 3.825328 3.825552 3.825546 3.825257 3.825338 3.825449 3.825154 3.825277 3.825502 3.825311 3.825495 3.825445 3.825967 3.826480 3.826289 3.826114 3.826942 3.826944 3.826624 3.827023 3.826576 3.826398 3.825968 3.825815 3.825198 3.825205 3.825240 3.825290 3.825692 3.825525 3.824787 3.824710 3.823942 3.823940 3.824188 3.824207 3.824299 3.824136 3.823720 3.823685 3.823832 3.823310 3.822959 3.823400 3.823378 3.823564 3.823501 3.823052 3.822695 3.821969 3.821796 3.821961 3.822026 3.821559 3.820888 3.821289 3.821287 3.820820 3.821942 3.821425 3.821303 3.820876 3.820924 3.820619 3.820794 3.821353 3.820918 3.820692 3.820246 3.820267 3.820224 3.819909 3.819914 3.819360 3.819239 3.819493 3.820601 3.820142 3.819554 3.819383 3.819146 3.818872 3.818573 3.818415 3.818518 3.818400 3.818087 3.817718 3.816966 3.816778 3.816423 3.815781 3.815666 3.816083 3.815581 3.815492 3.816102 3.815629 3.815650 3.815648 3.815804 3.816190 3.815657 3.815463 3.814866 3.814625 3.814685 3.814662 3.815015 3.814948 3.814740 3.814400 3.813882 3.814189 3.814095 3.814008 3.813807 3.813776 3.813525 3.814007 3.813857 3.813393 3.813532 3.813343 3.813089 3.812522 3.812432 3.812097 3.812527 3.812160 3.812083 3.812355 3.811777 3.811340 3.810986 3.810847 3.811091 3.811317 3.811051 3.811350 3.811344 3.811973 3.812086 3.811868 3.812365 3.812289 3.811788 3.812364 3.812500 3.812569 3.812767 3.811955 3.811510 3.811969 3.813126 3.812502 3.812121 3.812315 3.811582 3.810871 3.810985 3.811208 3.810940 3.810719 3.810826 3.810526 3.809925 3.809588 3.809311 3.808640 3.808462 3.807840 3.807538 3.809173 3.808749 3.808187 3.807727 3.807103 3.807068 3.807539 3.808558 3.807893 3.807426 3.807229 3.807017 3.806861 3.807272 3.806722 3.807237 3.807035 3.806847 3.806551 3.806673 3.806745 3.807726 3.807341 3.806604 3.806278 3.807782 3.807718 3.807665 3.807772 3.807889 3.807381 3.808319 3.808062 3.807962 3.807875 3.808007 3.808574 3.808226 3.808271 3.807778 3.807383 3.807335 3.807247 3.807635 3.807257 3.807177 3.807443 3.808446 3.808521 3.808639 3.808501 3.809208 3.808485 3.808428 3.808157 3.807856 3.807242 3.807142 3.807546 3.806903 3.807617 3.807256 3.807019 3.807172 3.806708 3.806688 3.806949 3.806189 3.805707 3.805472 3.805387 3.805333 3.806043 3.805353 3.805187 3.805254 3.804840 3.804983 3.804687 3.804469 3.804235 3.803836 3.804525 3.804468 3.804298 3.803933 3.803650 3.803327 3.803307 3.803770 3.803281 3.804202 3.804170 3.803801 3.804187 3.804261 3.804313 3.803470 3.803844 3.803340 3.803291 3.802519 3.802168 3.802396 3.802574 3.802273 3.802573 3.802426 3.803009 3.802899 3.803551 3.803680 3.804038 3.803754 3.803779 3.803378 3.803170 3.803960 3.803803 3.804108 3.804118 3.803524 3.803083 3.803490 3.803154 3.803360 3.803483 3.803683 3.803340 3.803455 3.804055 3.803264 3.803610 3.803444 3.803278 3.803783 3.803547 3.803140 3.802385 3.802212 3.802409 3.802557 3.802147 3.802507 3.802546 3.802428 3.802638 3.802257 3.801597 3.801603 3.801956 3.801808 3.802212 3.801903 3.801696 3.802558 3.802326 3.802072 3.801459 3.801766 3.801108 3.800659 3.800134 3.799815 3.799804 3.799879 3.799322 3.799415 3.798952 3.799000 3.799707 3.799245 3.799477 3.799401 3.800441 3.800238 3.800168 3.799889 3.800178 3.799971 3.799573 3.799658 3.799093 3.799305 3.799295 3.798573 3.798260 3.797745 3.797671 3.798214 3.798075 3.798072 3.798688 3.798539 3.799286 3.798922 3.799218 3.798928 3.799179 3.799473 3.799158 3.799355 3.799864 3.800908 3.800838 3.800257 3.800173 3.799866 3.799916 3.799552 3.799467 3.800117 3.800019 3.799988 3.800020 3.799807 3.799954 3.801809 3.801397 3.801039 3.801258 3.801100 3.801313 3.800921 3.801017 3.801257 3.800625 3.800639 3.800345 3.800535 3.800234 3.799960 3.800067 3.800293 3.800346 3.800740 3.800261 3.800027 3.800043 3.799690 3.799605 3.799679 3.799950 3.799338 3.799126 3.799106 3.799442 3.799048 3.798984 3.799105 3.799078 3.798915 3.798591 3.798841 3.799579 3.799859 3.799500 3.799110 3.798860 3.798638 3.798216 3.797511 3.797900 3.798331 3.799007 3.798856 3.798842 3.799201 3.798944 3.800396 3.800577 3.801108 3.801312 3.801087 3.801184 3.800544 3.800271 3.800547 3.800299 3.800021 3.799929 3.799988 3.799973 3.799553 3.798856 3.798519 3.798321 3.798024 3.797747 3.797881 3.797918 3.798464 3.799156 3.799131 3.798939 3.798777 3.798880 3.798390 3.798198 3.797887 3.797708 3.798414 3.798466 3.799124 3.799319 3.799234 3.799375 3.798949 3.798848 3.799215 3.799090 3.798685 3.798003 3.799446 3.799597 3.799380 3.799384 3.799517 3.798819 3.799404 3.799168 3.799760 3.800026 3.799767 3.799174 3.799277 3.799432 3.798926 3.798615 3.798855 3.798752 3.798617 3.798661 3.798233 3.798242 3.798317 3.797723 3.797214 3.796879 3.796939 3.796355 3.795586 3.795403 3.794754 3.795492 3.795580 3.795209 3.795203 3.795140 3.794874 3.794670 3.794753 3.794361 3.794585 3.794967 3.795285 3.795521 3.796357 3.797045 3.797557 3.797333 3.798196 3.798001 3.797581 3.797743 3.797555 3.797952 3.797772 3.797157 3.796684 3.797070 3.796954 3.796890 3.796573 3.796134 3.796081 3.796517 3.796313 3.796674 3.797446 3.796838 3.796311 3.796226 3.796447 3.796066 3.795963 3.796060 3.795875 3.795700 3.795588 3.795657 3.794886 3.795213 3.795376 3.795200 3.794669 3.794484 3.794113 3.793767 3.793400 3.792881 3.793710 3.793624 3.793762 3.793974 3.793997 3.793773 3.793698 3.793793 3.794039 3.794381 3.794613 3.793966 3.794070 3.793995 3.794210 3.793923 3.793865 3.793754 3.793742 3.793138 3.793687 3.793473 3.793057 3.793405 3.793027 3.792761 3.792662 3.792736 3.793249 3.792734 3.792751 3.793317 3.793146 3.792767 3.793377 3.793541 3.793110 3.792791 3.792950 3.793236 3.793330 3.793279 3.793903 3.793645 3.794118 3.794251 3.794751 3.795687 3.795462 3.795340 3.795469 3.795368 3.795414 3.795537 3.795391 3.794914 3.794633 3.794458 3.795182 3.795127 3.794715 3.795794 3.795272 3.795728 3.795319 3.795864 3.795601 3.795388 3.795410 3.795015 3.794675 3.794422 3.794643 3.795180 3.794986 3.794513 3.794358 3.794656 3.794270 3.794003 3.794017 3.793923 3.793940 3.793824 3.793073 3.792843 3.792585 3.792962 3.793257 3.793007 3.792562 3.792220 3.792079 3.791678 3.791081 3.791201 3.791233 3.791528 3.791645 3.791971 3.792612 3.792234 3.793463 3.793665 3.793231 3.793093 3.792993 3.793142 3.793422 3.794160 3.794365 3.794157 3.793888 3.793731 3.793957 3.793990 3.794594 3.795575 3.795422 3.795318 3.795620 3.795478 3.795290 3.794820 3.794418 3.794173 3.795038 3.794864 3.794728 3.794622 3.794549 3.794883 3.795116 3.794643 3.794317 3.794324 3.794322 3.793993 3.793576 3.794035 3.793719 3.793351 3.793238 3.793062 3.794006 3.794227 3.793877 3.794550 3.794787 3.795551 3.795721 3.795595 3.795392 3.794621 3.794282 3.793628 3.793211 3.793417 3.793016 3.792955 3.793608 3.793523 3.792829 3.792942 3.793641 3.793779 3.794196 3.794454 3.794740 3.795392 3.794893 3.795074 3.795749 3.796360 3.797307 3.797055 3.798058 3.797597 3.797225 3.796948 3.796990 3.797390 3.797919 3.798285 3.798320 3.798826 3.798979 3.799193 3.799131 3.798639 3.798269 3.798853 3.798154 3.798065 3.799356 3.799526 3.799496 3.799112 3.799000 3.799507 3.799198 3.798812 3.798561 3.798687 3.798029 3.797999 3.798449 3.797958 3.798514 3.798627 3.799948 3.799648 3.799901 3.799627 3.800995 3.800602 3.800330 3.799961 3.800270 3.800520 3.800626 3.800574 3.800629 3.800554 3.801670 3.801813 3.802492 3.802506 3.801760 3.801177 
