-0.000000 -0.000000 -0.000000 -0.000000 -0.000000 -0.000000 -0.000000 -0.000000 0.000000 -0.000000 0.000000 -0.000000 -0.000000 -0.000000 -0.000000 0.000000 -0.000000 -0.000000 -0.000000 -0.000000 -0.000000 -0.000000 -0.000000 -0.000000 0.000000 -0.000000 -0.000000 -0.000000 -0.000000 -0.000000 -0.000000 0.000000 -0.000000 -0.000000 -0.000000 -0.000000 -0.000000 0.000000 -0.000000 -0.000000 0.000000 -0.000000 -0.000000 -0.000000 -0.000000 -0.000000 -0.000000 -0.000000 -0.000000 -0.000000 -0.000000 -0.000000 -0.000000 -0.000000 0.000000 -0.000000 0.000000 -0.000000 -0.000000 0.000000 -0.000000 0.000000 -0.000000 -0.000000 -0.000000 -0.000000 -0.000000 -0.000000 0.000000 0.000000 -0.000000 -0.000000 -0.000000 -0.000000 0.000000 0.000000 0.000000 -0.000000 -0.000000 -0.000000 0.000000 -0.000000 0.000000 -0.000000 -0.000000 0.000000 -0.000000 -0.000000 -0.000000 0.000000 -0.000000 0.000000 -0.000000 -0.000000 0.000000 -0.000000 -0.000000 -0.000000 0.000000 -0.000000 -0.000000 0.000000 0.000000 -0.000000 -0.000000 0.000000 -0.000000 -0.000000 -0.000000 -0.000000 -0.000002 -0.000005 -0.000014 -0.000032 -0.000063 -0.000114 -0.000193 -0.000310 -0.000474 -0.000697 -0.000990 -0.001367 -0.001840 -0.002421 -0.003123 -0.003958 -0.004936 -0.006069 -0.007365 -0.008832 -0.010478 -0.012307 -0.014324 -0.016530 -0.018929 -0.021518 -0.024297 -0.027262 -0.030410 -0.033735 -0.037232 -0.040892 -0.044708 -0.048670 -0.052770 -0.056997 -0.061341 -0.065790 -0.070335 -0.074962 -0.079662 -0.084423 -0.089233 -0.094082 -0.098959 -0.103853 -0.108753 -0.113651 -0.118536 -0.123399 -0.128232 -0.133027 -0.137776 -0.142471 -0.147107 -0.151676 -0.156174 -0.160595 -0.164934 -0.169188 -0.173351 -0.177419 -0.181388 -0.185251 -0.189001 -0.192630 -0.196130 -0.199491 -0.202702 -0.205752 -0.208628 -0.211319 -0.213812 -0.216096 -0.218159 -0.219989 -0.221577 -0.222914 -0.223993 -0.224808 -0.225357 -0.225639 -0.225657 -0.225417 -0.224927 -0.224198 -0.223243 -0.222079 -0.220724 -0.219197 -0.217518 -0.215711 -0.213796 -0.211797 -0.209737 -0.207637 -0.205519 -0.203405 -0.201313 -0.199262 -0.197270 -0.195352 -0.193523 -0.191794 -0.190178 -0.188683 -0.187317 -0.186088 -0.184998 -0.184053 -0.183254 -0.182601 -0.182096 -0.181735 -0.181516 -0.181438 -0.181494 -0.181681 -0.181993 -0.182425 -0.182969 -0.183620 -0.184371 -0.185214 -0.186143 -0.187150 -0.188228 -0.189371 -0.190570 -0.191820 -0.193113 -0.194443 -0.195804 -0.197191 -0.198596 -0.200015 -0.201443 -0.202875 -0.204305 -0.205729 -0.207140 -0.208531 -0.209894 -0.211220 -0.212500 -0.213720 -0.214870 -0.215937 -0.216906 -0.217765 -0.218499 -0.219095 -0.219540 -0.219820 -0.219926 -0.219846 -0.219572 -0.219098 -0.218421 -0.217540 -0.216457 -0.215178 -0.213710 -0.212064 -0.210253 -0.208292 -0.206198 -0.203989 -0.201685 -0.199306 -0.196873 -0.194406 -0.191927 -0.189455 -0.187010 -0.184611 -0.182274 -0.180017 -0.177854 -0.175799 -0.173864 -0.172059 -0.170393 -0.168874 -0.167508 -0.166298 -0.165249 -0.164361 -0.163636 -0.163073 -0.162670 -0.162425 -0.162333 -0.162391 -0.162593 -0.162935 -0.163409 -0.164009 -0.164728 -0.165560 -0.166496 -0.167529 -0.168652 -0.169857 -0.171136 -0.172483 -0.173889 -0.175348 -0.176853 -0.178398 -0.179975 -0.181579 -0.183203 -0.184843 -0.186493 -0.188148 -0.189801 -0.191447 -0.193078 -0.194686 -0.196263 -0.197796 -0.199276 -0.200690 -0.202024 -0.203265 -0.204399 -0.205411 -0.206289 -0.207018 -0.207585 -0.207978 -0.208187 -0.208201 -0.208015 -0.207621 -0.207019 -0.206210 -0.205195 -0.203983 -0.202582 -0.201004 -0.199262 -0.197374 -0.195357 -0.193230 -0.191014 -0.188728 -0.186395 -0.184035 -0.181670 -0.179319 -0.177002 -0.174738 -0.172543 -0.170435 -0.168427 -0.166533 -0.164764 -0.163130 -0.161641 -0.160302 -0.159119 -0.158097 -0.157237 -0.156541 -0.156009 -0.155641 -0.155433 -0.155382 -0.155486 -0.155738 -0.156133 -0.156666 -0.157330 -0.158118 -0.159023 -0.160037 -0.161154 -0.162364 -0.163660 -0.165036 -0.166482 -0.167992 -0.169558 -0.171172 -0.172829 -0.174521 -0.176242 -0.177986 -0.179747 -0.181519 -0.183297 -0.185076 -0.186849 -0.188611 -0.190353 -0.192068 -0.193746 -0.195376 -0.196947 -0.198446 -0.199861 -0.201176 -0.202380 -0.203456 -0.204392 -0.205174 -0.205789 -0.206226 -0.206472 -0.206520 -0.206360 -0.205985 -0.205389 -0.204569 -0.203521 -0.202246 -0.200742 -0.199013 -0.197060 -0.194889 -0.192505 -0.189916 -0.187128 -0.184150 -0.180992 -0.177665 -0.174178 -0.170543 -0.166772 -0.162876 -0.158868 -0.154759 -0.150562 -0.146288 -0.141949 -0.137558 -0.133124 -0.128660 -0.124176 -0.119682 -0.115188 -0.110703 -0.106236 -0.101795 -0.097389 -0.093024 -0.088708 -0.084446 -0.080244 -0.076108 -0.072042 -0.068050 -0.064137 -0.060305 -0.056558 -0.052898 -0.049327 -0.045847 -0.042460 -0.039165 -0.035965 -0.032859 -0.029848 -0.026931 -0.024109 -0.021380 -0.018745 -0.016203 -0.013756 -0.011406 -0.009160 -0.007029 -0.005026 -0.003171 -0.001486 0.000003 0.001264 0.002265 0.002969 0.003341 0.003343 0.002937 0.002086 0.000756 -0.001086 -0.003471 -0.006425 -0.009972 -0.014131 -0.018917 -0.024341 -0.030408 -0.037123 -0.044481 -0.052476 -0.061099 -0.070335 -0.080165 -0.090570 -0.101525 -0.113003 -0.124976 -0.137412 -0.150279 -0.163544 -0.177170 -0.191123 -0.205365 -0.219862 -0.234577 -0.249473 -0.264515 -0.279669 -0.294900 -0.310176 -0.325464 -0.340735 -0.355959 -0.371108 -0.386157 -0.401080 -0.415854 -0.430459 -0.444874 -0.459080 -0.473060 -0.486800 -0.500285 -0.513501 -0.526433 -0.539064 -0.551375 -0.563345 -0.574949 -0.586157 -0.596940 -0.607263 -0.617089 -0.626382 -0.635103 -0.643213 -0.650675 -0.657452 -0.663510 -0.668816 -0.673343 -0.677065 -0.679964 -0.682029 -0.683255 -0.683647 -0.683218 -0.681991 -0.679995 -0.677272 -0.673867 -0.669834 -0.665233 -0.660128 -0.654586 -0.648679 -0.642476 -0.636051 -0.629474 -0.622816 -0.616143 -0.609520 -0.603008 -0.596664 -0.590540 -0.584684 -0.579138 -0.573940 -0.569123 -0.564714 -0.560736 -0.557205 -0.554136 -0.551535 -0.549409 -0.547758 -0.546577 -0.545861 -0.545600 -0.545783 -0.546394 -0.547418 -0.548835 -0.550628 -0.552774 -0.555251 -0.558038 -0.561112 -0.564449 -0.568025 -0.571819 -0.575806 -0.579966 -0.584275 -0.588712 -0.593258 -0.597892 -0.602595 -0.607350 -0.612139 -0.616946 -0.621757 -0.626553 -0.631319 -0.636035 -0.640677 -0.645220 -0.649635 -0.653889 -0.657947 -0.661770 -0.665318 -0.668548 -0.671418 -0.673885 -0.675906 -0.677442 -0.678453 -0.678905 -0.678767 -0.678014 -0.676628 -0.674600 -0.671928 -0.668621 -0.664695 -0.660176 -0.655099 -0.649504 -0.643439 -0.636959 -0.630120 -0.622985 -0.615616 -0.608080 -0.600442 -0.592766 -0.585115 -0.577551 -0.570132 -0.562911 -0.555941 -0.549268 -0.542934 -0.536976 -0.531426 -0.526313 -0.521660 -0.517484 -0.513801 -0.510618 -0.507942 -0.505774 -0.504112 -0.502950 -0.502279 -0.502088 -0.502364 -0.503090 -0.504249 -0.505821 -0.507786 -0.510122 -0.512806 -0.515815 -0.519126 -0.522715 -0.526558 -0.530632 -0.534913 -0.539380 -0.544008 -0.548778 -0.553668 -0.558659 -0.563730 -0.568864 -0.574044 -0.579252 -0.584472 -0.589687 -0.594875 -0.600016 -0.605083 -0.610049 -0.614879 -0.619540 -0.623993 -0.628196 -0.632107 -0.635683 -0.638880 -0.641654 -0.643964 -0.645768 -0.647030 -0.647715 -0.647794 -0.647245 -0.646052 -0.644209 -0.641717 -0.638587 -0.634840 -0.630504 -0.625615 -0.620219 -0.614364 -0.608106 -0.601505 -0.594625 -0.587529 -0.580283 -0.572954 -0.565607 -0.558303 -0.551105 -0.544069 -0.537251 -0.530698 -0.524458 -0.518571 -0.513073 -0.507996 -0.503365 -0.499203 -0.495527 -0.492348 -0.489675 -0.487512 -0.485859 -0.484713 -0.484066 -0.483909 -0.484229 -0.485013 -0.486242 -0.487899 -0.489963 -0.492412 -0.495225 -0.498378 -0.501847 -0.505609 -0.509640 -0.513915 -0.518410 -0.523104 -0.527971 -0.532991 -0.538141 -0.543401 -0.548751 -0.554171 -0.559644 -0.565153 -0.570679 -0.576208 -0.581719 -0.587194 -0.592610 -0.597939 -0.603154 -0.608220 -0.613102 -0.617761 -0.622155 -0.626243 -0.629980 -0.633324 -0.636229 -0.638656 -0.640564 -0.641916 -0.642678 -0.642820 -0.642315 -0.641142 -0.639284 -0.636726 -0.633462 -0.629487 -0.624804 -0.619417 -0.613337 -0.606577 -0.599155 -0.591092 -0.582412 -0.573143 -0.563313 -0.552955 -0.542102 -0.530789 -0.519051 -0.506925 -0.494450 -0.481661 -0.468598 -0.455296 -0.441794 -0.428126 -0.414329 -0.400436 -0.386480 -0.372494 -0.358507 -0.344550 -0.330648 -0.316829 -0.303117 -0.289534 -0.276101 -0.262837 -0.249762 -0.236889 -0.224236 -0.211814 -0.199636 -0.187712 -0.176051 -0.164661 -0.153548 -0.142718 -0.132175 -0.121923 -0.111963 -0.102298 -0.092927 -0.083850 -0.075068 -0.066577 -0.058376 -0.050462 -0.042832 -0.035479 -0.028399 -0.021582 -0.015018 -0.008694 -0.002596 0.003295 0.008995 0.014527 0.019912 0.025171 0.030330 0.035410 0.040435 0.045429 0.050412 0.055405 0.060428 0.065498 0.070632 0.075843 0.081144 0.086544 0.092051 0.097671 0.103408 0.109264 0.115238 0.121329 0.127533 0.133846 0.140261 0.146770 0.153364 0.160035 0.166772 0.173563 0.180397 0.187262 0.194145 0.201035 0.207918 0.214782 0.221616 0.228407 0.235144 0.241815 0.248411 0.254920 0.261334 0.267642 0.273837 0.279912 0.285857 0.291667 0.297336 0.302860 0.308233 0.313452 0.318512 0.323410 0.328141 0.332699 0.337079 0.341272 0.345268 0.349056 0.352625 0.355959 0.359045 0.361868 0.364413 0.366663 0.368604 0.370222 0.371503 0.372435 0.373010 0.373218 0.373058 0.372528 0.371633 0.370379 0.368778 0.366846 0.364601 0.362066 0.359265 0.356225 0.352976 0.349547 0.345971 0.342277 0.338499 0.334668 0.330813 0.326964 0.323148 0.319393 0.315722 0.312157 0.308720 0.305427 0.302295 0.299338 0.296567 0.293992 0.291619 0.289454 0.287500 0.285759 0.284232 0.282916 0.281809 0.280907 0.280205 0.279695 0.279371 0.279226 0.279250 0.279436 0.279772 0.280251 0.280863 0.281596 0.282443 0.283393 0.284435 0.285562 0.286763 0.288030 0.289353 0.290724 0.292136 0.293582 0.295053 0.296543 0.298045 0.299551 0.301053 0.302540 0.304001 0.305423 0.306792 0.308092 0.309305 0.310414 0.311399 0.312241 0.312921 0.313419 0.313716 0.313796 0.313642 0.313238 0.312573 0.311637 0.310426 0.308936 0.307170 0.305134 0.302838 0.300296 0.297526 0.294547 0.291384 0.288060 0.284604 0.281043 0.277407 0.273724 0.270024 0.266335 0.262685 0.259100 0.255605 0.252225 0.248979 0.245888 0.242968 0.240236 0.237704 0.235382 0.233281 0.231406 0.229762 0.228353 0.227178 0.226238 0.225530 0.225051 0.224796 0.224759 0.224932 0.225308 0.225879 0.226633 0.227563 0.228657 0.229905 0.231297 0.232821 0.234467 0.236224 0.238081 0.240028 0.242055 0.244151 0.246307 0.248513 0.250761 0.253043 0.255350 0.257674 0.260009 0.262346 0.264676 0.266991 0.269279 0.271528 0.273723 0.275850 0.277891 0.279829 0.281645 0.283320 0.284833 0.286165 0.287296 0.288210 0.288887 0.289312 0.289472 0.289355 0.288954 0.288265 0.287288 0.286026 0.284489 0.282688 0.280638 0.278359 0.275872 0.273202 0.270374 0.267417 0.264358 0.261226 0.258052 0.254863 0.251687 0.248552 0.245484 0.242505 0.239639 0.236906 0.234324 0.231910 0.229678 0.227639 0.225804 0.224181 0.222774 0.221588 0.220626 0.219887 0.219370 0.219072 0.218989 0.219118 0.219449 0.219978 0.220694 0.221590 0.222656 0.223882 0.225258 0.226775 0.228421 0.230185 0.232058 0.234029 0.236087 0.238223 0.240426 0.242688 0.244998 0.247349 0.249731 0.252137 0.254559 0.256989 0.259421 0.261846 0.264254 0.266637 0.268982 0.271276 0.273504 0.275651 0.277698 0.279628 0.281421 0.283058 0.284519 0.285785 0.286838 0.287658 0.288231 0.288540 0.288572 0.288316 0.287761 0.286899 0.285725 0.284235 0.282428 0.280304 0.277866 0.275118 0.272066 0.268718 0.265083 0.261173 0.257000 0.252576 0.247916 0.243035 0.237948 0.232672 0.227223 0.221617 0.215872 0.210004 0.204030 0.197967 0.191830 0.185635 0.179398 0.173134 0.166856 0.160579 0.154315 0.148077 0.141876 0.135723 0.129628 0.123602 0.117652 0.111786 0.106012 0.100336 0.094764 0.089302 0.083954 0.078725 0.073617 0.068633 0.063777 0.059050 0.054453 0.049988 0.045654 0.041453 0.037384 0.033447 0.029641 0.025965 0.022418 0.018996 0.015695 0.012505 0.009417 0.006412 0.003471 0.000568 -0.002325 -0.005242 -0.008219 -0.011296 -0.014512 -0.017910 -0.021532 -0.025419 -0.029612 -0.034147 -0.039063 -0.044389 -0.050157 -0.056390 -0.063110 -0.070333 -0.078072 -0.086334 -0.095122 -0.104436 -0.114270 -0.124615 -0.135458 -0.146783 -0.158570 -0.170797 -0.183439 -0.196470 -0.209860 -0.223578 -0.237594 -0.251874 -0.266386 -0.281095 -0.295968 -0.310971 -0.326072 -0.341237 -0.356434 -0.371633 -0.386804 -0.401918 -0.416947 -0.431866 -0.446649 -0.461273 -0.475716 -0.489959 -0.503982 -0.517769 -0.531303 -0.544572 -0.557561 -0.570258 -0.582651 -0.594726 -0.606465 -0.617851 -0.628861 -0.639468 -0.649646 -0.659361 -0.668581 -0.677269 -0.685388 -0.692902 -0.699774 -0.705966 -0.711446 -0.716182 -0.720145 -0.723312 -0.725667 -0.727200 -0.727910 -0.727806 -0.726903 -0.725228 -0.722814 -0.719704 -0.715945 -0.711593 -0.706708 -0.701355 -0.695598 -0.689509 -0.683155 -0.676606 -0.669931 -0.663196 -0.656464 -0.649796 -0.643249 -0.636876 -0.630725 -0.624839 -0.619258 -0.614016 -0.609141 -0.604658 -0.600586 -0.596940 -0.593732 -0.590968 -0.588650 -0.586779 -0.585348 -0.584353 -0.583783 -0.583626 -0.583867 -0.584491 -0.585479 -0.586814 -0.588476 -0.590442 -0.592694 -0.595209 -0.597965 -0.600940 -0.604114 -0.607466 -0.610974 -0.614618 -0.618379 -0.622238 -0.626176 -0.630178 -0.634226 -0.638305 -0.642400 -0.646495 -0.650573 -0.654614 -0.658596 -0.662495 -0.666280 -0.669919 -0.673376 -0.676613 -0.679590 -0.682264 -0.684592 -0.686532 -0.688040 -0.689077 -0.689604 -0.689586 -0.688994 -0.687803 -0.685999 -0.683574 -0.680528 -0.676874 -0.672628 -0.667821 -0.662486 -0.656666 -0.650411 -0.643775 -0.636814 -0.629590 -0.622166 -0.614605 -0.606971 -0.599327 -0.591733 -0.584247 -0.576926 -0.569822 -0.562981 -0.556449 -0.550263 -0.544460 -0.539068 -0.534113 -0.529615 -0.525592 -0.522053 -0.519008 -0.516460 -0.514409 -0.512850 -0.511779 -0.511184 -0.511056 -0.511378 -0.512135 -0.513309 -0.514879 -0.516827 -0.519130 -0.521766 -0.524712 -0.527945 -0.531442 -0.535181 -0.539137 -0.543290 -0.547616 -0.552095 -0.556706 -0.561429 -0.566243 -0.571132 -0.576078 -0.581064 -0.586074 -0.591090 -0.596094 -0.601065 -0.605978 -0.610806 -0.615519 -0.620082 -0.624458 -0.628607 -0.632486 -0.636053 -0.639264 -0.642075 -0.644443 -0.646327 -0.647687 -0.648490 -0.648703 -0.648303 -0.647273 -0.645604 -0.643295 -0.640355 -0.636804 -0.632666 -0.627978 -0.622781 -0.617124 -0.611060 -0.604648 -0.597950 -0.591028 -0.583948 -0.576775 -0.569572 -0.562402 -0.555326 -0.548400 -0.541678 -0.535210 -0.529042 -0.523214 -0.517762 -0.512718 -0.508110 -0.503958 -0.500280 -0.497088 -0.494393 -0.492197 -0.490502 -0.489304 -0.488598 -0.488375 -0.488622 -0.489326 -0.490470 -0.492036 -0.494004 -0.496354 -0.499063 -0.502110 -0.505470 -0.509121 -0.513039 -0.517200 -0.521581 -0.526159 -0.530912 -0.535816 -0.540852 -0.545998 -0.551235 -0.556544 -0.561907 -0.567307 -0.572728 -0.578152 -0.583561 -0.588936 -0.594253 -0.599488 -0.604609 -0.609585 -0.614379 -0.618952 -0.623264 -0.627272 -0.630932 -0.634200 -0.637033 -0.639389 -0.641230 -0.642516 -0.643215 -0.643297 -0.642734 -0.641505 -0.639592 -0.636983 -0.633669 -0.629647 -0.624918 -0.619487 -0.613365 -0.606565 -0.599104 -0.591005 -0.582290 -0.572987 -0.563126 -0.552737 -0.541855 -0.530514 -0.518750 -0.506599 -0.494100 -0.481289 -0.468204 -0.454882 -0.441361 -0.427675 -0.413861 -0.399952 -0.385981 -0.371981 -0.357981 -0.344011 -0.330098 -0.316268 -0.302545 -0.288952 -0.275511 -0.262241 -0.249158 -0.236280 -0.223622 -0.211195 -0.199013 -0.187086 -0.175422 -0.164030 -0.152916 -0.142085 -0.131541 -0.121289 -0.111330 -0.101666 -0.092296 -0.083222 -0.074441 -0.065953 -0.057756 -0.049846 -0.042221 -0.034878 -0.027816 -0.021034 -0.014531 -0.008308 -0.002368 0.003286 0.008649 0.013717 0.018483 0.022940 0.027082 0.030901 0.034392 0.037547 0.040360 0.042828 0.044945 0.046708 0.048117 0.049170 0.049867 0.050212 0.050206 0.049856 0.049166 0.048145 0.046799 0.045139 0.043175 0.040918 0.038379 0.035573 0.032512 0.029210 0.025681 0.021939 0.018001 0.013880 0.009591 0.005148 0.000566 -0.004140 -0.008956 -0.013869 -0.018865 -0.023931 -0.029054 -0.034223 -0.039426 -0.044652 -0.049890 -0.055130 -0.060363 -0.065581 -0.070775 -0.075937 -0.081060 -0.086136 -0.091161 -0.096126 -0.101025 -0.105851 -0.110594 -0.115247 -0.119797 -0.124234 -0.128545 -0.132718 -0.136740 -0.140596 -0.144272 -0.147755 -0.151032 -0.154090 -0.156917 -0.159502 -0.161836 -0.163914 -0.165729 -0.167281 -0.168571 -0.169602 -0.170382 -0.170921 -0.171231 -0.171326 -0.171223 -0.170940 -0.170498 -0.169916 -0.169216 -0.168420 -0.167549 -0.166624 -0.165665 -0.164694 -0.163728 -0.162786 -0.161884 -0.161037 -0.160258 -0.159560 -0.158954 -0.158448 -0.158050 -0.157766 -0.157601 -0.157557 -0.157638 -0.157843 -0.158173 -0.158626 -0.159200 -0.159891 -0.160695 -0.161608 -0.162625 -0.163742 -0.164950 -0.166245 -0.167620 -0.169069 -0.170584 -0.172158 -0.173786 -0.175460 -0.177173 -0.178920 -0.180694 -0.182488 -0.184299 -0.186120 -0.187944 -0.189769 -0.191587 -0.193396 -0.195191 -0.196965 -0.198713 -0.200429 -0.202103 -0.203729 -0.205294 -0.206788 -0.208199 -0.209514 -0.210720 -0.211803 -0.212750 -0.213548 -0.214183 -0.214644 -0.214919 -0.214999 -0.214875 -0.214541 -0.213995 -0.213235 -0.212263 -0.211085 -0.209708 -0.208144 -0.206405 -0.204506 -0.202465 -0.200300 -0.198031 -0.195679 -0.193266 -0.190812 -0.188339 -0.185868 -0.183419 -0.181012 -0.178664 -0.176392 -0.174213 -0.172140 -0.170186 -0.168363 -0.166679 -0.165143 -0.163761 -0.162538 -0.161478 -0.160583 -0.159853 -0.159288 -0.158887 -0.158647 -0.158564 -0.158635 -0.158853 -0.159215 -0.159713 -0.160342 -0.161093 -0.161961 -0.162936 -0.164012 -0.165181 -0.166435 -0.167766 -0.169167 -0.170631 -0.172149 -0.173716 -0.175324 -0.176966 -0.178637 -0.180330 -0.182040 -0.183760 -0.185485 -0.187211 -0.188930 -0.190636 -0.192321 -0.193976 -0.195591 -0.197156 -0.198658 -0.200085 -0.201422 -0.202657 -0.203774 -0.204761 -0.205602 -0.206286 -0.206799 -0.207130 -0.207269 -0.207209 -0.206943 -0.206469 -0.205786 -0.204897 -0.203807 -0.202525 -0.201062 -0.199432 -0.197649 -0.195731 -0.193697 -0.191567 -0.189361 -0.187101 -0.184806 -0.182499 -0.180199 -0.177926 -0.175699 -0.173535 -0.171451 -0.169461 -0.167580 -0.165818 -0.164187 -0.162695 -0.161350 -0.160157 -0.159121 -0.158245 -0.157530 -0.156977 -0.156585 -0.156352 -0.156275 -0.156349 -0.156572 -0.156938 -0.157441 -0.158075 -0.158833 -0.159708 -0.160693 -0.161780 -0.162962 -0.164231 -0.165580 -0.167000 -0.168485 -0.170027 -0.171618 -0.173253 -0.174924 -0.176625 -0.178349 -0.180092 -0.181846 -0.183608 -0.185371 -0.187130 -0.188879 -0.190610 -0.192316 -0.193986 -0.195611 -0.197180 -0.198679 -0.200097 -0.201418 -0.202630 -0.203719 -0.204669 -0.205469 -0.206104 -0.206564 -0.206836 -0.206911 -0.206779 -0.206435 -0.205871 -0.205083 -0.204069 -0.202828 -0.201358 -0.199662 -0.197742 -0.195603 -0.193251 -0.190691 -0.187931 -0.184981 -0.181848 -0.178544 -0.175079 -0.171463 -0.167710 -0.163829 -0.159833 -0.155735 -0.151546 -0.147279 -0.142945 -0.138555 -0.134122 -0.129656 -0.125168 -0.120668 -0.116167 -0.111673 -0.107195 -0.102743 -0.098323 -0.093944 -0.089612 -0.085334 -0.081114 -0.076960 -0.072875 -0.068863 -0.064930 -0.061078 -0.057309 -0.053628 -0.050035 -0.046534 -0.043124 -0.039808 -0.036585 -0.033458 -0.030425 -0.027487 -0.024643 -0.021894 -0.019238 -0.016675 -0.014205 -0.011831 -0.009555 -0.007387 -0.005339 -0.003425 -0.001666 -0.000088 0.001283 0.002414 0.003271 0.003818 0.004019 0.003834 0.003228 0.002163 0.000606 -0.001475 -0.004109 -0.007321 -0.011134 -0.015564 -0.020626 -0.026328 -0.032675 -0.039667 -0.047300 -0.055567 -0.064455 -0.073949 -0.084029 -0.094673 -0.105857 -0.117552 -0.129729 -0.142356 -0.155401 -0.168828 -0.182602 -0.196688 -0.211049 -0.225650 -0.240453 -0.255422 -0.270524 -0.285723 -0.300986 -0.316280 -0.331574 -0.346839 -0.362044 -0.377165 -0.392174 -0.407048 -0.421764 -0.436302 -0.450641 -0.464766 -0.478658 -0.492303 -0.505687 -0.518796 -0.531614 -0.544125 -0.556306 -0.568137 -0.579590 -0.590635 -0.601241 -0.611373 -0.620993 -0.630064 -0.638548 -0.646405 -0.653599 -0.660094 -0.665856 -0.670855 -0.675065 -0.678465 -0.681041 -0.682788 -0.683707 -0.683810 -0.683118 -0.681660 -0.679473 -0.676602 -0.673100 -0.669024 -0.664435 -0.659401 -0.653989 -0.648269 -0.642313 -0.636188 -0.629965 -0.623708 -0.617481 -0.611345 -0.605354 -0.599561 -0.594013 -0.588750 -0.583812 -0.579230 -0.575031 -0.571238 -0.567869 -0.564937 -0.562450 -0.560414 -0.558830 -0.557694 -0.557002 -0.556744 -0.556910 -0.557486 -0.558456 -0.559803 -0.561508 -0.563552 -0.565914 -0.568572 -0.571504 -0.574688 -0.578102 -0.581724 -0.585531 -0.589503 -0.593618 -0.597855 -0.602195 -0.606620 -0.611111 -0.615650 -0.620221 -0.624810 -0.629399 -0.633974 -0.638517 -0.643008 -0.647424 -0.651739 -0.655922 -0.659942 -0.663761 -0.667342 -0.670642 -0.673620 -0.676233 -0.678439 -0.680195 -0.681461 -0.682200 -0.682376 -0.681958 -0.680921 -0.679247 -0.676923 -0.673947 -0.670326 -0.666074 -0.661217 -0.655786 -0.649821 -0.643371 -0.636488 -0.629232 -0.621662 -0.613846 -0.605848 -0.597737 -0.589578 -0.581438 -0.573379 -0.565463 -0.557746 -0.550281 -0.543119 -0.536304 -0.529875 -0.523868 -0.518312 -0.513233 -0.508651 -0.504581 -0.501034 -0.498017 -0.495532 -0.493578 -0.492150 -0.491240 -0.490837 -0.490926 -0.491493 -0.492519 -0.493985 -0.495868 -0.498148 -0.500799 -0.503800 -0.507124 -0.510748 -0.514647 -0.518796 -0.523171 -0.527748 -0.532503 -0.537415 -0.542461 -0.547620 -0.552871 -0.558196 -0.563575 -0.568992 -0.574430 -0.579870 -0.585295 -0.590682 -0.596010 -0.601249 -0.606371 -0.611341 -0.616122 -0.620675 -0.624958 -0.628929 -0.632542 -0.635755 -0.638524 -0.640808 -0.642568 -0.643769 -0.644380 -0.644380 -0.643751 -0.642488 -0.640591 -0.638073 -0.634951 -0.631255 -0.627021 -0.622291 -0.617114 -0.611544 -0.605639 -0.599459 -0.593067 -0.586526 -0.579898 -0.573247 -0.566631 -0.560109 -0.553735 -0.547561 -0.541634 -0.535996 -0.530687 -0.525739 -0.521183 -0.517043 -0.513339 -0.510087 -0.507298 -0.504979 -0.503134 -0.501763 -0.500862 -0.500425 -0.500441 -0.500900 -0.501787 -0.503085 -0.504779 -0.506847 -0.509271 -0.512028 -0.515098 -0.518457 -0.522085 -0.525957 -0.530051 -0.534346 -0.538820 -0.543450 -0.548217 -0.553099 -0.558079 -0.563136 -0.568254 -0.573415 -0.578604 -0.583804 -0.588998 -0.594167 -0.599290 -0.604343 -0.609298 -0.614123 -0.618785 -0.623245 -0.627463 -0.631397 -0.635004 -0.638241 -0.641063 -0.643429 -0.645298 -0.646632 -0.647395 -0.647556 -0.647086 -0.645962 -0.644164 -0.641679 -0.638495 -0.634607 -0.630015 -0.624722 -0.618736 -0.612070 -0.604740 -0.596765 -0.588168 -0.578976 -0.569216 -0.558919 -0.548118 -0.536847 -0.525142 -0.513038 -0.500574 -0.487786 -0.474711 -0.461388 -0.447854 -0.434143 -0.420293 -0.406337 -0.392309 -0.378241 -0.364165 -0.350109 -0.336103 -0.322171 -0.308339 -0.294632 -0.281069 -0.267672 -0.254458 -0.241445 -0.228647 -0.216079 -0.203753 -0.191679 -0.179867 -0.168326 -0.157063 -0.146083 -0.135390 -0.124990 -0.114883 -0.105073 -0.095559 -0.086342 -0.077421 -0.068794 -0.060461 -0.052417 -0.044661 -0.037186 -0.029988 -0.023059 -0.016389 -0.009965 -0.003775 0.002198 0.007973 0.013570 0.019009 0.024312 0.029504 0.034608 0.039646 0.044642 0.049618 0.054596 0.059595 0.064633 0.069728 0.074895 0.080145 0.085491 0.090940 0.096500 0.102175 0.107967 0.113878 0.119907 0.126049 0.132303 0.138660 0.145115 0.151659 0.158283 0.164976 0.171729 0.178529 0.185365 0.192224 0.199095 0.205964 0.212819 0.219649 0.226440 0.233182 0.239864 0.246473 0.253001 0.259437 0.265772 0.271996 0.278103 0.284085 0.289934 0.295644 0.301211 0.306629 0.311895 0.317004 0.321952 0.326736 0.331351 0.335789 0.340044 0.344107 0.347967 0.351612 0.355029 0.358204 0.361123 0.363769 0.366127 0.368183 0.369921 0.371327 0.372390 0.373099 0.373443 0.373419 0.373023 0.372257 0.371126 0.369639 0.367809 0.365653 0.363191 0.360447 0.357447 0.354218 0.350791 0.347196 0.343466 0.339633 0.335727 0.331782 0.327826 0.323890 0.320000 0.316183 0.312463 0.308861 0.305397 0.302089 0.298952 0.295999 0.293242 0.290687 0.288343 0.286214 0.284303 0.282610 0.281135 0.279876 0.278830 0.277992 0.277357 0.276916 0.276664 0.276590 0.276688 0.276947 0.277358 0.277912 0.278597 0.279404 0.280324 0.281345 0.282459 0.283655 0.284924 0.286258 0.287647 0.289082 0.290556 0.292062 0.293592 0.295139 0.296696 0.298255 0.299807 0.301341 0.302846 0.304309 0.305714 0.307047 0.308288 0.309420 0.310424 0.311280 0.311968 0.312471 0.312768 0.312843 0.312679 0.312263 0.311583 0.310629 0.309398 0.307887 0.306101 0.304045 0.301732 0.299174 0.296391 0.293403 0.290234 0.286910 0.283458 0.279906 0.276284 0.272620 0.268944 0.265285 0.261668 0.258122 0.254670 0.251335 0.248138 0.245099 0.242235 0.239560 0.237086 0.234825 0.232785 0.230972 0.229390 0.228042 0.226928 0.226048 0.225399 0.224977 0.224777 0.224794 0.225020 0.225446 0.226064 0.226864 0.227836 0.228970 0.230256 0.231683 0.233239 0.234915 0.236699 0.238581 0.240551 0.242598 0.244711 0.246882 0.249102 0.251361 0.253652 0.255966 0.258296 0.260634 0.262973 0.265303 0.267615 0.269898 0.272138 0.274322 0.276434 0.278457 0.280373 0.282162 0.283805 0.285284 0.286577 0.287666 0.288532 0.289159 0.289532 0.289636 0.289461 0.289001 0.288253 0.287217 0.285898 0.284305 0.282451 0.280352 0.278027 0.275499 0.272793 0.269935 0.266952 0.263874 0.260730 0.257547 0.254356 0.251184 0.248058 0.245003 0.242043 0.239200 0.236493 0.233941 0.231560 0.229363 0.227361 0.225566 0.223982 0.222617 0.221474 0.220554 0.219857 0.219381 0.219124 0.219083 0.219250 0.219619 0.220184 0.220934 0.221863 0.222959 0.224214 0.225618 0.227159 0.228827 0.230612 0.232504 0.234491 0.236564 0.238712 0.240926 0.243196 0.245514 0.247870 0.250256 0.252664 0.255087 0.257516 0.259946 0.262367 0.264770 0.267145 0.269479 0.271760 0.273972 0.276099 0.278123 0.280026 0.281789 0.283391 0.284814 0.286038 0.287044 0.287816 0.288336 0.288590 0.288564 0.288248 0.287631 0.286707 0.285469 0.283915 0.282044 0.279857 0.277355 0.274545 0.271433 0.268026 0.264335 0.260371 0.256146 0.251673 0.246967 0.242043 0.236917 0.231604 0.226122 0.220487 0.214715 0.208825 0.202831 0.196751 0.190601 0.184397 0.178153 0.171885 0.165606 0.159330 0.153070 0.146838 0.140645 0.134503 0.128422 0.122409 0.116475 0.110627 0.104872 0.099216 0.093666 0.088226 0.082902 0.077696 0.072613 0.067654 0.062824 0.058122 0.053551 0.049112 0.044805 0.040631 0.036588 0.032677 0.028897 0.025247 0.021726 0.018331 0.015060 0.011908 0.008872 0.005943 0.003115 0.000377 -0.002282 -0.004874 -0.007412 -0.009910 -0.012384 -0.014849 -0.017319 -0.019811 -0.022337 -0.024914 -0.027553 -0.030267 -0.033067 -0.035962 -0.038961 -0.042071 -0.045298 -0.048645 -0.052114 -0.055708 -0.059425 -0.063264 -0.067223 -0.071298 -0.075483 -0.079773 -0.084161 -0.088639 -0.093200 -0.097835 -0.102535 -0.107290 -0.112090 -0.116927 -0.121790 -0.126669 -0.131555 -0.136439 -0.141310 -0.146160 -0.150980 -0.155761 -0.160497 -0.165179 -0.169799 -0.174352 -0.178832 -0.183231 -0.187546 -0.191771 -0.195902 -0.199935 -0.203867 -0.207695 -0.211414 -0.215022 -0.218514 -0.221883 -0.225124 -0.228228 -0.231188 -0.233993 -0.236633 -0.239098 -0.241376 -0.243455 -0.245324 -0.246972 -0.248388 -0.249563 -0.250488 -0.251156 -0.251563 -0.251706 -0.251585 -0.251203 -0.250568 -0.249686 -0.248571 -0.247235 -0.245694 -0.243968 -0.242075 -0.240037 -0.237874 -0.235610 -0.233266 -0.230865 -0.228428 -0.225978 -0.223534 -0.221115 -0.218741 -0.216427 -0.214189 -0.212041 -0.209996 -0.208063 -0.206252 -0.204571 -0.203026 -0.201621 -0.200361 -0.199246 -0.198278 -0.197456 -0.196779 -0.196245 -0.195850 -0.195591 -0.195463 -0.195461 -0.195578 -0.195810 -0.196149 -0.196589 -0.197123 -0.197745 -0.198447 -0.199222 -0.200064 -0.200967 -0.201922 -0.202924 -0.203967 -0.205044 -0.206149 -0.207278 -0.208426 -0.209586 -0.210754 -0.211926 -0.213095 -0.214255 -0.215398 -0.216516 -0.217599 -0.218638 -0.219619 -0.220530 -0.221358 -0.222090 -0.222711 -0.223208 -0.223567 -0.223774 -0.223819 -0.223689 -0.223374 -0.222867 -0.222161 -0.221254 -0.220144 -0.218835 -0.217332 -0.215642 -0.213777 -0.211750 -0.209576 -0.207273 -0.204858 -0.202353 -0.199777 -0.197152 -0.194498 -0.191838 -0.189190 -0.186576 -0.184013 -0.181520 -0.179114 -0.176808 -0.174618 -0.172555 -0.170629 -0.168851 -0.167226 -0.165762 -0.164463 -0.163331 -0.162369 -0.161576 -0.160953 -0.160497 -0.160205 -0.160074 -0.160099 -0.160275 -0.160596 -0.161055 -0.161646 -0.162361 -0.163193 -0.164134 -0.165177 -0.166314 -0.167537 -0.168837 -0.170208 -0.171642 -0.173132 -0.174669 -0.176249 -0.177862 -0.179505 -0.181169 -0.182851 -0.184544 -0.186242 -0.187941 -0.189633 -0.191312 -0.192970 -0.194597 -0.196183 -0.197718 -0.199188 -0.200581 -0.201883 -0.203080 -0.204158 -0.205103 -0.205901 -0.206539 -0.207005 -0.207288 -0.207376 -0.207262 -0.206937 -0.206395 -0.205631 -0.204645 -0.203434 -0.202002 -0.200354 -0.198497 -0.196443 -0.194205 -0.191798 -0.189240 -0.186551 -0.183753 -0.180867 -0.177917 -0.174926 -0.171918 -0.168916 -0.165944 -0.163024 -0.160175 -0.157419 -0.154774 -0.152256 -0.149880 -0.147660 -0.145608 -0.143734 -0.142045 -0.140548 -0.139248 -0.138147 -0.137247 -0.136549 -0.136051 -0.135751 -0.135643 -0.135725 -0.135990 -0.136432 -0.137043 -0.137817 -0.138743 -0.139815 -0.141023 -0.142357 -0.143809 -0.145369 -0.147028 -0.148777 -0.150606 -0.152506 -0.154469 -0.156487 -0.158550 -0.160652 -0.162784 -0.164940 -0.167113 -0.169296 -0.171483 -0.173668 -0.175846 -0.178010 -0.180153 -0.182267 -0.184343 -0.186373 -0.188344 -0.190244 -0.192062 -0.193784 -0.195395 -0.196883 -0.198232 -0.199429 -0.200462 -0.201317 -0.201982 -0.202448 -0.202705 -0.202745 -0.202561 -0.202148 -0.201503 -0.200623 -0.199508 -0.198158 -0.196576 -0.194765 -0.192730 -0.190478 -0.188015 -0.185350 -0.182491 -0.179448 -0.176233 -0.172854 -0.169325 -0.165657 -0.161862 -0.157951 -0.153938 -0.149834 -0.145652 -0.141402 -0.137098 -0.132750 -0.128369 -0.123966 -0.119552 -0.115135 -0.110726 -0.106333 -0.101964 -0.097628 -0.093331 -0.089080 -0.084881 -0.080741 -0.076664 -0.072655 -0.068718 -0.064858 -0.061077 -0.057378 -0.053764 -0.050237 -0.046799 -0.043450 -0.040193 -0.037028 -0.033955 -0.030974 -0.028086 -0.025291 -0.022587 -0.019974 -0.017451 -0.015016 -0.012668 -0.010401 -0.008209 -0.006086 -0.004021 -0.002003 -0.000018 0.001950 0.003917 0.005902 0.007924 0.010001 0.012153 0.014400 0.016759 0.019250 0.021887 0.024688 0.027664 0.030829 0.034191 0.037759 0.041539 0.045535 0.049749 0.054181 0.058830 0.063691 0.068759 0.074028 0.079489 0.085133 0.090949 0.096926 0.103050 0.109310 0.115690 0.122176 0.128755 0.135412 0.142131 0.148899 0.155700 0.162520 0.169346 0.176164 0.182961 0.189724 0.196441 0.203100 0.209692 0.216206 0.222633 0.228963 0.235190 0.241304 0.247300 0.253172 0.258914 0.264520 0.269986 0.275305 0.280470 0.285473 0.290303 0.294951 0.299403 0.303645 0.307663 0.311440 0.314961 0.318208 0.321166 0.323818 0.326149 0.328146 0.329795 0.331087 0.332013 0.332570 0.332757 0.332577 0.332038 0.331149 0.329927 0.328391 0.326561 0.324462 0.322122 0.319569 0.316833 0.313945 0.310937 0.307839 0.304684 0.301500 0.298317 0.295162 0.292062 0.289040 0.286118 0.283317 0.280655 0.278146 0.275804 0.273642 0.271667 0.269886 0.268306 0.266929 0.265756 0.264788 0.264022 0.263456 0.263085 0.262904 0.262907 0.263086 0.263433 0.263941 0.264600 0.265400 0.266332 0.267387 0.268555 0.269825 0.271189 0.272635 0.274156 0.275741 0.277383 0.279072 0.280800 0.282559 0.284342 0.286141 0.287950 0.289762 0.291570 0.293364 0.295134 0.296871 0.298560 0.300188 0.301739 0.303195 0.304539 0.305752 0.306815 0.307708 0.308413 0.308910 0.309183 0.309215 0.308992 0.308501 0.307735 0.306688 0.305358 0.303749 0.301866 0.299721 0.297328 0.294705 0.291871 0.288852 0.285672 0.282358 0.278939 0.275443 0.271901 0.268340 0.264789 0.261275 0.257826 0.254465 0.251215 0.248098 0.245133 0.242336 0.239724 0.237308 0.235099 0.233106 0.231336 0.229792 0.228478 0.227395 0.226541 0.225914 0.225511 0.225327 0.225355 0.225590 0.226022 0.226643 0.227445 0.228416 0.229548 0.230830 0.232250 0.233800 0.235467 0.237241 0.239112 0.241070 0.243104 0.245205 0.247362 0.249568 0.251813 0.254089 0.256389 0.258704 0.261027 0.263351 0.265666 0.267963 0.270230 0.272456 0.274625 0.276722 0.278730 0.280632 0.282407 0.284037 0.285501 0.286781 0.287857 0.288711 0.289326 0.289686 0.289779 0.289595 0.289126 0.288370 0.287329 0.286007 0.284414 0.282563 0.280471 0.278156 0.275642 0.272954 0.270117 0.267160 0.264111 0.260998 0.257852 0.254699 0.251568 0.248485 0.245475 0.242561 0.239765 0.237107 0.234603 0.232270 0.230121 0.228166 0.226416 0.224877 0.223554 0.222451 0.221569 0.220908 0.220465 0.220239 0.220224 0.220415 0.220806 0.221388 0.222154 0.223094 0.224200 0.225461 0.226868 0.228410 0.230077 0.231858 0.233742 0.235721 0.237782 0.239917 0.242116 0.244370 0.246669 0.249005 0.251370 0.253755 0.256155 0.258560 0.260963 0.263357 0.265732 0.268076 0.270378 0.272624 0.274799 0.276885 0.278866 0.280723 0.282435 0.283984 0.285351 0.286515 0.287459 0.288164 0.288617 0.288800 0.288702 0.288312 0.287620 0.286620 0.285306 0.283677 0.281730 0.279468 0.276893 0.274011 0.270829 0.267354 0.263598 0.259572 0.255287 0.250758 0.246000 0.241026 0.235854 0.230499 0.224978 0.219308 0.213505 0.207586 0.201569 0.195468 0.189301 0.183082 0.176828 0.170552 0.164268 0.157991 0.151732 0.145503 0.139317 0.133183 0.127111 0.121111 0.115191 0.109359 0.103621 0.097984 0.092454 0.087035 0.081732 0.076550 0.071490 0.066556 0.061750 0.057074 0.052529 0.048115 0.043835 0.039686 0.035670 0.031785 0.028032 0.024407 0.020912 0.017542 0.014295 0.011166 0.008151 0.005240 0.002427 -0.000300 -0.002951 -0.005540 -0.008081 -0.010588 -0.013075 -0.015558 -0.018053 -0.020574 -0.023136 -0.025752 -0.028435 -0.031197 -0.034049 -0.036999 -0.040055 -0.043224 -0.046511 -0.049919 -0.053449 -0.057104 -0.060881 -0.064779 -0.068795 -0.072924 -0.077161 -0.081500 -0.085933 -0.090454 -0.095053 -0.099722 -0.104452 -0.109233 -0.114056 -0.118911 -0.123787 -0.128676 -0.133568 -0.138452 -0.143321 -0.148165 -0.152975 -0.157743 -0.162462 -0.167124 -0.171722 -0.176249 -0.180700 -0.185070 -0.189352 -0.193542 -0.197637 -0.201632 -0.205525 -0.209311 -0.212989 -0.216552 -0.219996 -0.223316 -0.226505 -0.229553 -0.232453 -0.235194 -0.237766 -0.240158 -0.242358 -0.244354 -0.246136 -0.247692 -0.249013 -0.250088 -0.250910 -0.251472 -0.251769 -0.251799 -0.251562 -0.251062 -0.250304 -0.249297 -0.248053 -0.246587 -0.244913 -0.243051 -0.241020 -0.238842 -0.236539 -0.234134 -0.231648 -0.229107 -0.226530 -0.223942 -0.221363 -0.218812 -0.216308 -0.213869 -0.211511 -0.209248 -0.207093 -0.205056 -0.203149 -0.201377 -0.199749 -0.198268 -0.196939 -0.195762 -0.194741 -0.193873 -0.193157 -0.192592 -0.192174 -0.191898 -0.191761 -0.191756 -0.191877 -0.192119 -0.192475 -0.192937 -0.193500 -0.194154 -0.194894 -0.195713 -0.196602 -0.197554 -0.198564 -0.199624 -0.200727 -0.201867 -0.203038 -0.204235 -0.205452 -0.206683 -0.207924 -0.209170 -0.210414 -0.211651 -0.212874 -0.214074 -0.215242 -0.216368 -0.217441 -0.218448 -0.219376 -0.220211 -0.220941 -0.221550 -0.222025 -0.222353 -0.222521 -0.222517 -0.222332 -0.221956 -0.221382 -0.220607 -0.219630 -0.218452 -0.217077 -0.215513 -0.213769 -0.211859 -0.209797 -0.207600 -0.205285 -0.202873 -0.200383 -0.197837 -0.195256 -0.192659 -0.190069 -0.187505 -0.184986 -0.182529 -0.180152 -0.177870 -0.175698 -0.173646 -0.171728 -0.169951 -0.168325 -0.166854 -0.165545 -0.164400 -0.163421 -0.162610 -0.161966 -0.161487 -0.161170 -0.161014 -0.161012 -0.161161 -0.161454 -0.161885 -0.162447 -0.163134 -0.163938 -0.164852 -0.165867 -0.166977 -0.168174 -0.169449 -0.170795 -0.172205 -0.173672 -0.175188 -0.176745 -0.178339 -0.179962 -0.181608 -0.183272 -0.184948 -0.186630 -0.188314 -0.189993 -0.191659 -0.193306 -0.194925 -0.196504 -0.198035 -0.199503 -0.200897 -0.202203 -0.203407 -0.204495 -0.205452 -0.206266 -0.206923 -0.207410 -0.207716 -0.207831 -0.207748 -0.207460 -0.206966 -0.206265 -0.205359 -0.204256 -0.202963 -0.201491 -0.199855 -0.198070 -0.196153 -0.194122 -0.191999 -0.189803 -0.187554 -0.185275 -0.182985 -0.180705 -0.178454 -0.176250 -0.174111 -0.172053 -0.170090 -0.168235 -0.166501 -0.164897 -0.163432 -0.162113 -0.160946 -0.159935 -0.159082 -0.158389 -0.157856 -0.157483 -0.157267 -0.157206 -0.157296 -0.157531 -0.157908 -0.158419 -0.159060 -0.159822 -0.160700 -0.161685 -0.162771 -0.163949 -0.165213 -0.166555 -0.167967 -0.169442 -0.170972 -0.172551 -0.174172 -0.175828 -0.177512 -0.179220 -0.180944 -0.182680 -0.184422 -0.186165 -0.187903 -0.189630 -0.191338 -0.193019 -0.194664 -0.196261 -0.197800 -0.199267 -0.200651 -0.201936 -0.203110 -0.204157 -0.205064 -0.205818 -0.206406 -0.206816 -0.207037 -0.207059 -0.206874 -0.206475 -0.205856 -0.205013 -0.203944 -0.202646 -0.201122 -0.199372 -0.197399 -0.195209 -0.192806 -0.190198 -0.187393 -0.184398 -0.181223 -0.177880 -0.174377 -0.170727 -0.166941 -0.163031 -0.159009 -0.154887 -0.150677 -0.146390 -0.142040 -0.137636 -0.133192 -0.128717 -0.124222 -0.119718 -0.115214 -0.110719 -0.106244 -0.101794 -0.097380 -0.093007 -0.088683 -0.084414 -0.080205 -0.076062 -0.071990 -0.067993 -0.064074 -0.060237 -0.056484 -0.052820 -0.049244 -0.045760 -0.042368 -0.039070 -0.035866 -0.032757 -0.029743 -0.026823 -0.023999 -0.021268 -0.018631 -0.016086 -0.013632 -0.011267 -0.008988 -0.006789 -0.004665 -0.002606 -0.000602 0.001360 0.003295 0.005218 0.007147 0.009100 0.011097 0.013158 0.015301 0.017545 0.019910 0.022412 0.025068 0.027892 0.030897 0.034094 0.037493 0.041100 0.044922 0.048960 0.053217 0.057692 0.062382 0.067284 0.072390 0.077695 0.083188 0.088860 0.094701 0.100697 0.106837 0.113106 0.119492 0.125979 0.132553 0.139199 0.145902 0.152649 0.159424 0.166214 0.173004 0.179782 0.186534 0.193248 0.199912 0.206516 0.213048 0.219499 0.225860 0.232121 0.238276 0.244318 0.250239 0.256034 0.261698 0.267225 0.272609 0.277845 0.282925 0.287839 0.292577 0.297129 0.301479 0.305615 0.309520 0.313180 0.316576 0.319693 0.322515 0.325026 0.327210 0.329056 0.330550 0.331685 0.332453 0.332852 0.332885 0.332554 0.331871 0.330848 0.329502 0.327853 0.325923 0.323740 0.321330 0.318723 0.315949 0.313040 0.310026 0.306939 0.303808 0.300663 0.297533 0.294444 0.291420 0.288485 0.285659 0.282961 0.280407 0.278013 0.275790 0.273748 0.271895 0.270238 0.268780 0.267523 0.266468 0.265615 0.264960 0.264501 0.264232 0.264148 0.264241 0.264505 0.264930 0.265509 0.266233 0.267092 0.268076 0.269176 0.270383 0.271685 0.273075 0.274542 0.276077 0.277672 0.279316 0.281004 0.282725 0.284473 0.286241 0.288022 0.289808 0.291593 0.293369 0.295126 0.296853 0.298539 0.300170 0.301731 0.303205 0.304574 0.305820 0.306924 0.307867 0.308629 0.309192 0.309537 0.309649 0.309511 0.309112 0.308442 0.307496 0.306270 0.304766 0.302991 0.300955 0.298670 0.296154 0.293427 0.290511 0.287431 0.284215 0.280889 0.277481 0.274022 0.270539 0.267060 0.263613 0.260223 0.256916 0.253714 0.250638 0.247707 0.244939 0.242349 0.239949 0.237750 0.235762 0.233990 0.232440 0.231114 0.230014 0.229139 0.228487 0.228054 0.227837 0.227830 0.228025 0.228415 0.228992 0.229746 0.230669 0.231750 0.232979 0.234346 0.235841 0.237452 0.239171 0.240985 0.242886 0.244863 0.246907 0.249007 0.251157 0.253346 0.255566 0.257811 0.260071 0.262341 0.264612 0.266875 0.269121 0.271339 0.273515 0.275637 0.277687 0.279650 0.281507 0.283239 0.284827 0.286251 0.287491 0.288528 0.289345 0.289923 0.290248 0.290306 0.290087 0.289584 0.288794 0.287718 0.286360 0.284729 0.282838 0.280704 0.278346 0.275785 0.273047 0.270158 0.267146 0.264040 0.260868 0.257659 0.254443 0.251246 0.248097 0.245019 0.242037 0.239173 0.236446 0.233875 0.231476 0.229261 0.227244 0.225432 0.223833 0.222454 0.221297 0.220363 0.219654 0.219167 0.218899 0.218846 0.219002 0.219362 0.219917 0.220659 0.221579 0.222668 0.223916 0.225313 0.226848 0.228511 0.230291 0.232178 0.234161 0.236230 0.238376 0.240587 0.242855 0.245170 0.247525 0.249910 0.252317 0.254739 0.257169 0.259599 0.262020 0.264424 0.266800 0.269136 0.271418 0.273632 0.275762 0.277788 0.279694 0.281459 0.283064 0.284490 0.285717 0.286727 0.287503 0.288027 0.288285 0.288263 0.287951 0.287338 0.286418 0.285185 0.283636 0.281769 0.279586 0.277090 0.274284 0.271177 0.267775 0.264089 0.260129 0.255909 0.251441 0.246740 0.241821 0.236700 0.231392 0.225915 0.220284 0.214518 0.208632 0.202643 0.196568 0.190422 0.184222 0.177983 0.171719 0.165445 0.159173 0.152917 0.146689 0.140501 0.134363 0.128285 0.122277 0.116346 0.110502 0.104751 0.099099 0.093552 0.088116 0.082795 0.077592 0.072512 0.067557 0.062730 0.058031 0.053463 0.049027 0.044723 0.040551 0.036511 0.032603 0.028826 0.025178 0.021658 0.018261 0.014980 0.011806 0.008724 0.005715 0.002756 -0.000181 -0.003126 -0.006117 -0.009189 -0.012385 -0.015744 -0.019309 -0.023122 -0.027223 -0.031652 -0.036445 -0.041636 -0.047256 -0.053332 -0.059885 -0.066934 -0.074494 -0.082573 -0.091178 -0.100307 -0.109959 -0.120125 -0.130794 -0.141951 -0.153577 -0.165653 -0.178152 -0.191051 -0.204319 -0.217929 -0.231847 -0.246042 -0.260482 -0.275132 -0.289959 -0.304929 -0.320008 -0.335165 -0.350366 -0.365581 -0.380779 -0.395930 -0.411007 -0.425984 -0.440834 -0.455534 -0.470061 -0.484396 -0.498517 -0.512408 -0.526053 -0.539436 -0.552545 -0.565367 -0.577889 -0.590099 -0.601979 -0.613514 -0.624681 -0.635457 -0.645814 -0.655722 -0.665147 -0.674055 -0.682409 -0.690172 -0.697307 -0.703777 -0.709547 -0.714586 -0.718862 -0.722353 -0.725039 -0.726910 -0.727963 -0.728203 -0.727647 -0.726317 -0.724246 -0.721474 -0.718047 -0.714020 -0.709451 -0.704403 -0.698941 -0.693132 -0.687046 -0.680751 -0.674314 -0.667801 -0.661276 -0.654798 -0.648425 -0.642209 -0.636199 -0.630438 -0.624965 -0.619815 -0.615017 -0.610596 -0.606571 -0.602960 -0.599772 -0.597015 -0.594692 -0.592804 -0.591347 -0.590314 -0.589697 -0.589484 -0.589661 -0.590214 -0.591124 -0.592375 -0.593947 -0.595819 -0.597971 -0.600382 -0.603032 -0.605898 -0.608960 -0.612198 -0.615590 -0.619118 -0.622761 -0.626502 -0.630323 -0.634206 -0.638136 -0.642098 -0.646076 -0.650056 -0.654019 -0.657948 -0.661819 -0.665607 -0.669284 -0.672816 -0.676169 -0.679304 -0.682180 -0.684755 -0.686986 -0.688831 -0.690247 -0.691193 -0.691632 -0.691526 -0.690846 -0.689567 -0.687670 -0.685145 -0.681991 -0.678216 -0.673836 -0.668878 -0.663373 -0.657365 -0.650899 -0.644030 -0.636816 -0.629316 -0.621596 -0.613718 -0.605750 -0.597755 -0.589795 -0.581933 -0.574225 -0.566727 -0.559488 -0.552555 -0.545971 -0.539771 -0.533989 -0.528652 -0.523782 -0.519399 -0.515516 -0.512141 -0.509281 -0.506935 -0.505103 -0.503777 -0.502950 -0.502610 -0.502744 -0.503334 -0.504363 -0.505812 -0.507659 -0.509882 -0.512460 -0.515368 -0.518583 -0.522081 -0.525838 -0.529831 -0.534037 -0.538431 -0.542993 -0.547700 -0.552532 -0.557467 -0.562488 -0.567575 -0.572711 -0.577880 -0.583064 -0.588245 -0.593404 -0.598519 -0.603563 -0.608508 -0.613321 -0.617967 -0.622407 -0.626600 -0.630504 -0.634075 -0.637268 -0.640042 -0.642352 -0.644160 -0.645427 -0.646120 -0.646213 -0.645684 -0.644523 -0.642724 -0.640294 -0.637247 -0.633605 -0.629401 -0.624674 -0.619468 -0.613836 -0.607834 -0.601521 -0.594959 -0.588212 -0.581344 -0.574419 -0.567499 -0.560643 -0.553911 -0.547355 -0.541026 -0.534970 -0.529231 -0.523844 -0.518842 -0.514255 -0.510104 -0.506409 -0.503184 -0.500438 -0.498179 -0.496407 -0.495122 -0.494318 -0.493987 -0.494119 -0.494701 -0.495718 -0.497152 -0.498985 -0.501197 -0.503766 -0.506671 -0.509890 -0.513399 -0.517176 -0.521197 -0.525439 -0.529880 -0.534498 -0.539271 -0.544177 -0.549197 -0.554310 -0.559499 -0.564745 -0.570032 -0.575342 -0.580660 -0.585967 -0.591245 -0.596472 -0.601622 -0.606666 -0.611573 -0.616307 -0.620831 -0.625102 -0.629079 -0.632719 -0.635978 