0.000000 0.000000 0.000000 0.000000 0.000000 0.000000 0.000000 0.000000 0.000000 -0.915726 -1.693953 -2.390394 -1.730061 -0.680587 -0.196539 0.001726 -0.726186 -1.008534 -1.781143 -0.610536 -1.665826 -0.933156 0.599674 0.215937 0.391718 1.308158 2.858624 3.305235 3.705775 6.493426 6.273650 7.320557 8.293803 8.863192 9.011324 10.310947 11.694031 11.906193 12.789665 13.408841 15.213477 13.993652 14.495720 14.160610 15.661017 15.057996 14.623740 13.777487 14.375261 13.340982 14.859918 12.745323 13.358625 12.698760 11.773144 11.781814 11.446757 10.848851 8.503205 6.637887 6.903723 4.882510 6.016832 4.052087 5.232291 4.688118 4.815194 7.444286 7.296010 7.416086 6.744451 6.818452 8.566708 8.730628 7.939936 5.412440 4.849841 6.422036 5.912454 3.780701 3.954707 4.068835 3.488306 2.835800 2.373357 2.473101 2.512530 3.265348 3.664835 2.642157 1.776423 2.641341 1.767554 1.153140 1.382550 1.114734 0.084817 -0.266168 0.343873 0.328511 1.077546 0.314206 -0.071560 -1.177639 0.355346 1.097630 1.416174 -0.375253 -1.246287 -1.148677 -0.217260 0.195492 -0.638089 -1.153591 -2.465088 -2.296786 -2.079044 -2.720701 -3.439024 -2.946553 -3.459466 -1.635210 -3.114770 -1.391569 -1.335001 -1.416367 -0.428949 -1.019417 0.930666 0.650152 0.906283 -0.123644 -1.169643 -1.309496 -0.051310 -0.256923 0.637926 0.421017 -0.475054 0.509494 0.074995 0.317208 0.104139 0.903146 2.085226 0.419778 0.238198 -0.114228 0.771010 0.634934 1.033517 0.456761 1.183244 0.622109 -0.988493 0.352799 -0.433482 -0.958025 -0.909528 0.139043 -0.333055 -0.260315 1.989324 2.571659 3.908109 3.229339 3.503846 4.808015 4.464493 4.654342 4.137266 3.993453 2.649338 2.539803 2.484914 3.923954 3.348499 2.692108 2.412491 2.068257 2.837427 3.802831 3.032292 3.027753 2.627954 3.752615 3.127459 2.767265 2.762686 2.987866 3.009967 1.573951 0.716718 0.304302 -0.077131 1.049528 1.164955 2.725697 1.062728 0.995009 1.113646 0.921123 2.990564 2.444276 3.744324 2.855374 0.999412 1.370500 1.825052 3.986762 2.146317 1.672175 0.819973 0.549696 -0.864558 -0.343264 -1.292608 -1.124938 -1.903160 -1.883316 -2.617288 -2.679748 -2.386097 -2.223067 -1.404887 -2.729946 -1.965913 -1.921034 -1.519501 -0.256120 -1.903752 -1.257462 -2.747073 -2.723739 -2.308046 -1.753261 -2.108656 -2.398107 -3.318362 -2.566743 -2.251838 -1.605892 -1.414642 -2.248632 -1.801281 -0.357252 -0.924672 -1.416655 -1.193271 -0.847142 -0.506832 -1.214217 -0.146462 -0.201049 -0.933176 -0.650349 -0.043862 -0.118562 0.269661 -0.421950 -0.129231 -0.245698 -0.529855 -0.254730 -1.483838 -1.794973 -0.925298 -0.640628 -1.469247 -1.666516 -1.256205 -0.183694 1.011563 2.058808 3.397006 3.307138 3.464751 3.986961 4.770936 5.188215 4.389466 3.410777 2.054141 1.218690 0.740496 0.117185 -0.084395 0.224900 -0.826250 -0.100174 -0.414552 -0.181004 -0.380737 -0.718482 0.300316 -0.209039 0.221739 0.097276 0.046727 -0.238173 -0.715743 -1.211093 -0.330369 -0.079876 -0.757493 -0.769304 -1.279591 -0.564015 -2.129845 0.149796 -0.323330 0.281351 -0.478111 -0.824331 0.323057 1.094981 2.362295 2.280107 2.710986 3.062672 2.777048 3.271561 3.864974 4.007077 4.050668 4.417275 4.407245 4.513458 4.519152 4.637180 4.569306 4.385934 3.669785 2.713812 2.649566 1.618991 0.576973 1.882793 1.096763 2.002861 0.864822 2.156956 2.003458 1.633313 0.367222 0.479601 -0.223229 -0.449743 0.036758 -0.241861 -1.937337 -4.073448 -3.060177 -1.488238 -2.634011 -3.298589 -4.789778 -5.747976 -6.437234 -5.603200 -6.094803 -6.304408 -5.896605 -6.363685 -6.548290 -5.848772 -5.068569 -6.013481 -5.090647 -5.380131 -5.463433 -6.730647 -5.166393 -4.891777 -5.616659 -5.856639 -5.422844 -4.966640 -5.622453 -5.036833 -5.986105 -4.840490 -4.522637 -4.059724 -3.096184 -2.907331 -3.521329 -4.001667 -4.204900 -3.331071 -3.888370 -4.458562 -4.329726 -5.814985 -6.788897 -7.712421 -6.148273 -4.699147 -3.751009 -6.118708 -6.997852 -7.151691 -4.802272 -4.675786 -4.372550 -3.612287 -2.730799 -3.299131 -3.097463 -1.907846 -0.974216 -0.004061 0.934091 -1.078059 0.175856 -0.783661 0.248602 -0.315878 -0.598388 0.262886 -0.076198 -0.322256 -0.121147 -0.253536 -0.531126 -0.857410 0.105530 1.504483 0.730431 -0.061181 -0.431814 -0.235130 1.354305 1.363437 2.824861 1.392030 3.036919 1.829890 2.967462 3.242607 5.010574 3.675948 4.955292 4.524487 4.140509 3.047258 2.215408 3.744645 2.653729 2.832610 2.622603 1.183166 0.836532 0.011894 -0.159845 0.426867 -0.348748 -1.018612 -2.750556 -3.620315 -3.439826 -3.962558 -4.107289 -5.125322 -5.495771 -6.282979 -7.049364 -6.789452 -6.918078 -5.979733 -5.296102 -4.885446 -4.775263 -4.080323 -2.544824 -2.680855 -1.044988 -0.949950 -1.309788 -3.360652 -3.490275 -3.931246 -3.692997 -5.003316 -4.975637 -5.321316 -5.621995 -4.847626 -4.778342 -4.155575 -3.539109 -3.413602 -3.086302 -3.839935 -3.680134 -3.338181 -2.717509 -4.482793 -5.085825 -4.963167 -4.830007 -4.496269 -4.451984 -4.154758 -5.156049 -4.970203 -4.283573 -5.495488 -4.701185 -5.195091 -5.030540 -5.525753 -6.524463 -6.633503 -7.345320 -6.206566 -6.944596 -6.768525 -6.568556 -6.100879 -7.195315 -7.275700 -4.988614 -6.209677 -6.113727 -6.453626 -5.881237 -6.332591 -5.583789 -5.908914 -5.930840 -6.064579 -4.707416 -5.249106 -4.016224 -3.175460 -2.990059 -2.725567 -2.291732 -2.732863 -3.457686 -3.080070 -2.701021 -3.165477 -2.475027 -4.035382 -3.766477 -3.558342 -3.102993 -3.506394 -4.016596 -2.621742 -2.342915 -2.104291 -1.276583 -0.172274 -1.136969 -0.187826 0.294790 1.458617 0.910291 1.228735 -0.406374 -0.155948 1.108848 2.315860 1.652097 0.476512 1.201130 1.652336 2.023693 2.468256 0.914664 1.178274 1.572447 1.946477 2.851121 3.004668 3.048881 2.752548 2.740978 3.627335 2.604941 2.876833 2.721098 3.532716 2.588709 2.471577 3.665272 3.684658 3.717968 3.185174 3.549358 3.118129 4.385002 4.365111 3.735949 3.725816 5.051551 5.277594 5.551507 5.145986 4.848289 5.858616 5.651550 6.599158 6.053262 6.317126 6.859600 7.975585 7.486361 8.981832 9.240399 8.567311 8.270051 7.662807 7.672840 8.102288 5.937519 6.867401 5.048283 5.922694 4.779874 3.700674 4.443907 3.945516 2.868996 2.869581 1.731951 2.779566 2.525891 4.539095 4.227311 2.456224 2.408299 4.663653 5.489460 4.780245 4.347428 3.654631 3.109767 2.806091 3.609693 4.532435 3.141206 4.075558 3.406612 3.218187 3.786497 2.945497 3.788328 2.661994 2.998647 2.751115 1.064647 1.793800 2.045340 2.429722 2.385601 1.732363 1.448855 2.269430 2.963522 3.745018 2.602853 1.686632 1.331891 1.573516 1.857402 2.039031 1.164251 1.070917 1.010435 1.070249 1.316885 0.482145 0.602295 0.621696 0.666596 0.464183 -1.359615 -1.738256 -2.247707 -1.706494 -2.082679 -2.211069 -2.953680 -2.505190 -1.691447 -1.176339 1.004003 0.431279 1.585649 1.822506 1.532527 2.371759 1.927707 2.721493 2.207854 1.804970 1.965156 1.932498 2.444144 1.198102 1.807352 2.063194 3.414641 2.769413 2.433912 1.520055 1.677425 2.564699 3.752040 2.761525 3.077174 1.230159 0.877905 1.002913 1.789147 2.168632 0.665072 -0.202293 0.517358 1.484659 3.135402 2.860407 1.947330 1.925079 1.728700 1.774018 2.056190 0.749781 0.224085 -0.415542 -0.681618 -0.766611 -1.578882 0.708643 0.410021 1.268822 0.492582 0.176506 1.334542 1.843719 1.907446 1.057851 1.685932 1.988511 1.876389 1.891137 2.546708 1.946247 2.139285 1.385925 1.851929 1.410734 1.421360 1.765030 -0.014476 -0.125886 0.201347 0.058377 1.604579 0.306941 0.426854 -1.631005 -1.703258 -1.122313 -2.125832 -0.663544 -0.800420 -1.180787 -2.502714 -3.174154 -2.325804 -3.125371 -3.506941 -3.332320 -3.986267 -4.383009 -4.793953 -4.383342 -2.061501 -2.712872 -3.794949 -2.929809 -2.938934 -1.978306 -1.891152 -2.801076 -2.959379 -4.100713 -3.544329 -2.526429 -2.471702 -3.000412 -3.610271 -4.946514 -4.798954 -5.748384 -4.670433 -5.377801 -5.432859 -5.255237 -4.757019 -5.005622 -5.093327 -3.137594 -1.603294 -1.379235 -2.114832 -3.266903 -3.185926 -3.182751 -2.139565 -1.071573 -3.316655 -4.859535 -5.155585 -5.167698 -4.056484 -3.448916 -4.098738 -5.982336 -5.723820 -5.588244 -5.193158 -4.453677 -4.084499 -3.825915 -4.148949 -3.674295 -2.820801 -2.629259 -1.955618 -1.066859 -1.638874 -2.400635 -2.249068 -2.384393 -3.000425 -2.741990 -4.121860 -3.866956 -4.803582 -5.422242 -3.719035 -3.781986 -2.518582 -3.750416 -2.495648 -1.915468 -0.446010 0.354978 0.482493 0.827070 -0.330419 0.348623 1.659347 2.600257 2.723262 2.707686 1.394677 1.102203 1.083802 2.503245 2.733281 1.753422 0.335854 -0.084983 -0.083919 0.462730 0.501008 0.584227 1.729945 0.168977 -0.467927 -0.315832 0.244691 0.633345 1.074487 0.976937 0.703988 -0.023344 0.971660 1.606779 2.401038 1.531726 1.003223 0.307507 0.556592 -0.344288 0.657969 -1.004569 -1.179609 -1.931224 -1.635563 -1.003633 -1.145960 -0.309801 -1.112272 -0.850410 -0.549994 -1.400349 -0.571506 -1.096733 -1.807869 -0.366815 -1.093622 -1.797802 -2.385939 -2.576736 -1.582926 -1.217759 -1.362684 -2.082320 -2.842304 -2.453569 -1.977287 -2.931440 -2.032782 -3.407120 -3.012034 -2.340888 -2.862144 -1.299151 -3.242636 -2.491329 -3.468498 -4.804045 -4.315701 -4.952028 -4.880664 -6.240305 -7.126253 -7.119467 -6.210821 -6.591603 -6.462433 -5.766496 -6.138938 -5.163090 -5.605896 -5.987905 -5.658589 -5.129857 -3.088602 -3.791456 -4.801476 -3.684347 -4.346132 -2.980835 -2.647149 -2.496666 -3.160702 -4.264990 -3.998286 -3.704050 -2.859642 -3.282148 -3.339922 -2.830561 -3.714378 -3.282377 -2.514681 -2.740201 -4.055088 -4.192594 -4.031929 -5.094056 -6.710725 -4.852960 -4.981691 -4.623149 -5.005236 -2.321071 -2.993268 -3.054098 -1.846162 -1.043023 0.311823 -0.876701 -1.166605 -0.204747 -0.484391 0.949168 0.499651 0.193782 0.637475 1.132470 2.239682 1.123637 -0.853188 -1.070873 0.310632 0.821419 0.782629 0.022826 0.331524 -0.409098 1.323060 1.114003 2.059905 2.516685 2.687491 1.651093 0.595164 1.281332 1.303658 1.662017 1.518901 1.327718 0.490675 0.768989 0.885405 2.315945 0.615526 0.991230 0.837434 0.376751 0.503769 0.357017 0.829158 -0.263361 -0.795898 -0.781386 -1.377321 -1.396275 -1.217368 -1.689610 -2.732781 -2.515157 -2.143346 -2.142057 -1.343783 -1.693098 -2.903106 -3.108781 -1.818357 -2.661791 -2.315881 -3.634817 -3.634802 -3.399140 -2.795342 -1.790936 -2.045888 -0.866239 -0.366215 -1.137991 -0.868024 0.017052 0.236041 0.575880 -0.463657 -1.744098 -1.600626 -1.831987 -0.491559 -0.720334 -1.954166 -3.530986 -2.479954 -2.230616 -2.290327 -2.032232 -2.280335 -3.016813 -2.505467 -1.038282 -0.249824 0.106541 -0.148692 0.220998 -0.901382 -0.986792 -0.478727 -1.292132 -1.888428 -2.481048 -4.008952 -3.764217 -5.328713 -4.155272 -3.945222 -3.236980 -4.218849 -4.039077 -5.401072 -4.656406 -4.677957 -2.553636 -3.342822 -4.393367 -4.626415 -3.553420 -2.366901 -3.378449 -2.510291 -3.065100 -2.859666 -3.446033 -3.276793 -3.392300 -4.778592 -3.979401 -3.749435 -2.862395 -4.440775 -3.123930 -2.512206 -2.884657 -2.694056 -2.459971 -2.357682 -2.833815 -2.181560 -2.016083 -3.536535 -2.619103 -2.416999 -1.806702 -2.135372 -1.082384 -1.718217 -0.350275 -1.200261 0.462886 -0.841707 -0.395571 0.401546 -0.681960 -0.882856 -0.140602 -0.163236 -0.334354 -0.619584 -0.551636 -0.057186 0.284381 0.658198 1.000898 0.779716 -0.021642 -0.026345 -0.292040 0.815563 1.241853 0.991855 0.041825 0.225975 0.328064 1.877532 1.015554 1.607237 0.380761 0.410208 0.300643 -0.184433 -1.448770 -1.800037 -2.078705 -2.163468 -2.691215 -3.461515 -4.353485 -3.267989 -3.782710 -2.749159 -2.615481 -2.799007 -1.864376 -2.038046 -2.376793 -1.757221 -1.277430 -0.775382 -1.266418 -3.379227 -3.275196 -2.613112 -2.474723 -1.156628 -2.319448 -1.672923 -2.490981 -2.996954 -0.249293 -0.272893 -0.058350 -1.414081 -1.909530 -1.858508 -2.102279 -2.743056 -2.734402 -2.654469 -2.309464 -2.967643 -3.306630 -3.237911 -2.466610 -2.790698 -1.991029 -2.600487 -3.344587 -3.524840 -3.578165 -2.878627 -3.365149 -2.496522 -2.068245 -2.448779 -2.424817 -2.406255 -2.514378 -1.980790 -2.872116 -2.817007 -2.227864 -2.913518 -1.475503 -2.097650 -1.303293 -1.639697 0.622633 1.319091 2.618415 2.118265 1.702075 1.113662 1.346500 1.398486 0.717256 0.809487 1.423922 -0.008795 0.291893 1.531213 2.824628 3.709624 2.915778 3.868059 2.746960 3.444442 4.358882 4.146425 3.068430 3.051514 4.973819 5.679128 6.253032 6.516949 8.371190 7.659237 7.853944 7.282542 7.415582 8.896255 7.715637 8.315047 8.904501 9.255756 10.581483 10.682397 11.009712 10.773096 10.942464 11.465798 10.989961 11.595933 11.935375 11.062179 10.763924 10.505122 11.753164 11.564226 11.961542 12.029218 9.539841 8.898354 8.573079 9.038811 9.218344 6.879108 7.117112 6.778614 6.045802 5.716728 6.236774 5.182255 4.828667 3.167962 3.349342 2.950563 2.987376 1.896493 2.063655 1.990269 1.860930 1.657160 1.086914 1.979136 1.369885 0.831537 0.644559 -2.117796 -2.504302 -1.294841 -1.968333 -2.547513 -5.452607 -3.886610 -4.403948 -4.998281 -5.085604 -5.413283 -6.713544 -6.375405 -6.701459 -5.155779 -6.506268 -6.579222 -7.090270 -5.953901 -6.887607 -5.578127 -5.128978 -5.763093 -7.236157 -7.761568 -6.926031 -6.354553 -7.238206 -6.889970 -7.859457 -7.969017 -8.305747 -8.688919 -7.641479 -7.975732 -7.379078 -7.106353 -7.163382 -8.606192 -7.665465 -6.920903 -5.141084 -6.742466 -6.080940 -7.333373 -6.221275 -4.721909 -3.856546 -4.760455 -4.870715 -3.455688 -1.680606 -2.062351 -2.550148 -1.796272 -1.715050 -1.516738 -1.339992 -0.474192 -2.744848 -1.788964 -1.509473 -0.863588 -0.902523 -1.849331 -1.110451 0.247893 1.281349 1.082403 0.687493 0.460325 1.348785 1.460845 2.207747 3.908169 2.231696 3.016115 2.242495 2.509525 3.761499 4.573527 5.046442 5.190878 4.489391 4.129901 5.038290 6.036811 7.486206 7.854483 7.000135 6.796644 7.702499 8.205386 8.238217 10.089463 10.485072 10.335008 8.778597 9.264721 8.789505 9.460859 11.372362 10.388274 9.410883 8.932071 7.785460 8.320933 7.431308 8.449657 7.502907 6.509958 4.362010 5.054080 4.185697 5.087828 3.781076 5.037212 5.497341 4.442781 4.118084 4.622923 4.885470 3.258749 3.408421 3.146677 2.061303 1.707255 2.273870 2.490274 0.394622 0.862920 1.827362 2.668306 3.306144 2.779078 1.807433 -0.067324 1.134380 0.430803 1.453609 0.422326 0.666124 0.504152 0.016483 1.594110 1.343332 0.903282 1.030072 1.125772 1.810391 0.596111 0.546170 0.952474 0.151136 -0.744872 0.665857 1.825552 1.671043 0.976412 0.337852 -0.887924 -0.833335 -0.636345 0.442499 -0.667766 -0.934503 -0.613027 -0.597500 -0.355246 -0.509776 0.507560 -0.885223 -0.392401 0.014703 0.489081 -0.871392 -0.892234 -1.725060 -0.929383 -0.907993 -0.424884 -0.337992 -0.850124 -1.481404 -1.454243 -1.821776 -0.243410 0.132148 0.180938 0.913898 -0.491791 1.327380 1.928707 3.204341 3.539435 2.581435 3.571193 3.304173 2.903868 2.832975 3.551349 2.361722 2.765916 1.616579 1.817574 1.279370 1.638459 2.208435 1.473976 1.107623 1.361465 1.515595 1.330084 2.470833 0.418802 1.782650 2.214292 3.153109 2.793658 3.132910 3.729103 4.028418 4.728428 4.309087 6.010373 4.231258 4.658566 3.878342 3.811073 4.240954 4.222832 4.705808 4.274023 4.931663 4.549125 5.182963 5.202306 6.472175 6.462186 3.635817 4.264982 3.581135 4.927720 3.874992 2.446214 3.263351 3.687070 4.711359 3.749727 2.651496 2.184222 2.234424 1.872558 2.069559 1.684684 1.864480 1.244385 1.019314 0.822202 2.714621 3.799170 3.727811 3.116360 3.485186 2.879784 3.232721 2.804301 3.293206 3.686399 2.539286 2.260935 1.404185 2.271472 2.353802 2.759398 2.905772 2.544716 2.874733 3.296948 3.985411 4.565492 4.427901 4.168464 4.656172 5.563229 5.067524 4.532644 4.472534 4.322255 4.461595 3.831557 4.104205 2.314521 2.782175 3.389453 3.614931 5.273663 3.434103 4.701297 5.066845 5.689679 6.477086 6.958119 7.112425 6.383518 5.764041 6.121040 5.527151 5.784703 5.828883 6.576313 4.856804 3.968135 4.180995 5.030562 5.268061 6.146476 5.574223 4.670455 5.663121 6.052760 6.579684 7.209555 6.136364 7.203784 7.172297 6.124056 6.996081 6.573796 7.284503 6.364576 6.214123 5.778897 6.327315 5.671164 5.826026 4.144408 5.083524 3.441017 4.432185 4.228800 3.003675 2.693693 2.941624 4.168136 4.236948 4.168755 5.199326 5.130270 6.554392 6.387867 7.364896 6.109729 7.609538 6.252035 6.629697 6.602233 5.499365 5.790179 4.931187 5.258382 6.139472 5.704434 5.200399 4.557135 4.160628 5.620946 5.347713 6.041231 4.097397 3.519094 2.850946 3.267141 4.431997 3.790028 1.602066 2.379511 1.812898 2.612496 2.410276 3.267974 3.761460 3.933243 3.986420 3.368045 3.543573 3.999043 4.877443 2.903701 3.494160 4.220353 3.895598 2.940321 3.030325 3.119964 4.875037 4.681410 4.290085 2.709763 2.370992 2.856656 4.196067 4.189814 3.673192 4.209215 2.869648 2.621131 3.133200 4.296793 4.327752 2.006196 1.770006 0.474449 1.338684 2.615038 2.674498 1.906915 0.695476 1.394494 2.327411 2.875075 2.644234 1.482450 0.305963 1.143892 1.212648 1.855061 1.579188 1.602385 2.247402 1.505684 1.251219 2.902619 3.868949 3.414329 3.298850 4.741674 4.514841 4.040967 3.414333 2.616582 3.125528 2.872571 3.478341 1.694970 0.774398 0.747057 1.529356 1.946737 2.055592 2.984034 3.023972 3.374880 3.049920 3.820782 3.935257 4.566037 4.088014 3.718129 3.887946 4.480766 4.083085 3.172883 3.516380 3.961239 4.435569 4.188475 3.211610 3.714819 3.391973 2.897737 4.179852 3.783678 3.337620 4.107319 3.019251 4.473965 4.048147 4.563895 5.218472 2.726356 3.559215 3.038657 4.319634 4.781769 3.867791 2.811332 3.752284 4.322563 4.345060 4.850865 3.290361 3.170314 2.271544 2.580415 2.832298 1.336361 0.002431 -0.427589 0.146043 0.839042 0.356238 -0.883709 -1.893448 -1.570385 -0.645498 -0.505735 -0.230850 0.008728 -0.245072 0.316791 1.461110 1.052406 1.935764 1.614092 2.088537 1.439103 1.464247 0.867079 -0.283891 1.266877 1.909874 2.068132 1.650375 1.885500 2.839382 3.316060 2.829118 4.031553 3.243075 3.510287 3.508053 2.432812 2.882057 2.810122 3.520140 2.733800 2.341916 1.527523 2.462648 2.310932 3.529395 3.196217 2.284891 2.855006 2.373307 3.604379 3.697146 4.352221 4.947673 3.020988 3.828613 2.606453 3.148757 3.951365 3.350671 3.056828 1.899400 2.481666 3.507974 3.212752 3.929426 3.921803 3.348969 3.954799 4.529902 4.342531 4.660601 3.818852 4.478413 5.238520 5.271499 5.578296 5.116417 5.406065 5.567648 5.059027 4.500876 5.043596 5.632598 5.458002 3.804447 3.268786 3.577773 3.915983 3.453117 4.510833 3.833698 3.833907 2.959274 4.100057 6.062838 6.398328 7.326172 6.492427 5.709811 5.731666 4.968980 6.490928 6.152983 4.734214 3.917174 4.138228 5.263511 5.439593 6.445822 5.927310 5.671707 4.465356 4.308048 4.522788 4.498123 3.094766 3.032736 3.216281 5.526328 3.816801 3.497632 4.296873 5.664238 5.280968 5.693987 5.628647 6.183445 6.833970 5.986010 6.748165 5.577248 6.232547 5.499036 5.048952 3.950254 4.083689 3.314031 2.919450 2.819116 3.062355 4.376893 4.370921 4.255397 4.809145 4.298747 4.676371 4.512680 4.203608 4.241312 3.743852 3.289984 3.101573 3.665111 3.495551 3.857223 3.077745 3.646035 2.792847 2.070046 3.549276 4.358504 4.692219 4.011268 4.064405 3.532126 3.474842 3.962439 3.632903 2.063331 1.236147 -0.181282 1.192271 -0.148064 1.349417 0.251949 1.324532 1.077955 1.178889 1.569138 0.590432 0.844079 -0.397277 0.509540 0.178614 -0.123431 0.104343 0.646851 1.913442 1.238077 0.184296 -0.142105 1.337421 1.870214 1.137890 0.144771 -1.273313 -0.825621 -1.051723 0.026274 -0.660484 0.002971 -1.333595 -1.099408 -0.216067 0.908455 2.529691 0.903710 1.839227 0.938174 1.675589 1.404794 0.145932 -0.427196 -1.052710 -0.274824 -0.918670 -1.410254 -1.744091 -1.161748 -0.504492 0.459488 0.529583 0.524276 0.912334 1.535545 2.122869 3.222259 1.790487 2.525861 2.414062 1.903060 2.835986 4.096318 4.783242 3.376299 1.820912 3.567470 4.381998 4.319105 3.681979 2.168439 2.235623 1.735911 1.557498 2.824964 2.271483 2.556955 2.784371 3.567687 4.354593 4.561794 3.866477 4.287610 4.476985 3.767801 5.137768 5.803423 5.305131 3.749785 3.459133 5.459087 5.774064 6.301992 5.322377 4.146024 4.345486 4.155005 5.330126 4.685529 4.889063 4.233706 3.985719 4.102625 4.155675 3.326296 4.060379 4.167801 3.216434 3.564062 2.780265 3.460550 2.275477 3.340817 4.196967 3.728390 3.577423 1.676322 2.750347 2.936582 3.972741 4.352577 3.365629 2.773288 2.857018 4.059961 4.565693 4.786548 4.714047 3.435942 3.943306 3.812341 3.449902 3.367258 4.028829 3.943667 3.476259 5.001737 4.296536 4.529471 4.649918 5.680523 5.417533 5.673240 6.205352 6.430300 4.622448 5.468651 6.141544 5.578275 5.328694 6.462325 4.863005 5.621236 5.077310 5.721144 6.955540 6.784189 7.315682 6.612276 5.875680 7.274955 7.788898 8.175788 9.198485 6.881229 7.832215 8.725507 9.947298 9.151864 9.697238 7.681792 7.629121 7.079402 6.777404 8.423130 6.666577 7.299173 5.849160 6.338141 7.076657 5.915178 7.047563 6.486117 7.705729 7.079777 7.706805 6.908049 6.809730 7.401203 8.294457 10.239719 8.247182 9.973543 9.604568 10.098324 11.063620 10.028402 11.438579 10.868658 11.602617 11.632144 9.385237 9.925572 9.908559 10.222638 9.126601 9.371364 8.152836 7.364846 8.636066 7.958573 7.623975 5.177392 6.945126 6.747831 6.768836 7.739486 7.705442 7.138051 6.703312 7.129975 5.856072 7.144457 7.517636 8.106216 6.925730 5.783825 5.826137 6.147601 5.998140 6.969624 5.605807 6.379648 4.964785 4.822446 4.209331 4.476727 5.539444 6.349782 4.581323 4.711453 4.532738 4.177259 4.877429 4.078151 6.252823 5.977806 5.413454 5.147548 4.448355 5.384959 5.071395 6.070873 5.659085 6.457930 5.149117 5.223528 5.640219 5.992337 6.773667 7.909197 6.496519 5.572849 4.425466 5.209065 5.761989 5.668154 4.801217 4.251497 4.415155 5.262054 5.721897 4.578590 4.852837 3.808095 3.657242 3.945200 3.004148 3.692894 3.868162 3.908896 4.429854 3.870571 4.505398 4.920543 6.185655 5.586591 5.183798 4.263635 5.153039 5.482760 5.088899 6.089095 4.994358 4.085577 3.981938 4.488069 5.344413 4.593205 4.353403 4.216317 4.749776 4.738405 5.803542 5.636440 6.176356 5.741920 5.304785 5.913220 4.370898 5.514902 4.640599 5.521389 4.932436 4.820702 4.956511 4.554058 5.114398 6.209575 5.562349 6.084544 5.959139 5.302354 5.150133 4.853576 5.589419 6.175938 6.013325 5.347406 5.074218 6.706420 8.273155 8.342542 7.389823 6.435762 6.378579 5.962613 5.574692 5.755214 4.466456 4.259313 4.813616 5.089558 5.143298 4.966188 4.585944 4.612208 3.150312 1.943111 0.285900 -0.252165 -0.675725 -1.668254 -2.880112 -3.533941 -2.034955 -1.801812 -1.303645 -1.983787 -2.483243 -1.297399 -1.456568 -1.530919 -2.448179 -2.629011 -2.128093 -2.029611 -2.679991 -1.884736 -2.404693 -1.964415 -1.577250 -1.103730 -1.223668 -2.105457 -2.397252 -3.069661 -2.388796 -3.030751 -2.920303 -2.172390 -2.199073 -1.707500 -0.731560 -1.069143 -0.583689 -1.777998 -1.353506 -1.971848 -2.270014 -2.582229 -4.047522 -4.865594 -4.811419 -4.064650 -4.063413 -4.709244 -5.232339 -5.568835 -5.172821 -4.491565 -4.578025 -5.677520 -6.429779 -5.771501 -6.064317 -5.458201 -5.650685 -5.549435 -6.599644 -6.068288 -5.442955 -4.471255 -4.993537 -5.118769 -4.941982 -5.109164 -5.011590 -5.658722 -5.643599 -5.935447 -7.400465 -8.292405 -8.827588 -8.186060 -8.969811 -9.164766 -9.530387 -9.038937 -8.125624 -8.034727 -7.283225 -7.556517 -8.144820 -8.574192 -7.346646 -7.970914 -8.169306 -9.404816 -9.505945 -11.480534 -10.364591 -10.252071 -10.961065 -10.622540 -11.233919 -9.981225 -10.287169 -9.871649 -9.956788 -9.003680 -8.007731 -8.266199 -8.476836 -7.695923 -8.636642 -9.090292 -8.289551 -8.749071 -8.473710 -8.998750 -7.720446 -7.877508 -7.730698 -6.668824 -6.772517 -6.080279 -5.727511 -4.827496 -5.467869 -5.520969 -6.035319 -6.627748 -7.183311 -6.265697 -6.692820 -5.332380 -6.212448 -5.434738 -5.285054 -4.842881 -4.222515 -4.681609 -3.051552 -4.678142 -5.507352 -4.432003 -4.264699 -4.265324 -4.618161 -4.532969 -2.608912 -2.228154 -1.775309 -2.498578 -2.535085 -2.830980 -3.120063 -2.432380 -1.835789 -2.699730 -2.469248 -1.946983 -1.325504 -0.464859 0.885255 1.112842 0.909534 1.176890 3.015984 2.610785 2.986349 2.124709 2.537064 2.645550 3.418876 3.734845 3.506282 3.779185 3.306996 4.251277 3.911656 4.113209 3.813136 4.528628 4.475203 3.821240 1.994973 1.439158 1.767822 1.642224 2.112239 0.378306 0.921977 0.986190 0.181755 0.230212 -1.147269 -0.174316 -0.047916 0.104633 -0.076285 -0.558858 1.634865 2.101412 2.708610 2.829880 1.449531 0.723924 0.382550 0.638793 1.650261 0.089216 -1.062035 -1.061611 -0.591045 0.208813 1.395613 1.527037 1.035017 0.051627 0.505032 1.916380 1.259514 2.968021 1.852184 3.626648 3.368173 4.157925 4.310933 3.424722 1.921855 2.264988 1.358340 2.261005 1.968660 2.285247 2.041030 2.140153 3.213403 3.732282 4.474388 4.351443 4.084317 4.376435 4.607502 3.212212 2.174493 2.381245 2.403063 2.129576 0.998692 -0.160560 -0.408269 0.373807 0.438376 0.637415 -0.381941 0.140762 -0.530872 0.365785 -0.315225 -1.844338 -2.844570 -4.074874 -4.725913 -4.471183 -5.315303 -6.194554 -6.867940 -7.082338 -6.886482 -5.847411 -6.334553 -7.099459 -7.795437 -6.721079 -6.423729 -6.491388 -5.669133 -5.567204 -6.117997 -5.367210 -5.533105 -5.456490 -5.640017 -5.557751 -5.266170 -6.004506 -5.574504 -4.940741 -4.713466 -5.128995 -4.583373 -4.632310 -4.472964 -3.537578 -2.923666 -1.978671 -2.555827 -2.078807 -1.108195 -0.654917 -0.970436 -1.208677 -1.233437 -1.772786 -1.971969 -2.230213 -2.229692 -1.495105 0.137292 1.181197 0.999471 0.685426 2.732170 1.507738 1.498476 0.342035 1.150722 0.099471 -0.235185 -1.775957 -1.322833 -0.735015 0.441150 0.519803 0.762814 1.616735 2.491818 2.472613 2.635912 2.519484 3.438705 2.574390 3.380537 1.068612 1.411739 0.534024 1.560214 0.365896 -0.137870 -0.610205 0.615253 0.489593 0.721499 0.980141 1.012988 0.053023 1.634778 1.614843 2.777102 2.946863 3.315760 3.316627 2.838703 1.655651 3.045500 2.254174 1.686265 1.233094 -0.498531 -1.898333 -3.018367 -3.055238 -2.212293 -3.534009 -3.201484 -2.231496 -2.166394 -1.456974 -1.906707 -0.975110 0.319187 0.382745 0.040229 -1.455666 -0.959635 -1.143879 -1.527920 -2.547094 -2.918931 -2.719393 -2.036282 -1.552828 -3.131231 -3.267995 -3.366085 -1.847847 -3.130567 -4.056002 -4.739228 -5.496657 -4.959563 -4.150441 -4.863998 -4.666013 -4.655156 -4.335998 -3.411314 -3.364412 -3.270788 -3.109672 -2.964236 -3.811938 -5.276451 -4.404472 -3.711488 -4.668630 -4.338677 -4.225607 -4.076036 -4.591324 -2.657589 -3.589759 -3.750556 -4.370039 -3.199592 -3.896831 -4.484012 -4.847984 -5.168868 -5.801932 -5.587015 -4.293781 -4.946453 -5.259305 -6.544482 -5.416075 -4.936922 -4.849299 -5.083538 -5.189463 -5.459219 -4.957711 -5.030543 -3.962843 -4.172944 -3.520506 -3.174175 -2.294742 -1.637916 -2.343904 -1.253699 -2.081274 -2.089653 -2.818045 -1.463626 -0.913815 -2.051340 -1.788402 -3.234427 -1.584102 -1.858727 -0.484299 -0.177930 -1.033235 -2.074493 -1.513247 -0.698901 0.549327 -0.211347 0.463093 -0.711929 -1.410374 0.327965 -0.322738 0.256746 -0.577368 0.185872 0.080790 0.509267 2.222439 2.367470 1.737533 1.409379 2.242646 2.296217 2.557309 2.317045 3.012253 0.702787 1.207631 0.801767 2.522515 2.764532 2.098277 1.595317 0.164551 1.805038 1.439093 2.760988 3.118042 2.317756 1.970338 3.033661 4.981879 4.848691 4.079412 4.592831 2.770936 3.612755 3.039041 3.539635 3.057237 2.829498 2.854221 0.552229 0.980512 1.533105 2.018779 1.998038 0.141706 0.962053 -0.198711 0.757416 0.988346 1.258382 1.790482 1.375236 1.525238 1.832335 2.085925 4.290333 4.139099 3.763685 4.506200 5.007769 4.231760 4.405071 4.707743 3.274657 1.985990 1.918276 1.866266 0.828919 1.432310 2.999126 2.169861 1.823813 0.480981 1.076066 3.031876 3.904161 2.531488 1.587550 0.567094 1.039247 1.831821 2.061361 2.569500 0.574019 0.559925 -0.045272 -0.033523 -0.075334 0.900241 -0.009717 -1.024327 -0.295682 -0.238826 -0.231021 -1.278103 -0.189159 -1.065585 -1.187497 -1.952566 -2.714105 -2.370938 -2.253074 -2.590784 -2.933762 -3.591036 -1.601184 -1.596582 -0.497466 -0.730532 -1.008238 -0.021483 -0.210076 0.060950 -0.494849 -1.733660 -1.221733 -1.404954 -1.476692 -1.609388 -2.585181 -1.710901 -1.932067 -1.048255 -2.155432 -2.486614 -2.456340 -2.696865 -1.211748 -2.867586 -2.050306 -2.281288 -2.222502 -2.630620 -3.282053 -3.356595 -2.649282 -3.409817 -2.737198 -3.921180 -3.934235 -4.712381 -3.084725 -2.191155 -3.827921 -3.999077 -4.415287 -3.431071 -3.806064 -2.504962 -3.940357 -3.934768 -3.162968 -2.646130 -1.779505 -2.731041 -2.603890 -3.073888 -3.476536 -2.970061 -1.993560 -1.774798 -1.596115 -2.146209 -1.327349 -0.621246 -2.073725 -1.149212 -1.374799 -0.689942 -1.050976 -1.207537 -1.037122 -1.411058 -0.074134 1.819998 1.674228 1.133888 2.311085 2.196392 2.473690 3.332833 3.865373 2.352225 0.996411 1.483868 0.938889 0.965745 0.950737 1.428513 -0.050322 -0.048834 0.411734 2.389308 3.012741 2.749638 2.723870 2.695201 2.372744 2.989091 3.113334 3.680049 2.525197 1.720201 3.050719 3.849130 4.867442 3.348978 2.694133 2.668613 2.043291 3.887369 2.754759 2.186050 1.393013 1.203384 3.072649 2.464698 2.358452 1.646405 1.731743 2.032352 1.795548 1.925734 0.904573 1.237515 0.666428 1.319274 1.294031 1.413186 1.416302 1.640191 0.637631 1.431944 0.719321 1.794776 1.812955 2.132366 0.999108 1.557247 0.281463 0.385978 0.431185 -0.202508 -0.473125 -0.962318 -1.022102 0.188842 -0.072840 -0.189629 -0.757965 -0.001292 0.332447 1.464104 0.896532 0.829585 0.373657 0.801446 1.476747 1.634385 1.737556 0.705556 0.370291 -0.339883 0.243916 -0.716645 -1.683885 -2.215070 -2.562932 -3.004423 -2.712114 -3.086851 -1.416522 -2.534910 -2.799880 -2.863551 -2.490758 -1.987478 -2.281491 -2.943469 -2.368020 -2.276548 -1.474600 -2.023029 -2.111572 -1.521555 -0.994869 -1.013403 -2.272059 -2.464638 -2.791919 -2.763393 -3.889934 -3.807193 -3.504781 -3.961777 -2.822620 -2.273182 -1.409532 -1.988875 -1.415250 -1.212239 -1.979397 -1.276524 -0.721596 -1.286608 -1.266366 -1.669769 -1.170833 -1.147505 0.257174 1.259346 1.186962 1.229735 0.561083 0.380977 0.566678 1.616250 1.896272 1.261544 0.007789 0.831237 1.606579 1.755012 0.588750 1.373880 1.324987 0.608671 -0.647695 -0.970494 -1.749990 -1.958829 -1.730922 -2.604963 -3.555745 -4.231066 -3.212333 -2.287660 -1.705497 -0.849896 -1.644096 -1.098364 -0.639126 -0.683098 -1.017097 -1.414060 -2.996223 -2.635292 -2.930946 -2.014296 -2.523844 -3.309141 -3.243943 -2.813162 -1.664518 -1.194508 -0.956893 -1.824923 -3.028807 -2.713468 -2.230556 -2.240190 -2.498591 -3.770600 -3.581554 -3.880640 -3.416416 -1.546805 -2.339684 -2.535118 -3.574368 -2.978004 -2.630047 -3.384263 -3.653031 -4.954034 -5.765584 -6.228479 -4.962025 -4.224800 -4.593334 -3.912461 -3.284153 -3.099494 -3.035203 -2.927514 -2.327612 -2.087413 -4.111535 -2.227755 -2.678088 -2.636421 -2.890946 -3.640762 -2.581599 -3.745861 -1.554444 -2.620682 -3.700478 -3.802709 -3.820007 -3.400012 -2.500580 -1.695119 -2.532539 -2.969121 -2.201682 -1.203922 -0.430484 -1.280801 -2.590825 -1.768515 -2.346371 -1.744110 -2.604324 -3.600309 -3.919854 -3.987822 -3.223134 -1.890347 -2.315461 -1.464832 -2.113153 -1.219519 -0.546613 -0.492509 0.300572 0.740319 1.623170 2.077617 2.690478 3.560565 4.393416 6.677286 6.462116 7.895055 6.414938 7.185342 6.138458 6.724400 7.094659 7.884866 6.119891 6.113016 6.861847 6.058599 5.465456 4.831361 3.897711 4.285233 3.857298 2.988431 2.910394 3.853447 3.964487 5.145414 4.452705 5.433537 4.581880 5.909844 5.273772 4.927688 5.289384 4.642296 4.361473 3.850018 4.961597 3.930905 2.288420 2.421688 2.679757 1.663879 2.466357 1.852801 1.657124 1.409878 1.538117 1.530182 0.709649 0.813398 -1.048981 -2.179427 -3.265901 -4.613028 -5.600268 -7.149487 -7.488270 -8.891707 -8.298342 -8.830371 -8.552730 -8.103537 -8.608858 -6.463661 -6.804968 -5.585386 -5.241606 -4.552011 -5.060358 -5.262982 -4.241321 -3.908971 -4.508860 -4.616063 -4.632607 -5.511400 -5.144419 -4.849801 -5.020185 -5.149609 -6.468597 -5.174099 -4.981399 -5.030363 -4.987573 -5.184767 -4.628696 -4.992031 -4.534811 -4.726484 -5.554357 -6.172999 -6.537658 -5.563409 -6.185433 -6.349752 -6.392846 -5.598730 -6.059389 -3.607597 -3.057178 -2.889286 -3.460849 -3.656699 -2.384267 -3.605028 -2.230588 -3.122947 -3.573040 -3.685448 -4.247631 -3.278716 -3.645081 -4.171159 -3.999270 -3.791188 -3.620419 -3.972009 -4.195415 -4.893748 -4.560020 -4.327216 -3.850458 -2.840978 -3.150941 -3.213184 -3.972208 -2.888132 -2.088124 -1.318571 -1.957992 -2.436933 -3.389303 -3.534299 -2.264732 -2.609019 -3.295874 -3.010736 -3.404081 -3.531558 -3.633138 -2.815691 -3.733726 -3.348679 -2.264420 -2.547836 -3.018766 -4.193059 -3.718085 -3.964422 -3.556479 -4.019815 -4.910630 -6.492212 -5.837196 -6.830251 -5.283256 -5.529500 -5.177008 -6.642782 -6.351099 -5.905732 -3.701359 -4.913136 -4.942328 -6.596473 -5.953439 -6.110928 -5.266980 -6.092893 -6.436901 -7.351080 -8.197728 -7.843832 -7.406817 -6.982988 -7.667010 -8.152548 -7.319880 -6.268436 -6.498104 -6.987094 -6.667442 -7.992562 -6.929525 -6.598924 -5.957011 -6.359991 -7.409664 -6.225315 -6.060805 -5.720682 -5.719615 -5.691680 -6.161215 -6.689374 -7.548966 -7.102500 -7.576494 -6.284952 -7.024652 -7.104105 -7.017932 -7.799288 -6.249154 -6.422924 -6.398791 -6.724938 -8.219310 -7.553535 -6.926359 -6.404645 -6.749614 -7.079591 -6.313582 -5.213023 -5.286978 -4.978696 -5.963749 -4.574333 -5.151366 -4.723779 -4.431714 -5.857133 -4.745285 -4.135600 -3.041835 -3.722333 -4.205391 -2.501627 -2.096970 -2.018951 -2.711772 -1.989817 -2.878706 -3.487591 -2.858015 -2.497630 -3.189006 -3.605674 -2.268059 -2.999540 -3.003399 -3.094261 -1.656391 -1.722402 -2.093583 -1.315098 -1.972574 -1.537779 -0.977814 -1.197948 -1.031822 -1.811616 -1.248469 -1.290426 -0.824604 -0.497700 -1.298411 -2.508974 -1.426637 -1.623324 -1.504082 -0.981061 -1.386607 -1.403974 -1.352064 -0.823546 0.032273 0.120168 0.282720 0.526019 0.498617 0.037555 -0.906944 -0.305097 -0.779192 -0.263112 -1.429042 -0.368540 -1.452465 -2.014615 -1.510448 -0.733723 -0.589413 -1.833915 -2.569044 -2.157238 -1.932812 -0.669702 -0.665446 -0.556887 -1.405627 -0.416350 -0.411327 0.183063 1.284980 -1.171321 -1.305657 -2.280131 -1.723255 -1.655285 -2.025003 -0.026209 -1.631770 -1.745385 -1.820582 -1.749478 -0.454590 -0.756939 -0.249478 -1.293870 -1.616987 -2.210140 -1.552276 -0.242974 1.019186 -0.292114 -0.639585 -1.274398 -1.434610 -0.413657 -0.466160 -1.047212 -2.352963 -2.399060 -2.894241 -3.330031 -3.673411 -3.017797 -3.059484 -3.463474 -4.173301 -4.617711 -5.994625 -5.809600 -6.588957 -4.476654 -5.437082 -5.168221 -5.802738 -5.743345 -4.256563 -3.252000 -3.082981 -3.232322 -4.125785 -4.644803 -4.501408 -4.364220 -4.642519 -4.975904 -5.470492 -5.387460 -6.034472 -6.557807 -5.724842 -6.060016 -5.156347 -5.997493 -6.516913 -5.514142 -5.519278 -4.881324 -4.745490 -5.333654 -4.794663 -4.495917 -4.920519 -5.032626 -5.488794 -5.923433 -4.819034 -5.278761 -5.446010 -6.943527 -6.160034 -6.718347 -5.845917 -7.439538 -6.669262 -7.907334 -7.979624 -7.375546 -6.763790 -7.030137 -6.579995 -7.027236 -6.136103 -5.979121 -5.332549 -5.514946 -6.436110 -6.462107 -7.033000 -7.402599 -7.945930 -8.843761 -9.115248 -10.401308 -8.736560 -9.020935 -8.689942 -8.480040 -8.299016 -7.194639 -7.167768 -6.566640 -6.533714 -5.840060 -5.249583 -6.663905 -6.704312 -5.557751 -3.871417 -3.860630 -3.930719 -5.095391 -5.092014 -5.011939 -5.448999 -5.203514 -6.461451 -7.403677 -7.629992 -7.499187 -7.293696 -6.677034 -7.290738 -6.830326 -7.614705 -7.066970 -6.635858 -7.553335 -8.465985 -9.015169 -9.130851 -9.082124 -9.409861 -10.069626 -10.245612 -9.594483 -9.241838 -8.070636 -7.994520 -6.887854 -7.519267 -6.921514 -5.680009 -5.752334 -5.025814 -5.589382 -6.784588 -6.932317 -7.484294 -6.748215 -7.238176 -6.657279 -6.825302 -6.968111 -6.278661 -4.522038 -2.747811 -2.761925 -2.052502 -1.631566 -2.115641 -1.098190 -0.874826 -0.057964 -0.007588 0.251749 0.949304 0.501388 2.702161 3.304855 4.941369 4.997382 5.012742 6.330531 6.255553 6.556341 6.580461 6.717600 8.312382 7.933083 7.806857 7.346243 6.832755 7.853869 6.825750 7.638285 5.946435 6.921775 7.135010 6.050322 5.351227 4.579294 4.808182 4.883684 2.785734 2.261621 2.606269 2.919156 2.887201 3.786643 3.210111 5.153832 3.481004 5.942513 5.302949 4.897303 3.744915 3.104014 2.956607 1.584277 1.976523 0.689673 1.249100 1.103928 1.710434 0.181163 -0.363767 -0.060741 0.695366 0.363681 -0.996694 -0.377614 -2.387694 -1.096767 -0.465025 -0.272708 -0.143806 0.055795 0.373597 -1.875708 -1.968871 -2.913230 -1.507268 -3.573414 -5.005765 -6.409400 -7.114422 -6.786886 -6.066377 -6.472019 -6.838505 -7.092810 -6.924891 -6.230047 -6.162253 -5.359584 -4.693038 -4.626373 -5.049502 -3.999887 -4.062216 -4.978814 -4.393424 -3.299864 -2.807740 -4.024239 -3.585278 -3.379409 -2.564429 -3.216529 -1.990177 -3.334725 -2.212126 -3.246662 -3.832836 -3.903759 -3.453748 -3.590876 -3.227703 -3.469609 -3.646902 -3.297412 -3.105867 -2.668775 -3.077677 -3.935638 -2.635059 -3.592467 -3.966046 -2.755036 -2.322911 -1.008760 -1.341604 -1.014546 -0.659007 -0.456671 -0.544820 0.276904 -0.331310 -0.946837 -1.467149 -2.052869 -1.168431 -1.911686 -1.424264 -0.596355 -0.454864 -0.921654 -1.406476 -0.971055 -0.198025 0.074686 -1.073680 -1.573269 -1.729188 -0.869109 0.040370 -0.446978 -1.987606 -1.795179 -1.809848 -0.835907 -1.540339 -1.574103 -1.460767 -1.350233 -1.155153 -0.958719 -1.667666 -0.593072 -1.044918 -0.131932 -0.741448 -1.346350 -1.343296 -0.897732 -1.457422 -0.709538 -1.040529 -0.680222 -1.928795 -1.971130 -1.525167 -0.587799 -1.751997 -1.981310 -2.569722 -1.926771 -1.621035 -1.016893 -1.596170 -1.279174 -2.381275 -0.591852 -1.284956 -1.251244 -2.306952 -1.982731 -1.763887 -1.381975 -1.652238 -2.224843 -3.533678 -2.250343 -2.763921 -1.580808 -2.255333 -1.796390 -1.781606 -1.917170 -0.071950 -1.331986 -0.742711 -1.885086 -0.801831 -0.712766 -1.659605 -3.207037 -3.710933 -3.292431 -1.929014 -2.325000 -1.613631 -2.385948 -2.595086 -1.596413 -0.317036 -0.786431 0.094258 -0.889399 -0.776279 -0.969331 -0.016217 -1.061043 -1.392666 -1.662291 -0.155482 -0.727444 0.184259 -0.297750 0.188977 0.680903 0.217315 1.244204 0.363382 1.548580 -0.245108 0.329026 -0.591717 -0.796814 -0.170038 0.208968 0.224302 -1.120346 -0.779711 -0.013263 -0.795356 -0.435812 0.200344 0.474386 -1.696389 -0.253911 0.270490 0.215511 0.786270 -0.413843 0.619314 -0.252910 1.362749 0.662279 -0.542028 -0.699501 -0.842513 -0.817657 -0.761741 -0.935088 -0.257618 -0.350885 -0.132189 0.072187 0.855099 -0.156691 -0.439134 -1.145253 -0.635260 -1.878952 -1.846678 -3.338314 -3.189802 -2.371472 -1.669760 -1.674399 -1.211281 -2.254169 -2.157868 -2.546315 -2.219373 -2.727781 -2.704170 -1.633268 -1.968600 -1.901885 -2.847608 -2.866614 -3.045394 -2.221268 -3.088027 -3.428758 -3.277285 -2.788775 -3.514191 -3.193730 -3.075823 -2.241867 -2.048473 -0.988514 -1.225825 -1.979240 -1.840254 -0.936795 -1.807481 -1.516634 -0.833002 -0.085320 0.829608 -0.428106 0.794385 -0.256272 0.179647 1.085415 0.558484 1.088026 0.457438 -0.178424 0.172092 -0.224068 -0.525056 0.473609 1.024882 1.892464 2.140356 2.371450 2.634564 2.211763 3.004063 2.075782 2.401683 2.440791 2.610407 1.821274 1.405760 0.797573 0.979721 0.260318 0.871853 1.269856 0.544448 1.774470 0.933602 1.510918 1.555695 1.836254 2.288241 1.854588 1.267976 1.766833 1.200267 1.318462 0.111794 0.608276 0.584049 -0.127045 -0.752418 0.722470 0.618192 0.606186 -0.670650 0.055703 0.464187 1.570675 1.960544 2.783105 2.175925 2.700594 2.180126 1.838020 3.040494 1.792905 1.743480 1.079687 0.752176 0.033922 1.382587 0.543183 1.899521 0.543233 1.981828 2.655436 3.819919 3.697663 3.657291 2.909729 4.286949 5.125286 5.098027 5.120989 4.299423 3.237496 4.695418 3.758622 4.165123 3.790538 2.763716 3.590338 2.000470 2.241063 1.145764 2.300982 1.834514 2.147879 1.865076 2.239990 2.857465 2.166276 2.371483 2.385383 2.171793 2.850890 2.162407 2.447987 1.283947 1.390673 1.643744 1.935079 2.030642 1.460087 0.235955 0.165062 0.471270 0.408058 -0.548820 -0.011525 -0.407310 -1.229416 -1.456518 -0.044904 -0.554471 -0.260292 -0.771870 -0.144795 -0.166601 -0.140383 0.646267 -0.646081 0.604755 -0.319566 -0.008928 -0.111800 -0.854843 -2.463111 -3.112228 -2.376395 -1.554610 -2.120452 -2.863027 -4.208052 -2.616147 -1.679277 -0.909388 -2.177639 -2.936003 -2.800074 -2.310016 -0.939364 -2.300409 -3.362425 -4.675761 -2.980673 -2.486136 -3.513788 -3.361837 -4.507747 -4.447277 -4.400334 -4.425324 -3.690909 -4.460348 -4.217370 -4.739621 -4.091706 -3.028350 -2.752657 -3.028275 -1.509854 -0.808676 -2.037322 -1.235209 -2.069132 -0.215760 -1.574611 -0.815236 -1.095310 -2.633383 -2.589906 -2.396720 -2.261170 -1.780534 -2.353148 -1.363605 -1.703244 0.058066 -0.394828 0.165142 0.278553 