2.36480811925017953001 2.36480811925017953001 4.90787422124806038681 -5.26439018674346126403 -0.17825798274770079943 -2.72132408474558129541 2.36480811925017953001 7.45094032324594124361 2.36480811925017953001 -0.17825798274770079943 -0.17825798274770079943 2.36480811925017953001 4.90787422124806038681 4.90787422124806038681 4.90787422124806038681 2.36480811925017953001 2.36480811925017953001 -2.72132408474558129541 4.90787422124806038681 -2.72132408474558129541 4.90787422124806038681 15.08013862923958292583 7.45094032324594124361 7.45094032324594124361 12.53707252724170295721 12.53707252724170295721 7.45094032324594124361 7.45094032324594124361 20.16627083323534108672 12.53707252724170295721 17.62320473123746111810 20.16627083323534108672 17.62320473123746111810 15.08013862923958292583 20.16627083323534108672 20.16627083323534108672 17.62320473123746111810 22.70933693523322460806 22.70933693523322460806 30.33853524122686451392 17.62320473123746111810 20.16627083323534108672 17.62320473123746111810 25.25240303723110457668 17.62320473123746111810 17.62320473123746111810 17.62320473123746111810 25.25240303723110457668 17.62320473123746111810 27.79546913922898454530 12.53707252724170295721 20.16627083323534108672 17.62320473123746111810 9.99400642524381943588 15.08013862923958292583 17.62320473123746111810 15.08013862923958292583 7.45094032324594124361 4.90787422124806038681 12.53707252724170295721 2.36480811925017953001 15.08013862923958292583 4.90787422124806038681 17.62320473123746111810 15.08013862923958292583 12.53707252724170295721 25.25240303723110457668 15.08013862923958292583 9.99400642524381943588 7.45094032324594124361 7.45094032324594124361 17.62320473123746111810 17.62320473123746111810 12.53707252724170295721 4.90787422124806038681 9.99400642524381943588 17.62320473123746111810 7.45094032324594124361 -2.72132408474558129541 9.99400642524381943588 12.53707252724170295721 7.45094032324594124361 7.45094032324594124361 7.45094032324594124361 9.99400642524381943588 9.99400642524381943588 9.99400642524381943588 9.99400642524381943588 4.90787422124806038681 2.36480811925017953001 9.99400642524381943588 2.36480811925017953001 2.36480811925017953001 9.99400642524381943588 7.45094032324594124361 2.36480811925017953001 4.90787422124806038681 7.45094032324594124361 4.90787422124806038681 9.99400642524381943588 2.36480811925017953001 2.36480811925017953001 -0.17825798274770079943 9.99400642524381943588 9.99400642524381943588 9.99400642524381943588 -0.17825798274770079943 -0.17825798274770079943 2.36480811925017953001 4.90787422124806038681 4.90787422124806038681 2.36480811925017953001 4.90787422124806038681 -0.17825798274770079943 2.36480811925017953001 2.36480811925017953001 -2.72132408474558129541 -2.72132408474558129541 4.90787422124806038681 -0.17825798274770079943 12.53707252724170295721 -0.17825798274770079943 9.99400642524381943588 7.45094032324594124361 -0.17825798274770079943 4.90787422124806038681 -0.17825798274770079943 9.99400642524381943588 7.45094032324594124361 7.45094032324594124361 2.36480811925017953001 -0.17825798274770079943 -0.17825798274770079943 7.45094032324594124361 2.36480811925017953001 9.99400642524381943588 9.99400642524381943588 2.36480811925017953001 9.99400642524381943588 2.36480811925017953001 -0.17825798274770079943 2.36480811925017953001 7.45094032324594124361 12.53707252724170295721 2.36480811925017953001 4.90787422124806038681 4.90787422124806038681 7.45094032324594124361 2.36480811925017953001 4.90787422124806038681 2.36480811925017953001 9.99400642524381943588 4.90787422124806038681 -5.26439018674346126403 9.99400642524381943588 2.36480811925017953001 -2.72132408474558129541 4.90787422124806038681 9.99400642524381943588 2.36480811925017953001 7.45094032324594124361 17.62320473123746111810 9.99400642524381943588 15.08013862923958292583 4.90787422124806038681 2.36480811925017953001 12.53707252724170295721 4.90787422124806038681 4.90787422124806038681 9.99400642524381943588 9.99400642524381943588 2.36480811925017953001 7.45094032324594124361 4.90787422124806038681 12.53707252724170295721 7.45094032324594124361 2.36480811925017953001 4.90787422124806038681 4.90787422124806038681 7.45094032324594124361 12.53707252724170295721 4.90787422124806038681 7.45094032324594124361 7.45094032324594124361 9.99400642524381943588 2.36480811925017953001 2.36480811925017953001 4.90787422124806038681 7.45094032324594124361 7.45094032324594124361 -0.17825798274770079943 -0.17825798274770079943 2.36480811925017953001 -0.17825798274770079943 7.45094032324594124361 7.45094032324594124361 15.08013862923958292583 2.36480811925017953001 2.36480811925017953001 2.36480811925017953001 -2.72132408474558129541 9.99400642524381943588 4.90787422124806038681 12.53707252724170295721 9.99400642524381943588 -2.72132408474558129541 2.36480811925017953001 4.90787422124806038681 9.99400642524381943588 -2.72132408474558129541 2.36480811925017953001 2.36480811925017953001 2.36480811925017953001 -5.26439018674346126403 2.36480811925017953001 -2.72132408474558129541 2.36480811925017953001 -0.17825798274770079943 -0.17825798274770079943 -2.72132408474558129541 -0.17825798274770079943 -0.17825798274770079943 -0.17825798274770079943 4.90787422124806038681 -5.26439018674346126403 2.36480811925017953001 2.36480811925017953001 -0.17825798274770079943 7.45094032324594124361 -5.26439018674346126403 -0.17825798274770079943 -5.26439018674346126403 -5.26439018674346126403 -0.17825798274770079943 4.90787422124806038681 -0.17825798274770079943 2.36480811925017953001 -2.72132408474558129541 -0.17825798274770079943 -0.17825798274770079943 -0.17825798274770079943 -0.17825798274770079943 -2.72132408474558129541 2.36480811925017953001 9.99400642524381943588 -0.17825798274770079943 -2.72132408474558129541 2.36480811925017953001 -0.17825798274770079943 -0.17825798274770079943 -2.72132408474558129541 4.90787422124806038681 4.90787422124806038681 -0.17825798274770079943 2.36480811925017953001 4.90787422124806038681 -0.17825798274770079943 2.36480811925017953001 -2.72132408474558129541 -0.17825798274770079943 2.36480811925017953001 -0.17825798274770079943 2.36480811925017953001 -2.72132408474558129541 -2.72132408474558129541 4.90787422124806038681 2.36480811925017953001 -5.26439018674346126403 -0.17825798274770079943 2.36480811925017953001 4.90787422124806038681 9.99400642524381943588 9.99400642524381943588 12.53707252724170295721 7.45094032324594124361 2.36480811925017953001 2.36480811925017953001 4.90787422124806038681 4.90787422124806038681 2.36480811925017953001 2.36480811925017953001 -0.17825798274770079943 -0.17825798274770079943 -0.17825798274770079943 -2.72132408474558129541 -0.17825798274770079943 4.90787422124806038681 -2.72132408474558129541 4.90787422124806038681 2.36480811925017953001 -0.17825798274770079943 -0.17825798274770079943 -2.72132408474558129541 2.36480811925017953001 -0.17825798274770079943 2.36480811925017953001 2.36480811925017953001 2.36480811925017953001 -0.17825798274770079943 -2.72132408474558129541 -5.26439018674346126403 2.36480811925017953001 2.36480811925017953001 -2.72132408474558129541 2.36480811925017953001 -0.17825798274770079943 2.36480811925017953001 -7.80745628874134212083 7.45094032324594124361 -0.17825798274770079943 2.36480811925017953001 -0.17825798274770079943 -2.72132408474558129541 4.90787422124806038681 7.45094032324594124361 7.45094032324594124361 4.90787422124806038681 7.45094032324594124361 4.90787422124806038681 -0.17825798274770079943 2.36480811925017953001 4.90787422124806038681 4.90787422124806038681 7.45094032324594124361 9.99400642524381943588 7.45094032324594124361 7.45094032324594124361 4.90787422124806038681 2.36480811925017953001 2.36480811925017953001 2.36480811925017953001 -0.17825798274770079943 -0.17825798274770079943 4.90787422124806038681 -0.17825798274770079943 -2.72132408474558129541 9.99400642524381943588 -0.17825798274770079943 4.90787422124806038681 -0.17825798274770079943 4.90787422124806038681 2.36480811925017953001 -0.17825798274770079943 -7.80745628874134212083 -0.17825798274770079943 -2.72132408474558129541 -2.72132408474558129541 4.90787422124806038681 2.36480811925017953001 -7.80745628874134212083 -12.89358849273710561079 -2.72132408474558129541 2.36480811925017953001 -7.80745628874134212083 -5.26439018674346126403 -7.80745628874134212083 -10.35052239073922386581 -10.35052239073922386581 -5.26439018674346126403 -10.35052239073922386581 -5.26439018674346126403 -0.17825798274770079943 -7.80745628874134212083 -7.80745628874134212083 -2.72132408474558129541 -5.26439018674346126403 -12.89358849273710561079 -2.72132408474558129541 -7.80745628874134212083 -7.80745628874134212083 -10.35052239073922386581 -0.17825798274770079943 -2.72132408474558129541 -7.80745628874134212083 -7.80745628874134212083 -5.26439018674346126403 -5.26439018674346126403 -10.35052239073922386581 -5.26439018674346126403 -10.35052239073922386581 -0.17825798274770079943 -0.17825798274770079943 -2.72132408474558129541 2.36480811925017953001 -0.17825798274770079943 -10.35052239073922386581 -10.35052239073922386581 -10.35052239073922386581 -5.26439018674346126403 -5.26439018674346126403 -5.26439018674346126403 -0.17825798274770079943 -7.80745628874134212083 -12.89358849273710561079 -15.43665459473498557941 -5.26439018674346126403 -0.17825798274770079943 2.36480811925017953001 -12.89358849273710561079 -10.35052239073922386581 -7.80745628874134212083 -0.17825798274770079943 -7.80745628874134212083 -5.26439018674346126403 2.36480811925017953001 4.90787422124806038681 -5.26439018674346126403 -5.26439018674346126403 -0.17825798274770079943 -0.17825798274770079943 2.36480811925017953001 4.90787422124806038681 -10.35052239073922386581 4.90787422124806038681 -2.72132408474558129541 -2.72132408474558129541 -2.72132408474558129541 -2.72132408474558129541 2.36480811925017953001 2.36480811925017953001 -2.72132408474558129541 -0.17825798274770079943 -0.17825798274770079943 -5.26439018674346126403 -5.26439018674346126403 2.36480811925017953001 7.45094032324594124361 -0.17825798274770079943 -2.72132408474558129541 -2.72132408474558129541 -2.72132408474558129541 4.90787422124806038681 -0.17825798274770079943 7.45094032324594124361 -0.17825798274770079943 9.99400642524381943588 -2.72132408474558129541 2.36480811925017953001 2.36480811925017953001 9.99400642524381943588 -2.72132408474558129541 9.99400642524381943588 4.90787422124806038681 -0.17825798274770079943 -2.72132408474558129541 -5.26439018674346126403 4.90787422124806038681 -0.17825798274770079943 2.36480811925017953001 4.90787422124806038681 -2.72132408474558129541 -2.72132408474558129541 -5.26439018674346126403 -7.80745628874134212083 -0.17825798274770079943 -2.72132408474558129541 -5.26439018674346126403 -7.80745628874134212083 -7.80745628874134212083 -5.26439018674346126403 -7.80745628874134212083 -7.80745628874134212083 -10.35052239073922386581 -7.80745628874134212083 -10.35052239073922386581 -12.89358849273710561079 -7.80745628874134212083 -7.80745628874134212083 -2.72132408474558129541 -0.17825798274770079943 -2.72132408474558129541 -5.26439018674346126403 -2.72132408474558129541 -0.17825798274770079943 -7.80745628874134212083 2.36480811925017953001 -0.17825798274770079943 -5.26439018674346126403 -12.89358849273710561079 -7.80745628874134212083 -10.35052239073922386581 -5.26439018674346126403 -10.35052239073922386581 -5.26439018674346126403 -2.72132408474558129541 -5.26439018674346126403 -2.72132408474558129541 -5.26439018674346126403 -5.26439018674346126403 -2.72132408474558129541 -5.26439018674346126403 -5.26439018674346126403 -7.80745628874134212083 -5.26439018674346126403 -2.72132408474558129541 -0.17825798274770079943 -12.89358849273710561079 -10.35052239073922386581 -5.26439018674346126403 -7.80745628874134212083 -5.26439018674346126403 -2.72132408474558129541 -2.72132408474558129541 -7.80745628874134212083 -5.26439018674346126403 -5.26439018674346126403 -15.43665459473498557941 -5.26439018674346126403 -7.80745628874134212083 -7.80745628874134212083 -5.26439018674346126403 -10.35052239073922386581 -10.35052239073922386581 -10.35052239073922386581 -5.26439018674346126403 -12.89358849273710561079 -7.80745628874134212083 -5.26439018674346126403 -5.26439018674346126403 -12.89358849273710561079 -10.35052239073922386581 2.36480811925017953001 -12.89358849273710561079 -10.35052239073922386581 -7.80745628874134212083 -7.80745628874134212083 -10.35052239073922386581 -2.72132408474558129541 -10.35052239073922386581 -7.80745628874134212083 -5.26439018674346126403 -2.72132408474558129541 -10.35052239073922386581 -0.17825798274770079943 -0.17825798274770079943 -5.26439018674346126403 -2.72132408474558129541 -2.72132408474558129541 -10.35052239073922386581 -10.35052239073922386581 -5.26439018674346126403 -5.26439018674346126403 -5.26439018674346126403 2.36480811925017953001 -10.35052239073922386581 -5.26439018674346126403 -2.72132408474558129541 -7.80745628874134212083 -10.35052239073922386581 -7.80745628874134212083 -0.17825798274770079943 -0.17825798274770079943 -0.17825798274770079943 2.36480811925017953001 4.90787422124806038681 -7.80745628874134212083 -2.72132408474558129541 -2.72132408474558129541 -0.17825798274770079943 -2.72132408474558129541 2.36480811925017953001 -7.80745628874134212083 -0.17825798274770079943 7.45094032324594124361 4.90787422124806038681 -2.72132408474558129541 -5.26439018674346126403 -0.17825798274770079943 -0.17825798274770079943 -0.17825798274770079943 2.36480811925017953001 -5.26439018674346126403 2.36480811925017953001 4.90787422124806038681 -0.17825798274770079943 4.90787422124806038681 4.90787422124806038681 -0.17825798274770079943 -0.17825798274770079943 -0.17825798274770079943 2.36480811925017953001 -2.72132408474558129541 2.36480811925017953001 2.36480811925017953001 7.45094032324594124361 -0.17825798274770079943 -0.17825798274770079943 7.45094032324594124361 2.36480811925017953001 -0.17825798274770079943 -0.17825798274770079943 2.36480811925017953001 -0.17825798274770079943 9.99400642524381943588 4.90787422124806038681 -0.17825798274770079943 4.90787422124806038681 9.99400642524381943588 2.36480811925017953001 4.90787422124806038681 2.36480811925017953001 -0.17825798274770079943 9.99400642524381943588 4.90787422124806038681 7.45094032324594124361 7.45094032324594124361 7.45094032324594124361 7.45094032324594124361 12.53707252724170295721 2.36480811925017953001 12.53707252724170295721 12.53707252724170295721 2.36480811925017953001 4.90787422124806038681 4.90787422124806038681 2.36480811925017953001 9.99400642524381943588 -2.72132408474558129541 7.45094032324594124361 2.36480811925017953001 7.45094032324594124361 -0.17825798274770079943 -2.72132408474558129541 4.90787422124806038681 2.36480811925017953001 -5.26439018674346126403 2.36480811925017953001 -2.72132408474558129541 4.90787422124806038681 4.90787422124806038681 12.53707252724170295721 4.90787422124806038681 -5.26439018674346126403 -2.72132408474558129541 9.99400642524381943588 4.90787422124806038681 -0.17825798274770079943 4.90787422124806038681 2.36480811925017953001 -0.17825798274770079943 -0.17825798274770079943 2.36480811925017953001 7.45094032324594124361 -0.17825798274770079943 7.45094032324594124361 2.36480811925017953001 -0.17825798274770079943 4.90787422124806038681 -2.72132408474558129541 2.36480811925017953001 -0.17825798274770079943 2.36480811925017953001 2.36480811925017953001 -5.26439018674346126403 2.36480811925017953001 4.90787422124806038681 2.36480811925017953001 2.36480811925017953001 -0.17825798274770079943 -2.72132408474558129541 4.90787422124806038681 4.90787422124806038681 4.90787422124806038681 -0.17825798274770079943 -2.72132408474558129541 -2.72132408474558129541 -0.17825798274770079943 -0.17825798274770079943 2.36480811925017953001 -0.17825798274770079943 2.36480811925017953001 2.36480811925017953001 -0.17825798274770079943 -0.17825798274770079943 -5.26439018674346126403 -2.72132408474558129541 -0.17825798274770079943 -0.17825798274770079943 -0.17825798274770079943 -7.80745628874134212083 -5.26439018674346126403 -5.26439018674346126403 -2.72132408474558129541 -5.26439018674346126403 -2.72132408474558129541 -5.26439018674346126403 -0.17825798274770079943 2.36480811925017953001 -0.17825798274770079943 9.99400642524381943588 -0.17825798274770079943 2.36480811925017953001 2.36480811925017953001 -5.26439018674346126403 -0.17825798274770079943 -0.17825798274770079943 2.36480811925017953001 2.36480811925017953001 2.36480811925017953001 2.36480811925017953001 2.36480811925017953001 2.36480811925017953001 -7.80745628874134212083 -0.17825798274770079943 2.36480811925017953001 7.45094032324594124361 2.36480811925017953001 2.36480811925017953001 -2.72132408474558129541 -0.17825798274770079943 2.36480811925017953001 4.90787422124806038681 -2.72132408474558129541 4.90787422124806038681 -5.26439018674346126403 -5.26439018674346126403 -0.17825798274770079943 2.36480811925017953001 2.36480811925017953001 -2.72132408474558129541 -5.26439018674346126403 2.36480811925017953001 4.90787422124806038681 7.45094032324594124361 2.36480811925017953001 -2.72132408474558129541 -0.17825798274770079943 -2.72132408474558129541 -5.26439018674346126403 -0.17825798274770079943 -5.26439018674346126403 -2.72132408474558129541 -0.17825798274770079943 -2.72132408474558129541 -2.72132408474558129541 -5.26439018674346126403 7.45094032324594124361 -0.17825798274770079943 2.36480811925017953001 -2.72132408474558129541 -5.26439018674346126403 2.36480811925017953001 2.36480811925017953001 -2.72132408474558129541 -2.72132408474558129541 4.90787422124806038681 2.36480811925017953001 -0.17825798274770079943 -0.17825798274770079943 2.36480811925017953001 -2.72132408474558129541 -0.17825798274770079943 -5.26439018674346126403 -0.17825798274770079943 -0.17825798274770079943 -0.17825798274770079943 2.36480811925017953001 -7.80745628874134212083 -5.26439018674346126403 -0.17825798274770079943 -5.26439018674346126403 4.90787422124806038681 -2.72132408474558129541 -2.72132408474558129541 -10.35052239073922386581 -7.80745628874134212083 -5.26439018674346126403 -10.35052239073922386581 2.36480811925017953001 2.36480811925017953001 -2.72132408474558129541 -7.80745628874134212083 -10.35052239073922386581 -7.80745628874134212083 -12.89358849273710561079 -12.89358849273710561079 -5.26439018674346126403 -5.26439018674346126403 -5.26439018674346126403 -5.26439018674346126403 -5.26439018674346126403 4.90787422124806038681 -7.80745628874134212083 -17.97972069673286554803 -5.26439018674346126403 -7.80745628874134212083 -5.26439018674346126403 -0.17825798274770079943 -7.80745628874134212083 -5.26439018674346126403 -7.80745628874134212083 -10.35052239073922386581 -5.26439018674346126403 -5.26439018674346126403 -10.35052239073922386581 -7.80745628874134212083 -12.89358849273710561079 -10.35052239073922386581 -12.89358849273710561079 -5.26439018674346126403 -10.35052239073922386581 -7.80745628874134212083 -5.26439018674346126403 -5.26439018674346126403 -10.35052239073922386581 -10.35052239073922386581 -0.17825798274770079943 2.36480811925017953001 -2.72132408474558129541 -7.80745628874134212083 -12.89358849273710561079 -10.35052239073922386581 -10.35052239073922386581 -5.26439018674346126403 2.36480811925017953001 -10.35052239073922386581 -12.89358849273710561079 -7.80745628874134212083 -12.89358849273710561079 -7.80745628874134212083 -2.72132408474558129541 -10.35052239073922386581 -15.43665459473498557941 -5.26439018674346126403 -10.35052239073922386581 -10.35052239073922386581 -2.72132408474558129541 -5.26439018674346126403 -5.26439018674346126403 -5.26439018674346126403 -7.80745628874134212083 -5.26439018674346126403 -5.26439018674346126403 -5.26439018674346126403 -0.17825798274770079943 -5.26439018674346126403 -10.35052239073922386581 -5.26439018674346126403 -7.80745628874134212083 -12.89358849273710561079 -5.26439018674346126403 -12.89358849273710561079 -7.80745628874134212083 -7.80745628874134212083 -12.89358849273710561079 -0.17825798274770079943 -2.72132408474558129541 -2.72132408474558129541 -10.35052239073922386581 -2.72132408474558129541 -5.26439018674346126403 -0.17825798274770079943 -0.17825798274770079943 -2.72132408474558129541 -0.17825798274770079943 -7.80745628874134212083 -5.26439018674346126403 2.36480811925017953001 2.36480811925017953001 -0.17825798274770079943 2.36480811925017953001 -7.80745628874134212083 -7.80745628874134212083 -5.26439018674346126403 -0.17825798274770079943 -0.17825798274770079943 -2.72132408474558129541 -7.80745628874134212083 -5.26439018674346126403 -5.26439018674346126403 -5.26439018674346126403 -5.26439018674346126403 -2.72132408474558129541 4.90787422124806038681 -7.80745628874134212083 -10.35052239073922386581 -5.26439018674346126403 -5.26439018674346126403 -5.26439018674346126403 -0.17825798274770079943 -2.72132408474558129541 -2.72132408474558129541 -5.26439018674346126403 -2.72132408474558129541 -2.72132408474558129541 -0.17825798274770079943 -7.80745628874134212083 -7.80745628874134212083 -7.80745628874134212083 -5.26439018674346126403 -10.35052239073922386581 -0.17825798274770079943 -10.35052239073922386581 -7.80745628874134212083 -7.80745628874134212083 -7.80745628874134212083 -5.26439018674346126403 -5.26439018674346126403 -2.72132408474558129541 -7.80745628874134212083 -5.26439018674346126403 -5.26439018674346126403 -12.89358849273710561079 -5.26439018674346126403 -7.80745628874134212083 -12.89358849273710561079 2.36480811925017953001 -5.26439018674346126403 -12.89358849273710561079 -7.80745628874134212083 -10.35052239073922386581 -7.80745628874134212083 -2.72132408474558129541 -7.80745628874134212083 -10.35052239073922386581 -7.80745628874134212083 -7.80745628874134212083 -7.80745628874134212083 -12.89358849273710561079 -5.26439018674346126403 -12.89358849273710561079 -7.80745628874134212083 -2.72132408474558129541 -10.35052239073922386581 -0.17825798274770079943 -12.89358849273710561079 -10.35052239073922386581 -12.89358849273710561079 -20.52278679873074551665 -12.89358849273710561079 -10.35052239073922386581 -10.35052239073922386581 -12.89358849273710561079 -12.89358849273710561079 -12.89358849273710561079 -7.80745628874134212083 -15.43665459473498557941 -15.43665459473498557941 -7.80745628874134212083 -12.89358849273710561079 -7.80745628874134212083 -10.35052239073922386581 -15.43665459473498557941 -10.35052239073922386581 -7.80745628874134212083 -2.72132408474558129541 -10.35052239073922386581 -15.43665459473498557941 -5.26439018674346126403 -12.89358849273710561079 -7.80745628874134212083 -5.26439018674346126403 -7.80745628874134212083 -10.35052239073922386581 -12.89358849273710561079 -12.89358849273710561079 -10.35052239073922386581 -5.26439018674346126403 -10.35052239073922386581 -7.80745628874134212083 -2.72132408474558129541 -12.89358849273710561079 -10.35052239073922386581 -5.26439018674346126403 -12.89358849273710561079 -17.97972069673286554803 -10.35052239073922386581 -10.35052239073922386581 -15.43665459473498557941 -17.97972069673286554803 -2.72132408474558129541 -7.80745628874134212083 -7.80745628874134212083 -10.35052239073922386581 2.36480811925017953001 -10.35052239073922386581 -12.89358849273710561079 -5.26439018674346126403 -5.26439018674346126403 -0.17825798274770079943 -7.80745628874134212083 -10.35052239073922386581 -0.17825798274770079943 -5.26439018674346126403 -2.72132408474558129541 -5.26439018674346126403 -7.80745628874134212083 -2.72132408474558129541 -0.17825798274770079943 -0.17825798274770079943 -7.80745628874134212083 -15.43665459473498557941 -10.35052239073922386581 -0.17825798274770079943 -2.72132408474558129541 -2.72132408474558129541 -2.72132408474558129541 -0.17825798274770079943 -7.80745628874134212083 -0.17825798274770079943 -7.80745628874134212083 -2.72132408474558129541 2.36480811925017953001 -0.17825798274770079943 -7.80745628874134212083 -7.80745628874134212083 -2.72132408474558129541 -5.26439018674346126403 -2.72132408474558129541 -2.72132408474558129541 -2.72132408474558129541 -5.26439018674346126403 -2.72132408474558129541 -5.26439018674346126403 2.36480811925017953001 -10.35052239073922386581 -5.26439018674346126403 -2.72132408474558129541 -7.80745628874134212083 -5.26439018674346126403 -2.72132408474558129541 -2.72132408474558129541 -7.80745628874134212083 -7.80745628874134212083 -7.80745628874134212083 -10.35052239073922386581 -7.80745628874134212083 -5.26439018674346126403 -7.80745628874134212083 -10.35052239073922386581 -5.26439018674346126403 -5.26439018674346126403 -7.80745628874134212083 -2.72132408474558129541 -7.80745628874134212083 -15.43665459473498557941 -10.35052239073922386581 -2.72132408474558129541 -12.89358849273710561079 -5.26439018674346126403 -10.35052239073922386581 -10.35052239073922386581 -5.26439018674346126403 -5.26439018674346126403 -5.26439018674346126403 -5.26439018674346126403 -0.17825798274770079943 -2.72132408474558129541 -10.35052239073922386581 -7.80745628874134212083 -2.72132408474558129541 -5.26439018674346126403 -2.72132408474558129541 -7.80745628874134212083 -12.89358849273710561079 -5.26439018674346126403 -7.80745628874134212083 -2.72132408474558129541 -2.72132408474558129541 -10.35052239073922386581 -15.43665459473498557941 -2.72132408474558129541 -7.80745628874134212083 -10.35052239073922386581 -2.72132408474558129541 -5.26439018674346126403 -10.35052239073922386581 -2.72132408474558129541 -0.17825798274770079943 -2.72132408474558129541 -0.17825798274770079943 -5.26439018674346126403 -5.26439018674346126403 -10.35052239073922386581 -10.35052239073922386581 -5.26439018674346126403 -7.80745628874134212083 -7.80745628874134212083 -5.26439018674346126403 -12.89358849273710561079 -7.80745628874134212083 -15.43665459473498557941 -7.80745628874134212083 -5.26439018674346126403 -2.72132408474558129541 -10.35052239073922386581 -5.26439018674346126403 -15.43665459473498557941 -10.35052239073922386581 -10.35052239073922386581 -0.17825798274770079943 -7.80745628874134212083 -10.35052239073922386581 -7.80745628874134212083 -2.72132408474558129541 -2.72132408474558129541 -12.89358849273710561079 -5.26439018674346126403 -7.80745628874134212083 -7.80745628874134212083 -10.35052239073922386581 -7.80745628874134212083 -7.80745628874134212083 -12.89358849273710561079 -5.26439018674346126403 -5.26439018674346126403 -2.72132408474558129541 -12.89358849273710561079 -2.72132408474558129541 -2.72132408474558129541 -10.35052239073922386581 -7.80745628874134212083 -5.26439018674346126403 -7.80745628874134212083 -7.80745628874134212083 -2.72132408474558129541 -5.26439018674346126403 -12.89358849273710561079 -2.72132408474558129541 -5.26439018674346126403 -5.26439018674346126403 -5.26439018674346126403 -0.17825798274770079943 -7.80745628874134212083 2.36480811925017953001 -7.80745628874134212083 -0.17825798274770079943 -7.80745628874134212083 -5.26439018674346126403 -0.17825798274770079943 -7.80745628874134212083 -7.80745628874134212083 2.36480811925017953001 -2.72132408474558129541 -5.26439018674346126403 -2.72132408474558129541 -5.26439018674346126403 -2.72132408474558129541 -0.17825798274770079943 -2.72132408474558129541 -0.17825798274770079943 -0.17825798274770079943 -7.80745628874134212083 -5.26439018674346126403 -5.26439018674346126403 -0.17825798274770079943 2.36480811925017953001 -0.17825798274770079943 -5.26439018674346126403 -0.17825798274770079943 -2.72132408474558129541 2.36480811925017953001 -5.26439018674346126403 -0.17825798274770079943 -5.26439018674346126403 -2.72132408474558129541 -2.72132408474558129541 -5.26439018674346126403 -10.35052239073922386581 -5.26439018674346126403 -5.26439018674346126403 -5.26439018674346126403 -5.26439018674346126403 -7.80745628874134212083 -10.35052239073922386581 -0.17825798274770079943 -7.80745628874134212083 -2.72132408474558129541 -0.17825798274770079943 -5.26439018674346126403 -0.17825798274770079943 -2.72132408474558129541 -10.35052239073922386581 -2.72132408474558129541 -0.17825798274770079943 -2.72132408474558129541 -2.72132408474558129541 -12.89358849273710561079 -7.80745628874134212083 -0.17825798274770079943 -5.26439018674346126403 2.36480811925017953001 -2.72132408474558129541 -0.17825798274770079943 -5.26439018674346126403 -10.35052239073922386581 4.90787422124806038681 -0.17825798274770079943 -2.72132408474558129541 -5.26439018674346126403 -5.26439018674346126403 -5.26439018674346126403 -5.26439018674346126403 -10.35052239073922386581 -5.26439018674346126403 -0.17825798274770079943 -0.17825798274770079943 -5.26439018674346126403 -5.26439018674346126403 -5.26439018674346126403 -2.72132408474558129541 -7.80745628874134212083 -2.72132408474558129541 -5.26439018674346126403 -7.80745628874134212083 -5.26439018674346126403 -5.26439018674346126403 -2.72132408474558129541 -5.26439018674346126403 -0.17825798274770079943 -0.17825798274770079943 -5.26439018674346126403 -5.26439018674346126403 -5.26439018674346126403 -7.80745628874134212083 -2.72132408474558129541 -7.80745628874134212083 -5.26439018674346126403 2.36480811925017953001 -5.26439018674346126403 2.36480811925017953001 -2.72132408474558129541 -2.72132408474558129541 -5.26439018674346126403 7.45094032324594124361 2.36480811925017953001 7.45094032324594124361 2.36480811925017953001 -2.72132408474558129541 -5.26439018674346126403 -2.72132408474558129541 -5.26439018674346126403 -5.26439018674346126403 2.36480811925017953001 7.45094032324594124361 -2.72132408474558129541 2.36480811925017953001 7.45094032324594124361 4.90787422124806038681 4.90787422124806038681 -2.72132408474558129541 2.36480811925017953001 -2.72132408474558129541 2.36480811925017953001 7.45094032324594124361 4.90787422124806038681 -0.17825798274770079943 4.90787422124806038681 12.53707252724170295721 7.45094032324594124361 7.45094032324594124361 7.45094032324594124361 15.08013862923958292583 4.90787422124806038681 4.90787422124806038681 2.36480811925017953001 4.90787422124806038681 15.08013862923958292583 4.90787422124806038681 9.99400642524381943588 17.62320473123746111810 12.53707252724170295721 15.08013862923958292583 12.53707252724170295721 7.45094032324594124361 7.45094032324594124361 9.99400642524381943588 9.99400642524381943588 9.99400642524381943588 17.62320473123746111810 17.62320473123746111810 9.99400642524381943588 9.99400642524381943588 7.45094032324594124361 12.53707252724170295721 9.99400642524381943588 12.53707252724170295721 15.08013862923958292583 2.36480811925017953001 4.90787422124806038681 7.45094032324594124361 7.45094032324594124361 9.99400642524381943588 -0.17825798274770079943 7.45094032324594124361 9.99400642524381943588 2.36480811925017953001 2.36480811925017953001 9.99400642524381943588 -0.17825798274770079943 2.36480811925017953001 -2.72132408474558129541 -0.17825798274770079943 2.36480811925017953001 4.90787422124806038681 -2.72132408474558129541 4.90787422124806038681 4.90787422124806038681 -0.17825798274770079943 -0.17825798274770079943 -2.72132408474558129541 2.36480811925017953001 -0.17825798274770079943 -2.72132408474558129541 -0.17825798274770079943 -12.89358849273710561079 -7.80745628874134212083 4.90787422124806038681 -5.26439018674346126403 -5.26439018674346126403 -12.89358849273710561079 -0.17825798274770079943 -5.26439018674346126403 -10.35052239073922386581 -7.80745628874134212083 -5.26439018674346126403 -12.89358849273710561079 -5.26439018674346126403 -7.80745628874134212083 -0.17825798274770079943 -7.80745628874134212083 -7.80745628874134212083 -10.35052239073922386581 -2.72132408474558129541 -12.89358849273710561079 -2.72132408474558129541 -0.17825798274770079943 -7.80745628874134212083 -12.89358849273710561079 -10.35052239073922386581 -7.80745628874134212083 -5.26439018674346126403 -10.35052239073922386581 -5.26439018674346126403 -7.80745628874134212083 -7.80745628874134212083 -10.35052239073922386581 -12.89358849273710561079 -5.26439018674346126403 -7.80745628874134212083 -5.26439018674346126403 -2.72132408474558129541 -5.26439018674346126403 -15.43665459473498557941 -5.26439018674346126403 -5.26439018674346126403 -0.17825798274770079943 -10.35052239073922386581 -2.72132408474558129541 -10.35052239073922386581 -2.72132408474558129541 2.36480811925017953001 -0.17825798274770079943 -7.80745628874134212083 -2.72132408474558129541 2.36480811925017953001 4.90787422124806038681 -2.72132408474558129541 -5.26439018674346126403 2.36480811925017953001 -0.17825798274770079943 -2.72132408474558129541 -0.17825798274770079943 4.90787422124806038681 -10.35052239073922386581 2.36480811925017953001 2.36480811925017953001 -0.17825798274770079943 2.36480811925017953001 -2.72132408474558129541 -0.17825798274770079943 9.99400642524381943588 7.45094032324594124361 -0.17825798274770079943 2.36480811925017953001 -0.17825798274770079943 2.36480811925017953001 2.36480811925017953001 4.90787422124806038681 15.08013862923958292583 2.36480811925017953001 7.45094032324594124361 2.36480811925017953001 -0.17825798274770079943 7.45094032324594124361 9.99400642524381943588 7.45094032324594124361 12.53707252724170295721 7.45094032324594124361 2.36480811925017953001 9.99400642524381943588 9.99400642524381943588 12.53707252724170295721 15.08013862923958292583 7.45094032324594124361 7.45094032324594124361 15.08013862923958292583 9.99400642524381943588 7.45094032324594124361 22.70933693523322460806 17.62320473123746111810 12.53707252724170295721 7.45094032324594124361 9.99400642524381943588 4.90787422124806038681 12.53707252724170295721 22.70933693523322460806 12.53707252724170295721 12.53707252724170295721 15.08013862923958292583 2.36480811925017953001 7.45094032324594124361 4.90787422124806038681 9.99400642524381943588 9.99400642524381943588 9.99400642524381943588 -0.17825798274770079943 12.53707252724170295721 4.90787422124806038681 7.45094032324594124361 2.36480811925017953001 12.53707252724170295721 12.53707252724170295721 4.90787422124806038681 4.90787422124806038681 9.99400642524381943588 7.45094032324594124361 -2.72132408474558129541 4.90787422124806038681 4.90787422124806038681 -0.17825798274770079943 4.90787422124806038681 9.99400642524381943588 7.45094032324594124361 -2.72132408474558129541 4.90787422124806038681 7.45094032324594124361 7.45094032324594124361 9.99400642524381943588 4.90787422124806038681 -0.17825798274770079943 -5.26439018674346126403 4.90787422124806038681 -2.72132408474558129541 7.45094032324594124361 4.90787422124806038681 7.45094032324594124361 7.45094032324594124361 2.36480811925017953001 7.45094032324594124361 2.36480811925017953001 -2.72132408474558129541 2.36480811925017953001 4.90787422124806038681 7.45094032324594124361 2.36480811925017953001 4.90787422124806038681 7.45094032324594124361 -0.17825798274770079943 -5.26439018674346126403 7.45094032324594124361 9.99400642524381943588 4.90787422124806038681 4.90787422124806038681 2.36480811925017953001 -5.26439018674346126403 -0.17825798274770079943 -0.17825798274770079943 4.90787422124806038681 2.36480811925017953001 4.90787422124806038681 7.45094032324594124361 4.90787422124806038681 2.36480811925017953001 -0.17825798274770079943 4.90787422124806038681 -5.26439018674346126403 2.36480811925017953001 7.45094032324594124361 7.45094032324594124361 -0.17825798274770079943 4.90787422124806038681 -2.72132408474558129541 2.36480811925017953001 2.36480811925017953001 2.36480811925017953001 4.90787422124806038681 4.90787422124806038681 -0.17825798274770079943 2.36480811925017953001 -0.17825798274770079943 7.45094032324594124361 7.45094032324594124361 4.90787422124806038681 9.99400642524381943588 -0.17825798274770079943 9.99400642524381943588 9.99400642524381943588 9.99400642524381943588 9.99400642524381943588 4.90787422124806038681 9.99400642524381943588 7.45094032324594124361 2.36480811925017953001 4.90787422124806038681 12.53707252724170295721 2.36480811925017953001 9.99400642524381943588 4.90787422124806038681 4.90787422124806038681 4.90787422124806038681 7.45094032324594124361 7.45094032324594124361 4.90787422124806038681 4.90787422124806038681 7.45094032324594124361 7.45094032324594124361 4.90787422124806038681 12.53707252724170295721 -2.72132408474558129541 9.99400642524381943588 12.53707252724170295721 9.99400642524381943588 7.45094032324594124361 12.53707252724170295721 9.99400642524381943588 9.99400642524381943588 12.53707252724170295721 4.90787422124806038681 17.62320473123746111810 4.90787422124806038681 7.45094032324594124361 7.45094032324594124361 7.45094032324594124361 9.99400642524381943588 12.53707252724170295721 12.53707252724170295721 9.99400642524381943588 15.08013862923958292583 7.45094032324594124361 9.99400642524381943588 9.99400642524381943588 15.08013862923958292583 12.53707252724170295721 -2.72132408474558129541 9.99400642524381943588 7.45094032324594124361 12.53707252724170295721 7.45094032324594124361 2.36480811925017953001 12.53707252724170295721 15.08013862923958292583 12.53707252724170295721 4.90787422124806038681 2.36480811925017953001 2.36480811925017953001 4.90787422124806038681 2.36480811925017953001 7.45094032324594124361 9.99400642524381943588 12.53707252724170295721 7.45094032324594124361 4.90787422124806038681 2.36480811925017953001 12.53707252724170295721 12.53707252724170295721 7.45094032324594124361 7.45094032324594124361 12.53707252724170295721 4.90787422124806038681 7.45094032324594124361 4.90787422124806038681 7.45094032324594124361 12.53707252724170295721 4.90787422124806038681 4.90787422124806038681 4.90787422124806038681 9.99400642524381943588 7.45094032324594124361 9.99400642524381943588 9.99400642524381943588 7.45094032324594124361 9.99400642524381943588 9.99400642524381943588 9.99400642524381943588 12.53707252724170295721 9.99400642524381943588 7.45094032324594124361 12.53707252724170295721 15.08013862923958292583 7.45094032324594124361 7.45094032324594124361 9.99400642524381943588 7.45094032324594124361 9.99400642524381943588 7.45094032324594124361 9.99400642524381943588 2.36480811925017953001 9.99400642524381943588 12.53707252724170295721 9.99400642524381943588 20.16627083323534108672 4.90787422124806038681 12.53707252724170295721 15.08013862923958292583 9.99400642524381943588 12.53707252724170295721 17.62320473123746111810 12.53707252724170295721 9.99400642524381943588 9.99400642524381943588 9.99400642524381943588 7.45094032324594124361 12.53707252724170295721 12.53707252724170295721 17.62320473123746111810 7.45094032324594124361 4.90787422124806038681 9.99400642524381943588 12.53707252724170295721 9.99400642524381943588 17.62320473123746111810 12.53707252724170295721 7.45094032324594124361 17.62320473123746111810 12.53707252724170295721 9.99400642524381943588 17.62320473123746111810 7.45094032324594124361 15.08013862923958292583 17.62320473123746111810 4.90787422124806038681 15.08013862923958292583 15.08013862923958292583 12.53707252724170295721 9.99400642524381943588 12.53707252724170295721 7.45094032324594124361 15.08013862923958292583 9.99400642524381943588 9.99400642524381943588 4.90787422124806038681 15.08013862923958292583 2.36480811925017953001 12.53707252724170295721 12.53707252724170295721 2.36480811925017953001 7.45094032324594124361 12.53707252724170295721 12.53707252724170295721 12.53707252724170295721 12.53707252724170295721 15.08013862923958292583 12.53707252724170295721 17.62320473123746111810 9.99400642524381943588 15.08013862923958292583 7.45094032324594124361 17.62320473123746111810 7.45094032324594124361 12.53707252724170295721 15.08013862923958292583 7.45094032324594124361 12.53707252724170295721 9.99400642524381943588 9.99400642524381943588 17.62320473123746111810 12.53707252724170295721 7.45094032324594124361 9.99400642524381943588 7.45094032324594124361 15.08013862923958292583 12.53707252724170295721 15.08013862923958292583 4.90787422124806038681 7.45094032324594124361 4.90787422124806038681 7.45094032324594124361 15.08013862923958292583 9.99400642524381943588 -0.17825798274770079943 15.08013862923958292583 7.45094032324594124361 7.45094032324594124361 9.99400642524381943588 12.53707252724170295721 12.53707252724170295721 15.08013862923958292583 9.99400642524381943588 4.90787422124806038681 9.99400642524381943588 9.99400642524381943588 12.53707252724170295721 2.36480811925017953001 12.53707252724170295721 17.62320473123746111810 9.99400642524381943588 4.90787422124806038681 9.99400642524381943588 7.45094032324594124361 17.62320473123746111810 12.53707252724170295721 7.45094032324594124361 4.90787422124806038681 7.45094032324594124361 7.45094032324594124361 15.08013862923958292583 12.53707252724170295721 9.99400642524381943588 17.62320473123746111810 4.90787422124806038681 2.36480811925017953001 9.99400642524381943588 12.53707252724170295721 9.99400642524381943588 2.36480811925017953001 7.45094032324594124361 2.36480811925017953001 9.99400642524381943588 15.08013862923958292583 9.99400642524381943588 7.45094032324594124361 4.90787422124806038681 7.45094032324594124361 9.99400642524381943588 9.99400642524381943588 7.45094032324594124361 4.90787422124806038681 2.36480811925017953001 9.99400642524381943588 7.45094032324594124361 9.99400642524381943588 9.99400642524381943588 9.99400642524381943588 12.53707252724170295721 4.90787422124806038681 2.36480811925017953001 15.08013862923958292583 15.08013862923958292583 7.45094032324594124361 12.53707252724170295721 20.16627083323534108672 9.99400642524381943588 7.45094032324594124361 4.90787422124806038681 -0.17825798274770079943 9.99400642524381943588 9.99400642524381943588 12.53707252724170295721 7.45094032324594124361 7.45094032324594124361 7.45094032324594124361 9.99400642524381943588 7.45094032324594124361 7.45094032324594124361 15.08013862923958292583 12.53707252724170295721 12.53707252724170295721 9.99400642524381943588 12.53707252724170295721 9.99400642524381943588 12.53707252724170295721 7.45094032324594124361 7.45094032324594124361 12.53707252724170295721 15.08013862923958292583 9.99400642524381943588 7.45094032324594124361 12.53707252724170295721 12.53707252724170295721 12.53707252724170295721 9.99400642524381943588 4.90787422124806038681 12.53707252724170295721 9.99400642524381943588 4.90787422124806038681 17.62320473123746111810 12.53707252724170295721 7.45094032324594124361 17.62320473123746111810 4.90787422124806038681 12.53707252724170295721 12.53707252724170295721 9.99400642524381943588 15.08013862923958292583 2.36480811925017953001 9.99400642524381943588 9.99400642524381943588 15.08013862923958292583 15.08013862923958292583 9.99400642524381943588 4.90787422124806038681 15.08013862923958292583 12.53707252724170295721 7.45094032324594124361 15.08013862923958292583 4.90787422124806038681 7.45094032324594124361 7.45094032324594124361 7.45094032324594124361 9.99400642524381943588 4.90787422124806038681 -0.17825798274770079943 4.90787422124806038681 9.99400642524381943588 9.99400642524381943588 7.45094032324594124361 2.36480811925017953001 -0.17825798274770079943 4.90787422124806038681 7.45094032324594124361 4.90787422124806038681 9.99400642524381943588 12.53707252724170295721 7.45094032324594124361 9.99400642524381943588 12.53707252724170295721 2.36480811925017953001 9.99400642524381943588 7.45094032324594124361 7.45094032324594124361 7.45094032324594124361 9.99400642524381943588 4.90787422124806038681 2.36480811925017953001 15.08013862923958292583 12.53707252724170295721 9.99400642524381943588 9.99400642524381943588 9.99400642524381943588 12.53707252724170295721 12.53707252724170295721 4.90787422124806038681 15.08013862923958292583 9.99400642524381943588 9.99400642524381943588 12.53707252724170295721 4.90787422124806038681 9.99400642524381943588 12.53707252724170295721 12.53707252724170295721 7.45094032324594124361 9.99400642524381943588 4.90787422124806038681 12.53707252724170295721 9.99400642524381943588 15.08013862923958292583 12.53707252724170295721 7.45094032324594124361 12.53707252724170295721 7.45094032324594124361 12.53707252724170295721 12.53707252724170295721 15.08013862923958292583 17.62320473123746111810 4.90787422124806038681 12.53707252724170295721 4.90787422124806038681 7.45094032324594124361 15.08013862923958292583 9.99400642524381943588 9.99400642524381943588 9.99400642524381943588 12.53707252724170295721 15.08013862923958292583 9.99400642524381943588 12.53707252724170295721 12.53707252724170295721 7.45094032324594124361 12.53707252724170295721 15.08013862923958292583 9.99400642524381943588 15.08013862923958292583 9.99400642524381943588 12.53707252724170295721 17.62320473123746111810 12.53707252724170295721 12.53707252724170295721 12.53707252724170295721 12.53707252724170295721 12.53707252724170295721 9.99400642524381943588 7.45094032324594124361 15.08013862923958292583 17.62320473123746111810 12.53707252724170295721 4.90787422124806038681 7.45094032324594124361 9.99400642524381943588 9.99400642524381943588 7.45094032324594124361 17.62320473123746111810 12.53707252724170295721 12.53707252724170295721 7.45094032324594124361 12.53707252724170295721 20.16627083323534108672 15.08013862923958292583 17.62320473123746111810 12.53707252724170295721 7.45094032324594124361 9.99400642524381943588 4.90787422124806038681 15.08013862923958292583 15.08013862923958292583 7.45094032324594124361 9.99400642524381943588 15.08013862923958292583 15.08013862923958292583 12.53707252724170295721 17.62320473123746111810 9.99400642524381943588 9.99400642524381943588 4.90787422124806038681 4.90787422124806038681 9.99400642524381943588 12.53707252724170295721 4.90787422124806038681 12.53707252724170295721 15.08013862923958292583 22.70933693523322460806 4.90787422124806038681 4.90787422124806038681 12.53707252724170295721 15.08013862923958292583 7.45094032324594124361 15.08013862923958292583 15.08013862923958292583 17.62320473123746111810 20.16627083323534108672 7.45094032324594124361 12.53707252724170295721 7.45094032324594124361 9.99400642524381943588 7.45094032324594124361 9.99400642524381943588 7.45094032324594124361 15.08013862923958292583 9.99400642524381943588 7.45094032324594124361 9.99400642524381943588 9.99400642524381943588 15.08013862923958292583 12.53707252724170295721 9.99400642524381943588 15.08013862923958292583 9.99400642524381943588 9.99400642524381943588 9.99400642524381943588 7.45094032324594124361 9.99400642524381943588 9.99400642524381943588 7.45094032324594124361 9.99400642524381943588 15.08013862923958292583 9.99400642524381943588 12.53707252724170295721 7.45094032324594124361 9.99400642524381943588 4.90787422124806038681 2.36480811925017953001 15.08013862923958292583 17.62320473123746111810 15.08013862923958292583 12.53707252724170295721 12.53707252724170295721 4.90787422124806038681 4.90787422124806038681 7.45094032324594124361 4.90787422124806038681 2.36480811925017953001 7.45094032324594124361 2.36480811925017953001 15.08013862923958292583 4.90787422124806038681 12.53707252724170295721 4.90787422124806038681 9.99400642524381943588 4.90787422124806038681 4.90787422124806038681 7.45094032324594124361 2.36480811925017953001 7.45094032324594124361 2.36480811925017953001 9.99400642524381943588 7.45094032324594124361 4.90787422124806038681 7.45094032324594124361 9.99400642524381943588 12.53707252724170295721 4.90787422124806038681 -0.17825798274770079943 2.36480811925017953001 12.53707252724170295721 9.99400642524381943588 4.90787422124806038681 4.90787422124806038681 -0.17825798274770079943 4.90787422124806038681 2.36480811925017953001 7.45094032324594124361 4.90787422124806038681 12.53707252724170295721 2.36480811925017953001 4.90787422124806038681 9.99400642524381943588 9.99400642524381943588 15.08013862923958292583 2.36480811925017953001 9.99400642524381943588 4.90787422124806038681 7.45094032324594124361 4.90787422124806038681 -0.17825798274770079943 2.36480811925017953001 4.90787422124806038681 9.99400642524381943588 4.90787422124806038681 4.90787422124806038681 4.90787422124806038681 7.45094032324594124361 7.45094032324594124361 9.99400642524381943588 7.45094032324594124361 7.45094032324594124361 9.99400642524381943588 9.99400642524381943588 9.99400642524381943588 15.08013862923958292583 2.36480811925017953001 9.99400642524381943588 9.99400642524381943588 2.36480811925017953001 12.53707252724170295721 20.16627083323534108672 15.08013862923958292583 7.45094032324594124361 2.36480811925017953001 12.53707252724170295721 12.53707252724170295721 7.45094032324594124361 7.45094032324594124361 4.90787422124806038681 9.99400642524381943588 7.45094032324594124361 4.90787422124806038681 15.08013862923958292583 9.99400642524381943588 9.99400642524381943588 12.53707252724170295721 12.53707252724170295721 12.53707252724170295721 12.53707252724170295721 4.90787422124806038681 9.99400642524381943588 12.53707252724170295721 4.90787422124806038681 17.62320473123746111810 20.16627083323534108672 9.99400642524381943588 4.90787422124806038681 7.45094032324594124361 15.08013862923958292583 12.53707252724170295721 15.08013862923958292583 9.99400642524381943588 7.45094032324594124361 12.53707252724170295721 7.45094032324594124361 12.53707252724170295721 9.99400642524381943588 12.53707252724170295721 9.99400642524381943588 9.99400642524381943588 9.99400642524381943588 9.99400642524381943588 4.90787422124806038681 12.53707252724170295721 12.53707252724170295721 4.90787422124806038681 12.53707252724170295721 7.45094032324594124361 9.99400642524381943588 4.90787422124806038681 12.53707252724170295721 15.08013862923958292583 9.99400642524381943588 9.99400642524381943588 -0.17825798274770079943 9.99400642524381943588 9.99400642524381943588 12.53707252724170295721 15.08013862923958292583 9.99400642524381943588 7.45094032324594124361 9.99400642524381943588 12.53707252724170295721 9.99400642524381943588 12.53707252724170295721 12.53707252724170295721 4.90787422124806038681 12.53707252724170295721 9.99400642524381943588 4.90787422124806038681 9.99400642524381943588 15.08013862923958292583 9.99400642524381943588 9.99400642524381943588 20.16627083323534108672 7.45094032324594124361 9.99400642524381943588 12.53707252724170295721 12.53707252724170295721 9.99400642524381943588 15.08013862923958292583 15.08013862923958292583 15.08013862923958292583 4.90787422124806038681 12.53707252724170295721 15.08013862923958292583 7.45094032324594124361 9.99400642524381943588 20.16627083323534108672 4.90787422124806038681 15.08013862923958292583 12.53707252724170295721 9.99400642524381943588 20.16627083323534108672 15.08013862923958292583 12.53707252724170295721 12.53707252724170295721 7.45094032324594124361 15.08013862923958292583 17.62320473123746111810 15.08013862923958292583 22.70933693523322460806 7.45094032324594124361 15.08013862923958292583 20.16627083323534108672 17.62320473123746111810 9.99400642524381943588 20.16627083323534108672 4.90787422124806038681 9.99400642524381943588 12.53707252724170295721 7.45094032324594124361 22.70933693523322460806 12.53707252724170295721 15.08013862923958292583 9.99400642524381943588 12.53707252724170295721 12.53707252724170295721 4.90787422124806038681 15.08013862923958292583 12.53707252724170295721 20.16627083323534108672 15.08013862923958292583 17.62320473123746111810 9.99400642524381943588 9.99400642524381943588 12.53707252724170295721 15.08013862923958292583 25.25240303723110457668 9.99400642524381943588 25.25240303723110457668 20.16627083323534108672 15.08013862923958292583 20.16627083323534108672 9.99400642524381943588 17.62320473123746111810 17.62320473123746111810 20.16627083323534108672 20.16627083323534108672 9.99400642524381943588 17.62320473123746111810 17.62320473123746111810 15.08013862923958292583 9.99400642524381943588 17.62320473123746111810 9.99400642524381943588 9.99400642524381943588 22.70933693523322460806 12.53707252724170295721 12.53707252724170295721 4.90787422124806038681 17.62320473123746111810 12.53707252724170295721 12.53707252724170295721 20.16627083323534108672 17.62320473123746111810 12.53707252724170295721 12.53707252724170295721 12.53707252724170295721 2.36480811925017953001 17.62320473123746111810 17.62320473123746111810 17.62320473123746111810 15.08013862923958292583 9.99400642524381943588 9.99400642524381943588 12.53707252724170295721 7.45094032324594124361 15.08013862923958292583 9.99400642524381943588 17.62320473123746111810 9.99400642524381943588 9.99400642524381943588 7.45094032324594124361 9.99400642524381943588 15.08013862923958292583 17.62320473123746111810 4.90787422124806038681 12.53707252724170295721 12.53707252724170295721 4.90787422124806038681 12.53707252724170295721 7.45094032324594124361 20.16627083323534108672 17.62320473123746111810 9.99400642524381943588 9.99400642524381943588 7.45094032324594124361 9.99400642524381943588 7.45094032324594124361 15.08013862923958292583 12.53707252724170295721 20.16627083323534108672 9.99400642524381943588 9.99400642524381943588 12.53707252724170295721 9.99400642524381943588 12.53707252724170295721 20.16627083323534108672 7.45094032324594124361 7.45094032324594124361 7.45094032324594124361 9.99400642524381943588 12.53707252724170295721 12.53707252724170295721 7.45094032324594124361 9.99400642524381943588 12.53707252724170295721 12.53707252724170295721 12.53707252724170295721 4.90787422124806038681 9.99400642524381943588 4.90787422124806038681 4.90787422124806038681 9.99400642524381943588 4.90787422124806038681 12.53707252724170295721 15.08013862923958292583 9.99400642524381943588 12.53707252724170295721 7.45094032324594124361 7.45094032324594124361 9.99400642524381943588 15.08013862923958292583 7.45094032324594124361 9.99400642524381943588 7.45094032324594124361 12.53707252724170295721 12.53707252724170295721 7.45094032324594124361 15.08013862923958292583 7.45094032324594124361 2.36480811925017953001 7.45094032324594124361 9.99400642524381943588 12.53707252724170295721 9.99400642524381943588 9.99400642524381943588 9.99400642524381943588 12.53707252724170295721 7.45094032324594124361 12.53707252724170295721 9.99400642524381943588 12.53707252724170295721 9.99400642524381943588 7.45094032324594124361 12.53707252724170295721 2.36480811925017953001 12.53707252724170295721 7.45094032324594124361 12.53707252724170295721 9.99400642524381943588 9.99400642524381943588 9.99400642524381943588 7.45094032324594124361 9.99400642524381943588 15.08013862923958292583 7.45094032324594124361 12.53707252724170295721 12.53707252724170295721 4.90787422124806038681 7.45094032324594124361 7.45094032324594124361 9.99400642524381943588 15.08013862923958292583 12.53707252724170295721 7.45094032324594124361 9.99400642524381943588 17.62320473123746111810 17.62320473123746111810 12.53707252724170295721 7.45094032324594124361 4.90787422124806038681 7.45094032324594124361 4.90787422124806038681 4.90787422124806038681 12.53707252724170295721 7.45094032324594124361 9.99400642524381943588 15.08013862923958292583 9.99400642524381943588 7.45094032324594124361 7.45094032324594124361 2.36480811925017953001 4.90787422124806038681 -0.17825798274770079943 -2.72132408474558129541 -2.72132408474558129541 2.36480811925017953001 2.36480811925017953001 -0.17825798274770079943 -2.72132408474558129541 -2.72132408474558129541 7.45094032324594124361 2.36480811925017953001 2.36480811925017953001 -0.17825798274770079943 -2.72132408474558129541 4.90787422124806038681 -0.17825798274770079943 -2.72132408474558129541 -2.72132408474558129541 -0.17825798274770079943 2.36480811925017953001 2.36480811925017953001 -2.72132408474558129541 4.90787422124806038681 -0.17825798274770079943 -0.17825798274770079943 2.36480811925017953001 2.36480811925017953001 -0.17825798274770079943 -2.72132408474558129541 -2.72132408474558129541 -5.26439018674346126403 2.36480811925017953001 -2.72132408474558129541 -0.17825798274770079943 7.45094032324594124361 2.36480811925017953001 2.36480811925017953001 7.45094032324594124361 -2.72132408474558129541 -0.17825798274770079943 -5.26439018674346126403 -2.72132408474558129541 -2.72132408474558129541 -0.17825798274770079943 -0.17825798274770079943 -5.26439018674346126403 -5.26439018674346126403 -2.72132408474558129541 -0.17825798274770079943 -2.72132408474558129541 -5.26439018674346126403 -5.26439018674346126403 -5.26439018674346126403 -2.72132408474558129541 -0.17825798274770079943 -2.72132408474558129541 -7.80745628874134212083 -7.80745628874134212083 -2.72132408474558129541 -7.80745628874134212083 -2.72132408474558129541 -2.72132408474558129541 -2.72132408474558129541 -7.80745628874134212083 -2.72132408474558129541 -2.72132408474558129541 -0.17825798274770079943 -5.26439018674346126403 -5.26439018674346126403 -2.72132408474558129541 -5.26439018674346126403 -5.26439018674346126403 -7.80745628874134212083 -5.26439018674346126403 -5.26439018674346126403 -12.89358849273710561079 -12.89358849273710561079 -10.35052239073922386581 -5.26439018674346126403 -10.35052239073922386581 -7.80745628874134212083 -7.80745628874134212083 -5.26439018674346126403 -2.72132408474558129541 -7.80745628874134212083 -5.26439018674346126403 -7.80745628874134212083 -12.89358849273710561079 -12.89358849273710561079 -2.72132408474558129541 -10.35052239073922386581 -7.80745628874134212083 -10.35052239073922386581 -10.35052239073922386581 -20.52278679873074551665 -7.80745628874134212083 -10.35052239073922386581 -15.43665459473498557941 -5.26439018674346126403 -10.35052239073922386581 -5.26439018674346126403 -7.80745628874134212083 -10.35052239073922386581 -12.89358849273710561079 -5.26439018674346126403 -5.26439018674346126403 -10.35052239073922386581 -7.80745628874134212083 -2.72132408474558129541 -12.89358849273710561079 -12.89358849273710561079 -5.26439018674346126403 -12.89358849273710561079 -7.80745628874134212083 -7.80745628874134212083 -2.72132408474558129541 -5.26439018674346126403 -5.26439018674346126403 -2.72132408474558129541 -7.80745628874134212083 -5.26439018674346126403 -5.26439018674346126403 -2.72132408474558129541 -7.80745628874134212083 -5.26439018674346126403 -7.80745628874134212083 -10.35052239073922386581 -10.35052239073922386581 -2.72132408474558129541 -7.80745628874134212083 2.36480811925017953001 -5.26439018674346126403 -2.72132408474558129541 -2.72132408474558129541 -5.26439018674346126403 -5.26439018674346126403 -7.80745628874134212083 2.36480811925017953001 -10.35052239073922386581 -10.35052239073922386581 2.36480811925017953001 -2.72132408474558129541 -5.26439018674346126403 -2.72132408474558129541 -5.26439018674346126403 4.90787422124806038681 2.36480811925017953001 -2.72132408474558129541 -5.26439018674346126403 -2.72132408474558129541 -7.80745628874134212083 -7.80745628874134212083 -0.17825798274770079943 2.36480811925017953001 -2.72132408474558129541 2.36480811925017953001 2.36480811925017953001 -0.17825798274770079943 2.36480811925017953001 4.90787422124806038681 -0.17825798274770079943 -0.17825798274770079943 2.36480811925017953001 9.99400642524381943588 2.36480811925017953001 4.90787422124806038681 -0.17825798274770079943 2.36480811925017953001 2.36480811925017953001 4.90787422124806038681 4.90787422124806038681 4.90787422124806038681 7.45094032324594124361 2.36480811925017953001 7.45094032324594124361 2.36480811925017953001 2.36480811925017953001 2.36480811925017953001 7.45094032324594124361 4.90787422124806038681 2.36480811925017953001 -5.26439018674346126403 -2.72132408474558129541 2.36480811925017953001 -0.17825798274770079943 4.90787422124806038681 -2.72132408474558129541 4.90787422124806038681 4.90787422124806038681 -5.26439018674346126403 -2.72132408474558129541 -7.80745628874134212083 -0.17825798274770079943 2.36480811925017953001 2.36480811925017953001 2.36480811925017953001 2.36480811925017953001 12.53707252724170295721 4.90787422124806038681 2.36480811925017953001 2.36480811925017953001 -7.80745628874134212083 -7.80745628874134212083 -2.72132408474558129541 -0.17825798274770079943 9.99400642524381943588 2.36480811925017953001 -2.72132408474558129541 2.36480811925017953001 -0.17825798274770079943 -2.72132408474558129541 4.90787422124806038681 2.36480811925017953001 -0.17825798274770079943 -0.17825798274770079943 2.36480811925017953001 7.45094032324594124361 -0.17825798274770079943 9.99400642524381943588 -0.17825798274770079943 9.99400642524381943588 4.90787422124806038681 4.90787422124806038681 4.90787422124806038681 -0.17825798274770079943 -7.80745628874134212083 2.36480811925017953001 -2.72132408474558129541 4.90787422124806038681 7.45094032324594124361 7.45094032324594124361 4.90787422124806038681 4.90787422124806038681 4.90787422124806038681 2.36480811925017953001 4.90787422124806038681 2.36480811925017953001 2.36480811925017953001 7.45094032324594124361 7.45094032324594124361 -2.72132408474558129541 -2.72132408474558129541 2.36480811925017953001 -0.17825798274770079943 -0.17825798274770079943 -2.72132408474558129541 -5.26439018674346126403 -0.17825798274770079943 4.90787422124806038681 -0.17825798274770079943 2.36480811925017953001 -2.72132408474558129541 -0.17825798274770079943 -5.26439018674346126403 -0.17825798274770079943 -5.26439018674346126403 -10.35052239073922386581 -7.80745628874134212083 -10.35052239073922386581 -10.35052239073922386581 -2.72132408474558129541 -7.80745628874134212083 -10.35052239073922386581 -7.80745628874134212083 -10.35052239073922386581 -10.35052239073922386581 -2.72132408474558129541 -10.35052239073922386581 -12.89358849273710561079 -10.35052239073922386581 -5.26439018674346126403 -7.80745628874134212083 -7.80745628874134212083 -2.72132408474558129541 -5.26439018674346126403 -10.35052239073922386581 -5.26439018674346126403 -10.35052239073922386581 -10.35052239073922386581 -7.80745628874134212083 -7.80745628874134212083 -5.26439018674346126403 -7.80745628874134212083 -5.26439018674346126403 -2.72132408474558129541 -5.26439018674346126403 -10.35052239073922386581 -5.26439018674346126403 -7.80745628874134212083 -7.80745628874134212083 -0.17825798274770079943 -0.17825798274770079943 2.36480811925017953001 -2.72132408474558129541 -2.72132408474558129541 -0.17825798274770079943 -2.72132408474558129541 -7.80745628874134212083 -5.26439018674346126403 -2.72132408474558129541 -5.26439018674346126403 -2.72132408474558129541 -2.72132408474558129541 -2.72132408474558129541 2.36480811925017953001 7.45094032324594124361 4.90787422124806038681 -0.17825798274770079943 -2.72132408474558129541 7.45094032324594124361 -7.80745628874134212083 -5.26439018674346126403 -5.26439018674346126403 2.36480811925017953001 -2.72132408474558129541 -0.17825798274770079943 -7.80745628874134212083 -0.17825798274770079943 2.36480811925017953001 2.36480811925017953001 -0.17825798274770079943 2.36480811925017953001 4.90787422124806038681 4.90787422124806038681 -0.17825798274770079943 -0.17825798274770079943 -0.17825798274770079943 4.90787422124806038681 -2.72132408474558129541 4.90787422124806038681 -7.80745628874134212083 -0.17825798274770079943 -2.72132408474558129541 2.36480811925017953001 -5.26439018674346126403 -2.72132408474558129541 -2.72132408474558129541 4.90787422124806038681 -0.17825798274770079943 -0.17825798274770079943 2.36480811925017953001 -0.17825798274770079943 -7.80745628874134212083 4.90787422124806038681 -0.17825798274770079943 4.90787422124806038681 7.45094032324594124361 4.90787422124806038681 2.36480811925017953001 -0.17825798274770079943 -10.35052239073922386581 2.36480811925017953001 -2.72132408474558129541 -5.26439018674346126403 2.36480811925017953001 -5.26439018674346126403 -10.35052239073922386581 -7.80745628874134212083 -7.80745628874134212083 -2.72132408474558129541 -7.80745628874134212083 -2.72132408474558129541 4.90787422124806038681 -0.17825798274770079943 -0.17825798274770079943 -5.26439018674346126403 -2.72132408474558129541 2.36480811925017953001 -2.72132408474558129541 -5.26439018674346126403 -7.80745628874134212083 -0.17825798274770079943 -2.72132408474558129541 -5.26439018674346126403 -7.80745628874134212083 -5.26439018674346126403 -2.72132408474558129541 -0.17825798274770079943 -0.17825798274770079943 -10.35052239073922386581 -5.26439018674346126403 -5.26439018674346126403 -0.17825798274770079943 -10.35052239073922386581 -10.35052239073922386581 -7.80745628874134212083 -10.35052239073922386581 -5.26439018674346126403 -0.17825798274770079943 -7.80745628874134212083 -2.72132408474558129541 -2.72132408474558129541 -7.80745628874134212083 -2.72132408474558129541 -5.26439018674346126403 -7.80745628874134212083 -2.72132408474558129541 -2.72132408474558129541 -10.35052239073922386581 -12.89358849273710561079 -2.72132408474558129541 -2.72132408474558129541 -10.35052239073922386581 -2.72132408474558129541 -2.72132408474558129541 -5.26439018674346126403 -7.80745628874134212083 2.36480811925017953001 -10.35052239073922386581 -7.80745628874134212083 -7.80745628874134212083 -2.72132408474558129541 -7.80745628874134212083 -7.80745628874134212083 -7.80745628874134212083 -7.80745628874134212083 -10.35052239073922386581 -7.80745628874134212083 -0.17825798274770079943 -7.80745628874134212083 -7.80745628874134212083 -12.89358849273710561079 -5.26439018674346126403 -5.26439018674346126403 -7.80745628874134212083 -7.80745628874134212083 -5.26439018674346126403 -7.80745628874134212083 -5.26439018674346126403 -7.80745628874134212083 -2.72132408474558129541 -5.26439018674346126403 -2.72132408474558129541 -2.72132408474558129541 -0.17825798274770079943 -0.17825798274770079943 -7.80745628874134212083 -0.17825798274770079943 -7.80745628874134212083 -7.80745628874134212083 -7.80745628874134212083 2.36480811925017953001 2.36480811925017953001 -5.26439018674346126403 -0.17825798274770079943 -10.35052239073922386581 -0.17825798274770079943 -5.26439018674346126403 -0.17825798274770079943 2.36480811925017953001 -2.72132408474558129541 -7.80745628874134212083 -0.17825798274770079943 -0.17825798274770079943 2.36480811925017953001 -2.72132408474558129541 2.36480811925017953001 -5.26439018674346126403 -7.80745628874134212083 4.90787422124806038681 -5.26439018674346126403 -0.17825798274770079943 -0.17825798274770079943 2.36480811925017953001 -0.17825798274770079943 2.36480811925017953001 7.45094032324594124361 2.36480811925017953001 -2.72132408474558129541 -2.72132408474558129541 2.36480811925017953001 -0.17825798274770079943 2.36480811925017953001 2.36480811925017953001 7.45094032324594124361 -7.80745628874134212083 -0.17825798274770079943 -2.72132408474558129541 4.90787422124806038681 4.90787422124806038681 -0.17825798274770079943 -0.17825798274770079943 -5.26439018674346126403 4.90787422124806038681 -2.72132408474558129541 4.90787422124806038681 7.45094032324594124361 -0.17825798274770079943 -0.17825798274770079943 7.45094032324594124361 9.99400642524381943588 2.36480811925017953001 -0.17825798274770079943 4.90787422124806038681 -7.80745628874134212083 2.36480811925017953001 -0.17825798274770079943 2.36480811925017953001 4.90787422124806038681 4.90787422124806038681 2.36480811925017953001 -10.35052239073922386581 -2.72132408474558129541 -0.17825798274770079943 -0.17825798274770079943 2.36480811925017953001 -5.26439018674346126403 4.90787422124806038681 -2.72132408474558129541 -0.17825798274770079943 -0.17825798274770079943 -0.17825798274770079943 2.36480811925017953001 -0.17825798274770079943 -0.17825798274770079943 2.36480811925017953001 2.36480811925017953001 12.53707252724170295721 4.90787422124806038681 -0.17825798274770079943 7.45094032324594124361 4.90787422124806038681 -5.26439018674346126403 2.36480811925017953001 4.90787422124806038681 -5.26439018674346126403 -2.72132408474558129541 2.36480811925017953001 -0.17825798274770079943 -2.72132408474558129541 4.90787422124806038681 9.99400642524381943588 -0.17825798274770079943 -0.17825798274770079943 -7.80745628874134212083 -2.72132408474558129541 9.99400642524381943588 7.45094032324594124361 -2.72132408474558129541 2.36480811925017953001 -2.72132408474558129541 -2.72132408474558129541 2.36480811925017953001 -0.17825798274770079943 4.90787422124806038681 -2.72132408474558129541 -0.17825798274770079943 -2.72132408474558129541 -2.72132408474558129541 -2.72132408474558129541 4.90787422124806038681 -2.72132408474558129541 -5.26439018674346126403 4.90787422124806038681 -0.17825798274770079943 -2.72132408474558129541 -5.26439018674346126403 2.36480811925017953001 -5.26439018674346126403 -2.72132408474558129541 -5.26439018674346126403 -7.80745628874134212083 -0.17825798274770079943 -0.17825798274770079943 -5.26439018674346126403 -2.72132408474558129541 -5.26439018674346126403 4.90787422124806038681 -0.17825798274770079943 2.36480811925017953001 -0.17825798274770079943 -2.72132408474558129541 2.36480811925017953001 -2.72132408474558129541 -2.72132408474558129541 -2.72132408474558129541 -7.80745628874134212083 -0.17825798274770079943 -0.17825798274770079943 -2.72132408474558129541 -0.17825798274770079943 -5.26439018674346126403 -0.17825798274770079943 -2.72132408474558129541 -0.17825798274770079943 -7.80745628874134212083 -5.26439018674346126403 -2.72132408474558129541 -5.26439018674346126403 4.90787422124806038681 -7.80745628874134212083 -0.17825798274770079943 -0.17825798274770079943 -5.26439018674346126403 -7.80745628874134212083 -7.80745628874134212083 -7.80745628874134212083 -0.17825798274770079943 -5.26439018674346126403 -0.17825798274770079943 -5.26439018674346126403 -5.26439018674346126403 -10.35052239073922386581 -0.17825798274770079943 -0.17825798274770079943 -12.89358849273710561079 -5.26439018674346126403 -5.26439018674346126403 -2.72132408474558129541 -5.26439018674346126403 2.36480811925017953001 -10.35052239073922386581 -5.26439018674346126403 -0.17825798274770079943 -5.26439018674346126403 -0.17825798274770079943 -5.26439018674346126403 -5.26439018674346126403 -5.26439018674346126403 -7.80745628874134212083 -5.26439018674346126403 2.36480811925017953001 -0.17825798274770079943 -0.17825798274770079943 -2.72132408474558129541 -0.17825798274770079943 -0.17825798274770079943 -12.89358849273710561079 -2.72132408474558129541 -2.72132408474558129541 -0.17825798274770079943 -0.17825798274770079943 -0.17825798274770079943 -0.17825798274770079943 -2.72132408474558129541 2.36480811925017953001 7.45094032324594124361 -0.17825798274770079943 -2.72132408474558129541 7.45094032324594124361 -0.17825798274770079943 -0.17825798274770079943 7.45094032324594124361 4.90787422124806038681 -5.26439018674346126403 -5.26439018674346126403 -0.17825798274770079943 -5.26439018674346126403 -0.17825798274770079943 2.36480811925017953001 4.90787422124806038681 -2.72132408474558129541 -0.17825798274770079943 -0.17825798274770079943 7.45094032324594124361 4.90787422124806038681 -0.17825798274770079943 2.36480811925017953001 2.36480811925017953001 -2.72132408474558129541 2.36480811925017953001 2.36480811925017953001 4.90787422124806038681 -0.17825798274770079943 -2.72132408474558129541 7.45094032324594124361 7.45094032324594124361 7.45094032324594124361 -2.72132408474558129541 -2.72132408474558129541 -0.17825798274770079943 -5.26439018674346126403 7.45094032324594124361 -0.17825798274770079943 -0.17825798274770079943 2.36480811925017953001 -0.17825798274770079943 7.45094032324594124361 -0.17825798274770079943 -2.72132408474558129541 -2.72132408474558129541 -0.17825798274770079943 -0.17825798274770079943 -0.17825798274770079943 2.36480811925017953001 -2.72132408474558129541 2.36480811925017953001 -2.72132408474558129541 -0.17825798274770079943 -0.17825798274770079943 -0.17825798274770079943 -0.17825798274770079943 2.36480811925017953001 -5.26439018674346126403 2.36480811925017953001 -2.72132408474558129541 2.36480811925017953001 2.36480811925017953001 2.36480811925017953001 -5.26439018674346126403 2.36480811925017953001 -7.80745628874134212083 -5.26439018674346126403 -0.17825798274770079943 -5.26439018674346126403 -2.72132408474558129541 -0.17825798274770079943 -2.72132408474558129541 4.90787422124806038681 -0.17825798274770079943 -5.26439018674346126403 -5.26439018674346126403 -0.17825798274770079943 -2.72132408474558129541 4.90787422124806038681 -0.17825798274770079943 -0.17825798274770079943 -0.17825798274770079943 -0.17825798274770079943 -0.17825798274770079943 -0.17825798274770079943 -0.17825798274770079943 -5.26439018674346126403 -2.72132408474558129541 -5.26439018674346126403 -0.17825798274770079943 -5.26439018674346126403 -7.80745628874134212083 -5.26439018674346126403 -5.26439018674346126403 -7.80745628874134212083 -2.72132408474558129541 -5.26439018674346126403 4.90787422124806038681 -5.26439018674346126403 -7.80745628874134212083 -5.26439018674346126403 -5.26439018674346126403 -5.26439018674346126403 -5.26439018674346126403 -7.80745628874134212083 -0.17825798274770079943 -0.17825798274770079943 -0.17825798274770079943 -5.26439018674346126403 -5.26439018674346126403 -2.72132408474558129541 -2.72132408474558129541 -5.26439018674346126403 -10.35052239073922386581 -5.26439018674346126403 -5.26439018674346126403 -5.26439018674346126403 -10.35052239073922386581 -5.26439018674346126403 -2.72132408474558129541 -7.80745628874134212083 -0.17825798274770079943 -0.17825798274770079943 -0.17825798274770079943 -5.26439018674346126403 -2.72132408474558129541 -5.26439018674346126403 -10.35052239073922386581 -2.72132408474558129541 -0.17825798274770079943 -5.26439018674346126403 -0.17825798274770079943 -2.72132408474558129541 -2.72132408474558129541 -2.72132408474558129541 2.36480811925017953001 2.36480811925017953001 -0.17825798274770079943 -0.17825798274770079943 -5.26439018674346126403 -5.26439018674346126403 -2.72132408474558129541 2.36480811925017953001 2.36480811925017953001 -0.17825798274770079943 -5.26439018674346126403 2.36480811925017953001 2.36480811925017953001 -2.72132408474558129541 -7.80745628874134212083 2.36480811925017953001 -0.17825798274770079943 -5.26439018674346126403 -7.80745628874134212083 -5.26439018674346126403 -7.80745628874134212083 -5.26439018674346126403 -2.72132408474558129541 -7.80745628874134212083 -7.80745628874134212083 -7.80745628874134212083 -2.72132408474558129541 -0.17825798274770079943 -0.17825798274770079943 2.36480811925017953001 -5.26439018674346126403 -2.72132408474558129541 -2.72132408474558129541 -7.80745628874134212083 -7.80745628874134212083 -5.26439018674346126403 -12.89358849273710561079 -2.72132408474558129541 -2.72132408474558129541 -0.17825798274770079943 -2.72132408474558129541 -7.80745628874134212083 -7.80745628874134212083 -5.26439018674346126403 -2.72132408474558129541 -2.72132408474558129541 -0.17825798274770079943 -5.26439018674346126403 -10.35052239073922386581 -5.26439018674346126403 -5.26439018674346126403 -7.80745628874134212083 -5.26439018674346126403 -10.35052239073922386581 -5.26439018674346126403 -5.26439018674346126403 -5.26439018674346126403 4.90787422124806038681 -5.26439018674346126403 -7.80745628874134212083 -10.35052239073922386581 -7.80745628874134212083 -7.80745628874134212083 -10.35052239073922386581 -7.80745628874134212083 -10.35052239073922386581 -10.35052239073922386581 -10.35052239073922386581 -2.72132408474558129541 -2.72132408474558129541 -7.80745628874134212083 -2.72132408474558129541 -2.72132408474558129541 -7.80745628874134212083 -7.80745628874134212083 -7.80745628874134212083 -5.26439018674346126403 -2.72132408474558129541 -15.43665459473498557941 2.36480811925017953001 -2.72132408474558129541 -7.80745628874134212083 -5.26439018674346126403 -10.35052239073922386581 -5.26439018674346126403 -10.35052239073922386581 2.36480811925017953001 -7.80745628874134212083 -10.35052239073922386581 -5.26439018674346126403 -7.80745628874134212083 -7.80745628874134212083 -0.17825798274770079943 -0.17825798274770079943 -7.80745628874134212083 -5.26439018674346126403 -2.72132408474558129541 -2.72132408474558129541 -0.17825798274770079943 -7.80745628874134212083 -12.89358849273710561079 -0.17825798274770079943 -7.80745628874134212083 -5.26439018674346126403 -5.26439018674346126403 -10.35052239073922386581 -7.80745628874134212083 -5.26439018674346126403 -5.26439018674346126403 2.36480811925017953001 -2.72132408474558129541 -0.17825798274770079943 -5.26439018674346126403 -2.72132408474558129541 -2.72132408474558129541 -5.26439018674346126403 -0.17825798274770079943 2.36480811925017953001 4.90787422124806038681 4.90787422124806038681 4.90787422124806038681 4.90787422124806038681 4.90787422124806038681 12.53707252724170295721 2.36480811925017953001 9.99400642524381943588 -0.17825798274770079943 4.90787422124806038681 -0.17825798274770079943 4.90787422124806038681 7.45094032324594124361 12.53707252724170295721 -0.17825798274770079943 4.90787422124806038681 9.99400642524381943588 -2.72132408474558129541 -2.72132408474558129541 -0.17825798274770079943 -5.26439018674346126403 4.90787422124806038681 4.90787422124806038681 -2.72132408474558129541 4.90787422124806038681 9.99400642524381943588 -0.17825798274770079943 7.45094032324594124361 -0.17825798274770079943 2.36480811925017953001 -0.17825798274770079943 7.45094032324594124361 -0.17825798274770079943 2.36480811925017953001 7.45094032324594124361 -0.17825798274770079943 -0.17825798274770079943 -0.17825798274770079943 4.90787422124806038681 -2.72132408474558129541 -7.80745628874134212083 -0.17825798274770079943 2.36480811925017953001 -5.26439018674346126403 4.90787422124806038681 -0.17825798274770079943 -2.72132408474558129541 -0.17825798274770079943 -2.72132408474558129541 -5.26439018674346126403 -5.26439018674346126403 -2.72132408474558129541 -12.89358849273710561079 -10.35052239073922386581 -10.35052239073922386581 -15.43665459473498557941 -12.89358849273710561079 -15.43665459473498557941 -12.89358849273710561079 -15.43665459473498557941 -7.80745628874134212083 -12.89358849273710561079 -10.35052239073922386581 -7.80745628874134212083 -15.43665459473498557941 -2.72132408474558129541 -10.35052239073922386581 -7.80745628874134212083 -5.26439018674346126403 -5.26439018674346126403 -12.89358849273710561079 -10.35052239073922386581 -5.26439018674346126403 -7.80745628874134212083 -10.35052239073922386581 -7.80745628874134212083 -7.80745628874134212083 -12.89358849273710561079 -7.80745628874134212083 -7.80745628874134212083 -10.35052239073922386581 -7.80745628874134212083 -15.43665459473498557941 -5.26439018674346126403 -5.26439018674346126403 -10.35052239073922386581 -7.80745628874134212083 -7.80745628874134212083 -7.80745628874134212083 -10.35052239073922386581 -7.80745628874134212083 -10.35052239073922386581 -12.89358849273710561079 -12.89358849273710561079 -12.89358849273710561079 -5.26439018674346126403 -10.35052239073922386581 -10.35052239073922386581 -7.80745628874134212083 -5.26439018674346126403 -12.89358849273710561079 2.36480811925017953001 -2.72132408474558129541 -7.80745628874134212083 -7.80745628874134212083 -10.35052239073922386581 -5.26439018674346126403 -12.89358849273710561079 -2.72132408474558129541 -7.80745628874134212083 -7.80745628874134212083 -5.26439018674346126403 -10.35052239073922386581 -5.26439018674346126403 -7.80745628874134212083 -12.89358849273710561079 -7.80745628874134212083 -5.26439018674346126403 -7.80745628874134212083 -7.80745628874134212083 -7.80745628874134212083 -12.89358849273710561079 -7.80745628874134212083 -7.80745628874134212083 -7.80745628874134212083 -0.17825798274770079943 -5.26439018674346126403 -7.80745628874134212083 -10.35052239073922386581 -5.26439018674346126403 -5.26439018674346126403 -2.72132408474558129541 -7.80745628874134212083 -7.80745628874134212083 -10.35052239073922386581 -10.35052239073922386581 -2.72132408474558129541 -7.80745628874134212083 -10.35052239073922386581 -2.72132408474558129541 -7.80745628874134212083 -10.35052239073922386581 -7.80745628874134212083 -5.26439018674346126403 -12.89358849273710561079 -5.26439018674346126403 -0.17825798274770079943 -7.80745628874134212083 -7.80745628874134212083 -12.89358849273710561079 -10.35052239073922386581 -10.35052239073922386581 -7.80745628874134212083 -10.35052239073922386581 -10.35052239073922386581 -15.43665459473498557941 -7.80745628874134212083 -15.43665459473498557941 -5.26439018674346126403 -7.80745628874134212083 -7.80745628874134212083 -15.43665459473498557941 -10.35052239073922386581 -10.35052239073922386581 -0.17825798274770079943 -12.89358849273710561079 -10.35052239073922386581 -15.43665459473498557941 -10.35052239073922386581 -12.89358849273710561079 -7.80745628874134212083 -12.89358849273710561079 -10.35052239073922386581 -12.89358849273710561079 -17.97972069673286554803 -12.89358849273710561079 -10.35052239073922386581 -10.35052239073922386581 -12.89358849273710561079 -12.89358849273710561079 -7.80745628874134212083 -5.26439018674346126403 -12.89358849273710561079 -15.43665459473498557941 -10.35052239073922386581 -20.52278679873074551665 -10.35052239073922386581 -7.80745628874134212083 -7.80745628874134212083 -7.80745628874134212083 -12.89358849273710561079 -7.80745628874134212083 -10.35052239073922386581 -12.89358849273710561079 -12.89358849273710561079 -10.35052239073922386581 -12.89358849273710561079 -12.89358849273710561079 -15.43665459473498557941 -10.35052239073922386581 -12.89358849273710561079 -5.26439018674346126403 -12.89358849273710561079 -12.89358849273710561079 -10.35052239073922386581 -17.97972069673286554803 -7.80745628874134212083 -10.35052239073922386581 -12.89358849273710561079 -10.35052239073922386581 -17.97972069673286554803 -12.89358849273710561079 -7.80745628874134212083 -10.35052239073922386581 -12.89358849273710561079 -10.35052239073922386581 -7.80745628874134212083 -5.26439018674346126403 -10.35052239073922386581 -10.35052239073922386581 -15.43665459473498557941 -5.26439018674346126403 -12.89358849273710561079 -10.35052239073922386581 -5.26439018674346126403 -15.43665459473498557941 -5.26439018674346126403 -2.72132408474558129541 -5.26439018674346126403 -10.35052239073922386581 -10.35052239073922386581 -2.72132408474558129541 -5.26439018674346126403 -7.80745628874134212083 -10.35052239073922386581 -2.72132408474558129541 -10.35052239073922386581 -12.89358849273710561079 -5.26439018674346126403 -5.26439018674346126403 -10.35052239073922386581 -7.80745628874134212083 -0.17825798274770079943 -10.35052239073922386581 -7.80745628874134212083 -7.80745628874134212083 -2.72132408474558129541 -5.26439018674346126403 -7.80745628874134212083 -2.72132408474558129541 -7.80745628874134212083 -5.26439018674346126403 -2.72132408474558129541 -7.80745628874134212083 -5.26439018674346126403 -7.80745628874134212083 -5.26439018674346126403 -5.26439018674346126403 -2.72132408474558129541 -2.72132408474558129541 -7.80745628874134212083 -12.89358849273710561079 -2.72132408474558129541 -7.80745628874134212083 -7.80745628874134212083 -0.17825798274770079943 -5.26439018674346126403 -5.26439018674346126403 -2.72132408474558129541 -5.26439018674346126403 -2.72132408474558129541 -2.72132408474558129541 -5.26439018674346126403 -2.72132408474558129541 -2.72132408474558129541 -7.80745628874134212083 -10.35052239073922386581 -2.72132408474558129541 -7.80745628874134212083 -2.72132408474558129541 -7.80745628874134212083 -0.17825798274770079943 -7.80745628874134212083 -10.35052239073922386581 -5.26439018674346126403 -2.72132408474558129541 -5.26439018674346126403 -10.35052239073922386581 -10.35052239073922386581 -5.26439018674346126403 -5.26439018674346126403 -0.17825798274770079943 -2.72132408474558129541 -2.72132408474558129541 -7.80745628874134212083 -2.72132408474558129541 -7.80745628874134212083 -5.26439018674346126403 2.36480811925017953001 -15.43665459473498557941 -7.80745628874134212083 -7.80745628874134212083 -7.80745628874134212083 -5.26439018674346126403 -5.26439018674346126403 4.90787422124806038681 -7.80745628874134212083 -7.80745628874134212083 -7.80745628874134212083 -10.35052239073922386581 -2.72132408474558129541 -5.26439018674346126403 -2.72132408474558129541 -5.26439018674346126403 -5.26439018674346126403 -10.35052239073922386581 -5.26439018674346126403 -0.17825798274770079943 2.36480811925017953001 -7.80745628874134212083 -5.26439018674346126403 -7.80745628874134212083 -10.35052239073922386581 -2.72132408474558129541 -5.26439018674346126403 -7.80745628874134212083 -7.80745628874134212083 -5.26439018674346126403 -10.35052239073922386581 -10.35052239073922386581 -10.35052239073922386581 -5.26439018674346126403 -5.26439018674346126403 -7.80745628874134212083 -10.35052239073922386581 -10.35052239073922386581 -17.97972069673286554803 -12.89358849273710561079 -15.43665459473498557941 -0.17825798274770079943 -7.80745628874134212083 -5.26439018674346126403 -7.80745628874134212083 -10.35052239073922386581 -5.26439018674346126403 -5.26439018674346126403 -10.35052239073922386581 -7.80745628874134212083 -10.35052239073922386581 -12.89358849273710561079 -7.80745628874134212083 -7.80745628874134212083 -10.35052239073922386581 -7.80745628874134212083 -10.35052239073922386581 -10.35052239073922386581 -12.89358849273710561079 -15.43665459473498557941 -7.80745628874134212083 -10.35052239073922386581 -5.26439018674346126403 -10.35052239073922386581 -12.89358849273710561079 -5.26439018674346126403 -10.35052239073922386581 -10.35052239073922386581 -7.80745628874134212083 -12.89358849273710561079 -7.80745628874134212083 -5.26439018674346126403 -12.89358849273710561079 -10.35052239073922386581 -10.35052239073922386581 -15.43665459473498557941 -5.26439018674346126403 -10.35052239073922386581 -12.89358849273710561079 -15.43665459473498557941 -7.80745628874134212083 -15.43665459473498557941 -7.80745628874134212083 -17.97972069673286554803 -10.35052239073922386581 -15.43665459473498557941 -15.43665459473498557941 -10.35052239073922386581 -7.80745628874134212083 -12.89358849273710561079 -7.80745628874134212083 -12.89358849273710561079 -10.35052239073922386581 -10.35052239073922386581 -10.35052239073922386581 -12.89358849273710561079 -15.43665459473498557941 -12.89358849273710561079 -15.43665459473498557941 -15.43665459473498557941 -15.43665459473498557941 -17.97972069673286554803 -15.43665459473498557941 -20.52278679873074551665 -7.80745628874134212083 -12.89358849273710561079 -12.89358849273710561079 -10.35052239073922386581 -12.89358849273710561079 -10.35052239073922386581 -12.89358849273710561079 -12.89358849273710561079 -12.89358849273710561079 -7.80745628874134212083 -7.80745628874134212083 -17.97972069673286554803 -12.89358849273710561079 -5.26439018674346126403 -2.72132408474558129541 -7.80745628874134212083 -7.80745628874134212083 -15.43665459473498557941 -12.89358849273710561079 -12.89358849273710561079 -17.97972069673286554803 -10.35052239073922386581 -12.89358849273710561079 -15.43665459473498557941 -10.35052239073922386581 -10.35052239073922386581 -12.89358849273710561079 -7.80745628874134212083 -15.43665459473498557941 -12.89358849273710561079 -15.43665459473498557941 -12.89358849273710561079 -10.35052239073922386581 -15.43665459473498557941 -17.97972069673286554803 -15.43665459473498557941 -15.43665459473498557941 -15.43665459473498557941 -15.43665459473498557941 -17.97972069673286554803 -15.43665459473498557941 -10.35052239073922386581 -12.89358849273710561079 -7.80745628874134212083 -10.35052239073922386581 -7.80745628874134212083 -15.43665459473498557941 -12.89358849273710561079 -7.80745628874134212083 -12.89358849273710561079 -7.80745628874134212083 -10.35052239073922386581 -17.97972069673286554803 -12.89358849273710561079 -15.43665459473498557941 -12.89358849273710561079 -12.89358849273710561079 -7.80745628874134212083 -10.35052239073922386581 -10.35052239073922386581 -7.80745628874134212083 -2.72132408474558129541 -0.17825798274770079943 -7.80745628874134212083 -5.26439018674346126403 -5.26439018674346126403 -12.89358849273710561079 -5.26439018674346126403 -5.26439018674346126403 -2.72132408474558129541 -0.17825798274770079943 -0.17825798274770079943 -0.17825798274770079943 -5.26439018674346126403 4.90787422124806038681 -0.17825798274770079943 4.90787422124806038681 2.36480811925017953001 -0.17825798274770079943 7.45094032324594124361 2.36480811925017953001 -0.17825798274770079943 2.36480811925017953001 2.36480811925017953001 9.99400642524381943588 4.90787422124806038681 2.36480811925017953001 2.36480811925017953001 -0.17825798274770079943 4.90787422124806038681 -2.72132408474558129541 4.90787422124806038681 -2.72132408474558129541 7.45094032324594124361 7.45094032324594124361 -2.72132408474558129541 -2.72132408474558129541 -2.72132408474558129541 -2.72132408474558129541 -0.17825798274770079943 -10.35052239073922386581 -5.26439018674346126403 4.90787422124806038681 2.36480811925017953001 -0.17825798274770079943 7.45094032324594124361 -2.72132408474558129541 7.45094032324594124361 -7.80745628874134212083 4.90787422124806038681 -0.17825798274770079943 -2.72132408474558129541 -5.26439018674346126403 -2.72132408474558129541 -2.72132408474558129541 -7.80745628874134212083 -0.17825798274770079943 -7.80745628874134212083 -0.17825798274770079943 -0.17825798274770079943 -0.17825798274770079943 -10.35052239073922386581 -7.80745628874134212083 -5.26439018674346126403 -2.72132408474558129541 -5.26439018674346126403 -10.35052239073922386581 -0.17825798274770079943 -12.89358849273710561079 -2.72132408474558129541 -0.17825798274770079943 -5.26439018674346126403 -2.72132408474558129541 -0.17825798274770079943 -5.26439018674346126403 -17.97972069673286554803 -10.35052239073922386581 -15.43665459473498557941 -2.72132408474558129541 -12.89358849273710561079 -15.43665459473498557941 -12.89358849273710561079 -12.89358849273710561079 -12.89358849273710561079 -7.80745628874134212083 -12.89358849273710561079 -12.89358849273710561079 -10.35052239073922386581 -12.89358849273710561079 -10.35052239073922386581 -10.35052239073922386581 -7.80745628874134212083 -5.26439018674346126403 -7.80745628874134212083 -12.89358849273710561079 -5.26439018674346126403 -10.35052239073922386581 -17.97972069673286554803 -7.80745628874134212083 -2.72132408474558129541 -5.26439018674346126403 -10.35052239073922386581 -5.26439018674346126403 -7.80745628874134212083 -5.26439018674346126403 -12.89358849273710561079 -5.26439018674346126403 -12.89358849273710561079 -2.72132408474558129541 -10.35052239073922386581 -12.89358849273710561079 -7.80745628874134212083 -5.26439018674346126403 -10.35052239073922386581 -5.26439018674346126403 -7.80745628874134212083 -10.35052239073922386581 -5.26439018674346126403 -7.80745628874134212083 -7.80745628874134212083 -7.80745628874134212083 -12.89358849273710561079 -2.72132408474558129541 -10.35052239073922386581 -12.89358849273710561079 -0.17825798274770079943 -2.72132408474558129541 -0.17825798274770079943 -2.72132408474558129541 -5.26439018674346126403 -5.26439018674346126403 -5.26439018674346126403 -10.35052239073922386581 -2.72132408474558129541 -5.26439018674346126403 -7.80745628874134212083 -5.26439018674346126403 -7.80745628874134212083 -2.72132408474558129541 -7.80745628874134212083 -5.26439018674346126403 -0.17825798274770079943 -2.72132408474558129541 -7.80745628874134212083 -7.80745628874134212083 -5.26439018674346126403 -2.72132408474558129541 -2.72132408474558129541 -10.35052239073922386581 -7.80745628874134212083 -5.26439018674346126403 -2.72132408474558129541 -0.17825798274770079943 -5.26439018674346126403 -12.89358849273710561079 -5.26439018674346126403 -7.80745628874134212083 -5.26439018674346126403 -7.80745628874134212083 -5.26439018674346126403 -2.72132408474558129541 -2.72132408474558129541 -5.26439018674346126403 -5.26439018674346126403 -10.35052239073922386581 -2.72132408474558129541 -7.80745628874134212083 -2.72132408474558129541 -5.26439018674346126403 -7.80745628874134212083 -5.26439018674346126403 -2.72132408474558129541 -10.35052239073922386581 -2.72132408474558129541 -5.26439018674346126403 -5.26439018674346126403 -10.35052239073922386581 -7.80745628874134212083 -5.26439018674346126403 -0.17825798274770079943 -10.35052239073922386581 -7.80745628874134212083 -7.80745628874134212083 -5.26439018674346126403 -5.26439018674346126403 -2.72132408474558129541 -7.80745628874134212083 -2.72132408474558129541 -10.35052239073922386581 -0.17825798274770079943 -7.80745628874134212083 -7.80745628874134212083 -10.35052239073922386581 -5.26439018674346126403 -5.26439018674346126403 -2.72132408474558129541 -5.26439018674346126403 -7.80745628874134212083 -12.89358849273710561079 -2.72132408474558129541 -10.35052239073922386581 -2.72132408474558129541 -5.26439018674346126403 -2.72132408474558129541 -2.72132408474558129541 -5.26439018674346126403 2.36480811925017953001 -10.35052239073922386581 -5.26439018674346126403 -10.35052239073922386581 -2.72132408474558129541 -2.72132408474558129541 -7.80745628874134212083 -12.89358849273710561079 -7.80745628874134212083 -5.26439018674346126403 -0.17825798274770079943 -5.26439018674346126403 -0.17825798274770079943 -5.26439018674346126403 -7.80745628874134212083 -2.72132408474558129541 -0.17825798274770079943 -7.80745628874134212083 2.36480811925017953001 -5.26439018674346126403 -5.26439018674346126403 -2.72132408474558129541 -0.17825798274770079943 -10.35052239073922386581 -5.26439018674346126403 -5.26439018674346126403 2.36480811925017953001 -2.72132408474558129541 2.36480811925017953001 -2.72132408474558129541 -0.17825798274770079943 -0.17825798274770079943 -7.80745628874134212083 -0.17825798274770079943 -5.26439018674346126403 2.36480811925017953001 -7.80745628874134212083 -0.17825798274770079943 -5.26439018674346126403 -5.26439018674346126403 -0.17825798274770079943 -0.17825798274770079943 -2.72132408474558129541 -7.80745628874134212083 -2.72132408474558129541 -0.17825798274770079943 -7.80745628874134212083 -2.72132408474558129541 2.36480811925017953001 -0.17825798274770079943 -12.89358849273710561079 2.36480811925017953001 -0.17825798274770079943 -5.26439018674346126403 2.36480811925017953001 -7.80745628874134212083 -0.17825798274770079943 -2.72132408474558129541 2.36480811925017953001 -5.26439018674346126403 -7.80745628874134212083 -5.26439018674346126403 -5.26439018674346126403 -5.26439018674346126403 -2.72132408474558129541 -2.72132408474558129541 2.36480811925017953001 -0.17825798274770079943 -2.72132408474558129541 -2.72132408474558129541 -0.17825798274770079943 -10.35052239073922386581 -7.80745628874134212083 -7.80745628874134212083 -2.72132408474558129541 -7.80745628874134212083 -2.72132408474558129541 -10.35052239073922386581 -5.26439018674346126403 -0.17825798274770079943 -2.72132408474558129541 -5.26439018674346126403 -0.17825798274770079943 -10.35052239073922386581 -7.80745628874134212083 -7.80745628874134212083 -7.80745628874134212083 -7.80745628874134212083 -2.72132408474558129541 2.36480811925017953001 -2.72132408474558129541 -2.72132408474558129541 -10.35052239073922386581 -10.35052239073922386581 -10.35052239073922386581 -5.26439018674346126403 -10.35052239073922386581 -5.26439018674346126403 -0.17825798274770079943 -0.17825798274770079943 -7.80745628874134212083 -5.26439018674346126403 -7.80745628874134212083 -5.26439018674346126403 -5.26439018674346126403 -0.17825798274770079943 -2.72132408474558129541 -5.26439018674346126403 -2.72132408474558129541 -0.17825798274770079943 -10.35052239073922386581 -5.26439018674346126403 -0.17825798274770079943 -0.17825798274770079943 4.90787422124806038681 -5.26439018674346126403 2.36480811925017953001 -5.26439018674346126403 -5.26439018674346126403 -0.17825798274770079943 -5.26439018674346126403 -0.17825798274770079943 -0.17825798274770079943 -5.26439018674346126403 -0.17825798274770079943 -2.72132408474558129541 -7.80745628874134212083 2.36480811925017953001 2.36480811925017953001 2.36480811925017953001 4.90787422124806038681 2.36480811925017953001 -0.17825798274770079943 -2.72132408474558129541 -0.17825798274770079943 -7.80745628874134212083 -0.17825798274770079943 2.36480811925017953001 2.36480811925017953001 -0.17825798274770079943 -0.17825798274770079943 -5.26439018674346126403 -2.72132408474558129541 -7.80745628874134212083 -2.72132408474558129541 2.36480811925017953001 -2.72132408474558129541 7.45094032324594124361 -0.17825798274770079943 -0.17825798274770079943 -0.17825798274770079943 -2.72132408474558129541 -2.72132408474558129541 -2.72132408474558129541 -5.26439018674346126403 2.36480811925017953001 -0.17825798274770079943 -0.17825798274770079943 -5.26439018674346126403 -0.17825798274770079943 -2.72132408474558129541 -7.80745628874134212083 -7.80745628874134212083 4.90787422124806038681 -0.17825798274770079943 -0.17825798274770079943 -5.26439018674346126403 -0.17825798274770079943 -0.17825798274770079943 2.36480811925017953001 -0.17825798274770079943 4.90787422124806038681 -0.17825798274770079943 2.36480811925017953001 -2.72132408474558129541 -5.26439018674346126403 4.90787422124806038681 -5.26439018674346126403 -2.72132408474558129541 -0.17825798274770079943 -2.72132408474558129541 -5.26439018674346126403 7.45094032324594124361 -5.26439018674346126403 4.90787422124806038681 -2.72132408474558129541 2.36480811925017953001 4.90787422124806038681 7.45094032324594124361 -0.17825798274770079943 2.36480811925017953001 -2.72132408474558129541 4.90787422124806038681 7.45094032324594124361 2.36480811925017953001 4.90787422124806038681 2.36480811925017953001 -5.26439018674346126403 7.45094032324594124361 -2.72132408474558129541 -0.17825798274770079943 4.90787422124806038681 -2.72132408474558129541 4.90787422124806038681 -2.72132408474558129541 -2.72132408474558129541 -5.26439018674346126403 4.90787422124806038681 -2.72132408474558129541 2.36480811925017953001 2.36480811925017953001 2.36480811925017953001 4.90787422124806038681 -2.72132408474558129541 -2.72132408474558129541 -0.17825798274770079943 -2.72132408474558129541 2.36480811925017953001 -0.17825798274770079943 2.36480811925017953001 -2.72132408474558129541 -0.17825798274770079943 -0.17825798274770079943 -0.17825798274770079943 -0.17825798274770079943 -2.72132408474558129541 -7.80745628874134212083 -2.72132408474558129541 -0.17825798274770079943 -2.72132408474558129541 -5.26439018674346126403 2.36480811925017953001 -2.72132408474558129541 -7.80745628874134212083 -5.26439018674346126403 2.36480811925017953001 -5.26439018674346126403 -0.17825798274770079943 -2.72132408474558129541 -0.17825798274770079943 -0.17825798274770079943 -2.72132408474558129541 -0.17825798274770079943 -7.80745628874134212083 2.36480811925017953001 -5.26439018674346126403 -2.72132408474558129541 -0.17825798274770079943 -5.26439018674346126403 -12.89358849273710561079 -7.80745628874134212083 -2.72132408474558129541 -0.17825798274770079943 -2.72132408474558129541 -5.26439018674346126403 -10.35052239073922386581 2.36480811925017953001 -0.17825798274770079943 -2.72132408474558129541 -7.80745628874134212083 -7.80745628874134212083 -5.26439018674346126403 -2.72132408474558129541 2.36480811925017953001 -7.80745628874134212083 -7.80745628874134212083 -10.35052239073922386581 -0.17825798274770079943 -2.72132408474558129541 -10.35052239073922386581 -2.72132408474558129541 -7.80745628874134212083 -7.80745628874134212083 -5.26439018674346126403 -7.80745628874134212083 -2.72132408474558129541 -5.26439018674346126403 -5.26439018674346126403 -7.80745628874134212083 -2.72132408474558129541 -0.17825798274770079943 -2.72132408474558129541 -5.26439018674346126403 4.90787422124806038681 2.36480811925017953001 -10.35052239073922386581 -0.17825798274770079943 -7.80745628874134212083 2.36480811925017953001 -5.26439018674346126403 -0.17825798274770079943 -0.17825798274770079943 -7.80745628874134212083 -5.26439018674346126403 -2.72132408474558129541 -5.26439018674346126403 -0.17825798274770079943 -2.72132408474558129541 2.36480811925017953001 -0.17825798274770079943 7.45094032324594124361 -2.72132408474558129541 -0.17825798274770079943 -0.17825798274770079943 -0.17825798274770079943 