0.540837 0.353696 2.718361 -7.623858 -2.699523 -5.396521 -0.456748 4.490308 -0.727910 -2.480636 -1.821386 1.305261 3.080960 1.929985 1.349680 -1.482956 -0.841689 -5.727750 2.595859 -6.278358 2.335214 11.707095 2.480265 2.801833 7.652507 6.678824 -0.012636 -0.511780 11.752752 1.287866 6.547905 8.000309 4.442303 1.290162 6.190430 4.854974 0.894839 5.736619 4.822695 11.803953 -2.743144 0.994196 -2.074964 5.866792 -3.283946 -2.700693 -2.284892 6.173364 -2.069598 9.122107 -7.668965 2.062133 -1.105937 -8.086035 -2.084168 0.441180 -1.775100 -8.813939 -9.018234 0.470023 -9.973769 4.757625 -6.553574 8.122419 4.395590 2.393653 14.979375 2.175990 -2.763397 -5.427580 -4.756500 5.341685 3.593823 -1.655371 -8.492560 -0.877162 7.316850 -4.424955 -14.084550 0.766045 3.139038 -2.056876 -1.471594 -0.813935 2.197121 2.103311 2.070197 1.324070 -4.154492 -5.667461 2.835245 -5.650749 -4.768497 3.483916 0.720569 -4.088295 -0.505544 2.398585 -0.744141 4.368031 -3.999234 -3.224642 -5.370413 5.919731 4.398811 3.668849 -6.809386 -5.005139 -1.577982 0.880763 -0.037138 -2.979222 0.411371 -4.145106 -0.276190 -0.429946 -5.719088 -5.062518 3.300090 -2.263260 10.980398 -3.543618 8.123923 3.873514 -3.796259 1.387364 -4.669935 6.109170 1.632513 1.929635 -3.395908 -4.892217 -3.829282 3.956808 -2.370367 5.481695 4.604211 -2.790585 5.752326 -2.843605 -4.934148 -2.615024 2.702736 7.008758 -4.326301 -0.098059 0.103746 3.020013 -2.929977 -0.228800 -3.147712 5.081726 -0.706621 -10.292664 6.602266 -2.341424 -6.613595 1.568719 6.635821 -2.011588 3.577887 13.709529 3.863662 8.401256 -3.072861 -4.901795 5.032051 -3.864540 -3.483599 1.450697 2.006335 -5.439991 1.029762 -1.363870 6.360458 -0.124183 -4.594091 -1.353678 -1.032968 1.895514 6.253697 -2.299689 1.055084 1.100700 4.084510 -4.628572 -3.962843 -1.019247 1.568465 1.383055 -6.228797 -4.753679 -1.314647 -3.406949 4.641621 3.552473 11.103305 -3.136185 -1.437142 -1.333895 -6.503721 6.438445 -0.683494 7.524895 3.713897 -8.081207 -1.108734 1.092671 5.752673 -9.097001 -2.144158 -1.644893 -0.768742 -8.104910 0.960088 -4.626999 1.427624 -1.265129 -0.470049 -3.017173 0.274644 0.350948 0.070289 5.005620 -5.973263 2.991987 2.238479 -0.339308 6.898251 -7.070732 -0.327310 -6.050052 -4.550649 0.522132 5.202822 -0.427509 2.481937 -2.303306 1.171953 0.432813 0.130960 -0.501332 -3.221373 2.713658 9.911056 -1.689043 -3.647852 1.947733 -0.800627 -1.128060 -3.992154 4.364276 3.316906 -1.693742 1.602832 3.884905 -1.785458 0.854955 -4.596395 -1.338387 0.935585 -1.467127 1.384211 -3.952730 -2.699136 5.265823 1.877821 -6.011222 -0.071585 2.693672 4.851364 8.889913 7.719552 9.240209 2.840627 -2.131011 -2.264159 -0.219042 -0.979010 -3.915654 -3.093570 -4.635037 -3.255977 -2.398654 -4.442267 -1.255305 4.052257 -3.867178 4.831389 1.579581 -0.632690 -0.850760 -3.179564 2.257897 -1.291314 1.772862 1.352978 1.487532 -0.995637 -3.245123 -5.302529 2.829606 1.956055 -3.373717 2.396658 -0.128105 2.931700 -7.949641 8.881220 -1.020769 2.002565 -1.137679 -2.913354 5.070477 6.475101 5.712700 1.912456 4.548490 1.585991 -3.839699 -0.998185 1.063888 0.484693 2.900565 5.415630 2.522214 2.549148 -0.082599 -2.613226 -2.712546 -2.625419 -4.965345 -4.228946 1.833859 -3.166914 -4.657911 9.121278 -2.334654 3.559937 -2.409619 3.837437 0.025301 -2.341056 -9.576780 -0.658071 -3.290033 -2.563686 5.315556 2.309505 -7.560662 -10.927909 1.403779 5.499818 -6.221382 -2.509759 -4.365734 -5.395426 -4.415425 1.381319 -4.518002 1.080001 6.395368 -1.622708 -1.137466 4.150612 0.924495 -7.469359 3.662409 -2.332948 -2.030853 -4.479005 6.971099 2.873442 -2.478568 -1.745823 1.044272 0.616782 -4.919915 0.827088 -4.840096 6.285611 5.143864 2.286607 6.913375 3.410299 -6.947220 -6.329468 -5.845143 -0.551483 -1.420641 -0.858236 4.803685 -2.948215 -6.542375 -8.104207 2.999541 6.530140 7.633366 -8.563208 -3.641804 -0.208283 7.586731 -2.379259 0.050583 7.390419 9.187684 -1.851044 -1.267155 3.633368 2.460278 4.086678 5.676952 -10.501866 6.786740 -2.078018 -1.099886 -2.113308 -1.529795 3.858038 3.016081 -1.711553 1.097050 0.915458 -4.018758 -3.721657 4.253298 8.395896 -0.612940 -2.362760 -1.552108 -1.162626 6.288502 -0.368732 7.269333 -1.803680 9.818573 -4.525003 1.784226 0.662079 8.030851 -6.438494 7.624585 1.271350 -3.372670 -5.521432 -6.961940 4.050427 -2.557772 1.082278 3.451417 -3.963944 -2.521799 -4.716639 -6.434578 1.365764 -1.765670 -3.535807 -5.412690 -3.685385 -0.278115 -3.008095 -2.492610 -4.898964 -1.346602 -3.528623 -5.294497 0.547446 0.276458 5.479692 7.072494 3.833536 0.867264 3.287356 5.122503 -4.055310 6.239788 2.047634 -3.146718 -10.429151 -3.305043 -5.731112 -0.216287 -5.552513 0.832616 3.337295 1.129903 3.964437 0.638670 0.562014 2.475978 -0.688779 -0.818340 -3.691533 -0.396386 1.986641 4.188859 -9.144674 -4.832478 0.861911 -1.797215 0.620649 2.839272 2.805590 -2.565892 0.991571 0.820015 -10.023461 1.377210 -1.942654 -1.430296 0.967553 -3.603218 -2.583615 -2.453009 3.367112 -5.378138 0.469190 2.859747 2.683664 -5.389068 -1.727232 11.092945 -6.428010 -2.639348 -0.167749 0.196528 -2.894704 5.209869 -3.144360 -0.252689 2.335452 5.035041 -3.928940 6.806962 5.595561 -0.310356 2.067749 1.823113 -6.220694 -5.761020 0.067734 -0.292890 -0.655822 7.453003 -5.938626 0.720919 3.006970 -2.276645 -5.265719 -2.311284 5.834651 4.444844 4.169534 6.475930 8.191661 -5.629193 0.418845 -0.534635 1.519973 -2.194208 3.431591 -7.069062 2.184117 9.550682 5.729648 -3.120577 -5.014616 1.231768 0.491341 0.023974 2.179286 -5.910995 3.255262 5.518269 0.021692 4.717787 3.797475 -1.457466 -1.516474 -1.234420 1.306496 -4.679123 1.416894 1.133134 6.363788 -2.087577 -1.153455 6.583649 0.295245 -2.275149 -2.315785 0.753342 -2.160074 8.437793 2.079669 -2.991215 2.719879 7.812352 -1.146001 1.167941 -1.651816 -3.791871 6.675816 0.577284 3.325513 2.376142 2.920385 2.654951 7.197096 -4.092635 6.567383 5.070428 -5.361923 -2.147346 -1.851750 -3.789357 3.827868 -9.319054 3.015584 -3.003134 3.899044 -4.608071 -6.012322 2.691501 -0.600011 -7.736740 0.962285 -4.131961 4.626447 3.569471 11.442005 1.788260 -8.084578 -3.783793 8.965105 1.608307 -4.319847 1.458447 -0.669615 -2.538368 -2.012558 0.814667 5.077328 -3.494715 5.505493 -0.535205 -2.429417 2.825287 -5.391726 0.516360 -2.888028 0.763532 0.409777 -6.988175 2.312091 4.111554 1.303501 0.906720 -1.603538 -3.503562 4.400087 3.571607 2.870773 -3.002434 -4.407753 -3.494797 -0.599117 -0.841748 1.417526 -1.306001 2.114062 2.210629 -0.267734 -0.322373 -5.649046 -2.264258 0.166491 0.155739 0.120271 -7.296333 -2.918573 -2.528352 0.536399 -2.535023 0.397679 -2.002978 3.840329 5.949987 2.608756 12.281965 -0.054142 3.078567 1.941499 -5.906908 -0.512850 -1.333887 1.671615 0.896342 1.428554 1.849993 1.708257 1.759171 -8.906761 -0.013909 1.937076 6.784014 0.362497 1.023144 -3.712755 -0.241815 2.157169 3.825521 -4.979168 3.651721 -6.825647 -4.968655 0.479210 2.906332 2.128835 -3.328276 -4.359409 4.145497 5.977326 7.561677 0.833657 -3.968261 -0.502446 -3.013052 -5.348917 -0.296598 -5.652653 -1.790132 1.292517 -0.596155 -0.314404 -2.755874 10.789272 0.891053 3.752214 -2.172271 -3.917675 4.049988 2.915296 -2.655732 -2.694259 5.810625 2.666427 -0.151451 -0.010792 2.546788 -3.164977 0.009115 -5.238911 0.632255 0.198405 0.672188 3.237602 -7.245021 -2.888846 2.342546 -3.036765 7.312685 -1.828379 -0.496324 -8.210974 -3.575582 -0.925825 -6.558535 7.194569 5.766375 0.850996 -3.821168 -5.009052 -1.761709 -7.663849 -6.832518 1.209351 1.065083 1.748553 2.173913 2.612496 12.400742 -2.610950 -12.107535 1.712956 -1.673438 0.899257 5.043925 -2.654624 0.814794 -1.554922 -2.942986 1.599062 0.592111 -4.539126 -1.459021 -5.928224 -2.043059 -4.728997 3.853206 -2.308361 0.943588 3.542290 3.364371 -2.221087 -1.974336 8.283103 8.867292 2.243168 -3.071199 -7.426330 -3.736147 -3.822376 1.255092 7.835444 -5.953644 -6.257421 0.365854 -4.429816 0.663094 4.633041 -3.608215 -8.048408 4.004308 -1.342619 -1.479473 5.754494 2.473059 2.106373 1.851778 -0.362666 1.713031 0.868600 0.687972 5.113287 -0.846827 -5.344181 0.522480 -2.151377 -7.079408 1.190578 -6.670351 -0.175743 -0.400191 -4.517456 8.850490 4.639805 4.739894 -4.114113 4.786874 1.030255 5.578581 4.152548 0.852867 3.313629 -4.614199 -0.867068 6.130189 4.866989 1.430862 3.899000 -6.209475 -4.848208 -1.964447 3.188186 1.816645 -0.908823 -4.967803 -0.960276 -0.493008 -0.448158 -0.949459 1.600063 9.190118 -4.627560 -5.567037 0.197815 0.086671 -0.433835 4.302650 1.356351 1.490619 -0.744069 2.560363 1.597890 3.536753 -4.857509 -3.960831 -3.406893 -0.144703 -5.458622 5.633639 -5.524000 -1.303780 -1.116400 -0.354706 1.900557 1.274327 3.963349 -1.957274 1.388094 1.124370 -6.808641 1.666148 -1.711716 -6.279588 9.682149 0.603456 -6.307842 -0.526729 -2.490981 0.233592 4.316808 -1.143276 -3.549754 -0.294828 0.458042 0.062941 -5.505013 3.073684 -5.457889 0.999837 5.689139 -2.611935 8.081876 -6.195143 -1.706283 -4.997368 -11.645156 -2.675251 -0.614490 0.028710 -2.578061 -1.210028 -0.315008 4.774033 -3.753549 -3.362000 4.149244 -1.621219 3.849293 0.342591 -4.288304 1.192433 3.418892 7.989062 -1.668607 -6.039132 5.155829 -3.577937 2.182383 3.372354 0.507556 -2.174341 -4.042083 -2.926941 -0.640242 4.161385 -1.760127 1.213660 6.364860 -4.310508 -0.878520 3.779445 -4.614999 -9.474654 -0.531210 -0.396037 -5.646942 -7.133831 9.733394 2.779739 2.896793 -0.018388 13.063604 -2.353095 -4.242854 3.426710 2.196870 6.456665 -2.551711 -3.931550 6.504535 0.429854 3.225446 -0.778543 -2.899529 2.465134 4.537429 4.015767 -4.746757 -11.285341 -4.247014 6.119210 2.171909 1.639465 1.657738 4.941278 -3.014717 5.338258 -4.038671 1.242220 5.369422 2.357802 -5.452745 -4.425690 1.708190 -1.528106 0.986640 0.623302 0.762396 -1.592612 1.785206 -1.037694 6.474273 -7.671775 -0.884828 1.283437 -3.647554 -0.642080 1.776010 1.925060 -3.630715 -2.535555 -2.000289 -4.555098 -1.413338 1.151385 -1.567987 -3.636362 2.495183 2.279531 -0.633714 4.452341 -1.431361 -8.711147 -2.415624 5.417806 -6.047269 2.421912 -3.014769 -1.701779 3.376963 3.132386 2.518026 1.501314 6.828268 3.089535 -5.057637 -1.762693 3.031633 -0.420252 1.878246 -3.575055 -7.650623 1.228529 -1.489868 3.794555 2.420011 -5.015395 -8.903365 5.352615 -0.821040 -3.650074 4.002242 1.164693 -3.709360 4.620806 6.617669 2.573341 4.294766 -1.179917 -0.955785 -6.441549 -5.347886 -0.203788 -3.281049 -2.492435 0.623492 -6.435160 0.158162 -7.735138 1.440516 2.793402 5.110946 -3.240737 2.814203 -7.549763 -1.112490 -1.866993 8.317945 -1.443554 -3.204578 0.382665 5.696191 4.618195 -6.744998 1.891873 -1.522751 -0.970923 -3.722037 -0.594903 -0.766175 -5.738614 3.275238 2.474541 4.786221 -6.274468 5.474772 4.156439 -4.086130 -1.172500 1.177745 -1.602059 -1.707542 3.850874 0.650936 -7.149246 4.536953 1.068809 0.857817 0.237280 5.640393 -3.055025 7.738218 -3.818534 4.642356 -4.670078 -0.844333 3.771905 -4.680019 -3.623967 6.719911 0.860446 -1.692824 0.986816 -1.307214 1.130127 3.139461 0.214119 2.341320 1.955321 -5.497148 -2.198234 -2.240000 3.064500 4.451878 1.433780 -3.451655 2.534745 -0.242597 4.691049 -4.538194 1.359254 -4.369217 -0.650229 -0.730029 -3.213582 -7.864284 -1.562949 -1.260189 -1.029293 -0.991456 -3.052746 -4.870417 6.150082 -2.607077 2.952675 4.422542 -0.835386 4.397756 0.885206 -6.603460 1.333104 3.227004 0.176362 -0.351651 -10.057025 -2.880415 4.624213 -1.142773 6.330999 -0.088575 3.603608 -2.141166 -6.419830 9.335414 1.493892 -1.031977 -3.794733 -2.442968 -1.950380 -2.003236 -6.846482 -1.119583 3.958681 3.880255 -1.548731 -0.887826 -0.545610 1.932399 -3.921004 1.493551 -1.844607 -3.773452 -0.481393 -0.296168 2.305223 -0.932398 4.645180 3.781376 -1.728347 -1.343299 -1.362958 -3.920530 1.277494 -4.338791 -0.901347 6.675355 -1.540874 6.775521 0.252280 0.874622 -2.463390 10.586894 3.236046 7.622323 1.232390 -3.359216 -5.492923 -2.369532 -5.154821 -5.217515 3.080871 8.061397 -2.739988 3.762899 8.531157 4.730425 3.417579 -5.117042 0.741610 -5.318924 0.865501 5.230774 1.749433 -3.148419 2.991302 10.612893 3.579919 2.850162 2.251992 9.593278 -2.456873 -1.768144 -4.528655 -1.436385 8.581230 -3.092689 3.153736 10.163880 4.469344 6.642912 2.756581 -2.447300 -2.790758 -0.026541 -0.210716 -0.748224 7.343247 6.724286 -1.256798 -0.395536 -2.651807 2.682101 -1.119636 1.602098 3.737896 -9.054784 -4.031772 -0.856449 -0.540238 1.528161 -8.832477 1.127176 3.423485 -3.875970 -3.151945 4.797482 -5.903762 -2.315223 -7.056958 -2.862556 -0.510459 2.421537 -5.254638 3.454907 3.276775 -1.747444 -1.630148 -3.982134 1.660834 -1.788661 -3.737552 -0.672155 -13.217534 -5.387142 7.695477 -3.706632 -3.054721 -10.127529 5.468894 -1.208432 -5.803587 -2.693666 -0.091808 -7.422841 1.476207 -1.436212 6.487127 -2.720258 -1.402755 -3.906220 4.200423 -7.141954 3.930244 5.130135 -2.981727 -7.466988 -3.483738 -0.447699 1.227907 -4.461046 1.478031 -1.443296 -0.503109 -2.965162 -5.199266 2.786130 -0.830547 2.021405 3.943251 1.103684 -9.034549 2.558287 1.596060 5.916842 -6.055347 3.155780 -5.153780 3.709598 7.665925 3.606294 -4.904999 1.068742 6.249226 7.361710 -2.057810 -4.234093 3.868183 0.556729 -2.081897 0.248659 5.143959 -10.994242 3.977794 3.007985 0.171504 2.054731 -3.006483 0.469274 9.888397 5.972532 -2.704826 0.022172 -2.141377 0.613017 -0.291803 2.122250 11.529989 -2.904128 3.839299 -2.051312 -3.841763 3.498402 4.766446 1.387226 5.975222 0.718331 -3.693725 4.266491 3.328612 4.842710 5.905046 -2.124570 -1.303074 6.496153 0.470202 -2.610104 12.580836 5.608675 0.092110 -4.878709 -0.813802 -6.420343 1.650168 11.117649 -0.998991 -0.047143 3.441774 -8.825525 -2.622752 -5.730407 0.217120 -0.828545 0.091821 -9.112934 5.725850 -2.618965 0.769875 -5.240074 6.218162 4.942129 -3.166239 -2.129893 3.263515 0.198947 -10.251807 -1.011147 -1.175437 -6.013841 0.144211 5.571456 2.449319 -7.951366 1.761868 3.825380 2.850006 4.541484 -1.192878 -5.762116 -9.886587 2.150608 -6.689991 4.176254 0.600855 4.165715 3.912427 -1.021266 4.542911 -2.130619 -6.975953 -1.460024 0.945653 3.382004 -2.400257 1.345013 3.925297 -4.123647 -8.422673 5.173578 6.289908 0.027101 0.163608 -1.703894 -8.714696 -2.424073 -2.501088 2.364480 -1.282154 2.345311 5.128122 2.235482 -0.352286 -3.167823 2.041623 -9.180148 -0.191243 4.368138 3.926302 -4.212760 2.197661 -5.447521 0.434029 -0.399584 -0.459374 1.561788 1.435767 -3.177632 -0.042888 -2.652865 5.304031 3.685803 0.727347 5.724949 -5.219862 6.318726 4.460479 3.820439 2.506531 -2.952450 3.054527 -0.514771 -5.369592 -2.461085 5.205069 -5.718504 3.068460 -2.452586 -1.332764 -1.562017 1.492302 1.107611 -2.029653 -1.318010 1.570015 1.296211 -1.419512 6.378098 -10.036731 4.716341 5.882640 2.896348 -0.595819 4.840739 1.950605 1.347757 3.585961 -4.747743 8.383427 -6.035760 -1.715274 -2.143468 -1.363381 1.247506 3.361869 3.381736 0.357945 5.878562 -2.405182 0.523855 -0.106263 4.964482 1.155692 -14.088427 1.457660 -1.710124 4.064324 -2.363939 -6.392937 5.212433 6.942582 3.979883 -4.669681 -6.247383 -5.145643 -2.132053 -4.722369 0.728237 3.076516 6.006227 0.741567 -1.180698 -3.498607 6.870171 4.976410 -1.196418 -1.128067 4.565593 -3.437318 -0.294745 -3.197687 -0.234207 4.353931 -3.678632 -2.542765 -2.276707 3.652872 0.228256 2.673831 2.252246 -0.453929 2.432799 2.084822 1.644179 3.479984 0.337771 -2.086940 3.239324 5.275401 -3.280019 -2.803277 0.255986 -2.245296 0.430148 -2.269676 0.886547 -7.031597 2.371610 4.432001 1.267313 11.200453 -5.729613 3.726921 4.991282 -0.471200 1.438931 5.728238 0.152323 -2.553154 -1.831731 -1.219144 -4.125533 1.548699 1.285860 6.322994 -4.601082 -5.428619 0.542570 2.869497 -0.526114 6.862875 0.895851 -3.620301 7.453633 1.372882 -1.561660 5.538868 -5.264947 3.435805 4.909832 -7.775635 3.443218 2.569480 0.446893 -2.808815 0.652070 -4.285940 3.775881 -1.861602 -1.208773 -6.453539 5.396058 -8.263251 3.546021 2.548657 -7.427174 -1.123672 4.263834 4.006406 2.769481 2.689322 5.288297 1.701448 6.842519 -2.225787 3.011062 -5.611737 5.798429 -5.891525 0.533699 2.680250 -4.940682 1.228870 -1.624610 -0.785273 6.497115 0.510408 -4.159950 -1.131811 -3.050196 4.957378 0.936378 3.735635 -7.146567 -2.675419 -4.655232 -1.458334 5.741108 -0.522671 -10.064978 7.370154 -1.046934 -0.489990 1.244572 3.981700 3.116571 5.159427 -0.104533 -5.249237 0.450498 0.270785 2.354753 -8.699019 3.444365 7.937868 -0.419277 -5.182028 0.858353 -1.775433 8.306755 1.465357 -3.427126 -5.578660 -1.454909 -1.115647 6.028479 2.146672 -0.389420 7.757149 -5.493458 -6.696242 1.182120 3.213656 -0.492621 -8.152598 -0.744989 -5.595328 3.328652 7.549332 1.185122 -1.419699 -3.198110 0.552775 2.392452 1.454361 -1.642389 -3.961517 -5.350608 3.446348 0.055704 2.519460 1.865614 2.129212 4.636019 -3.651987 -5.467781 7.486991 5.820078 -2.791366 2.733166 10.461409 -1.170229 -3.503035 -5.588730 -10.064573 0.889339 0.364610 3.145246 -2.561585 -0.792622 0.114118 2.671312 -0.666605 -1.095847 6.413353 2.931439 2.881843 -0.021033 2.838849 -0.482473 1.939471 -3.783360 -3.310542 2.140962 4.510367 -1.171788 -3.319763 2.674565 2.329612 1.883814 -1.134037 -5.973081 2.633391 -0.412095 -5.174247 8.036767 1.670245 -3.017740 7.602770 -5.879886 2.839911 1.387856 -0.726630 3.846594 -9.520420 0.603818 -0.226116 5.383474 4.105338 -1.440186 -5.609739 5.621397 2.139550 -3.514987 4.093229 -6.583744 -2.479564 -2.359454 -1.461233 0.771741 -4.568225 -8.161157 -1.744666 3.767036 3.188036 -0.054346 -4.664966 -5.976371 0.110208 2.319908 -1.159355 3.774703 6.029586 0.689613 3.471276 5.436368 -5.897198 2.122887 -1.322144 -1.019823 -1.514313 1.657498 -3.475056 -5.442770 8.401234 4.284677 1.075519 0.893850 1.287934 3.571991 2.594068 -5.535955 5.099049 -1.213721 -0.449385 1.802457 -5.848316 0.289540 2.360230 2.409527 -3.408657 -0.100563 -4.815273 3.608832 0.112258 5.332956 1.555632 -3.211642 2.773084 -2.894206 2.664366 1.425903 3.870746 5.755276 -7.556928 1.999604 -6.434481 -2.664424 4.429389 -1.450367 -0.838654 -0.531800 3.183645 5.161274 -0.932532 1.926120 1.231456 -3.823490 1.860501 3.824124 -1.809463 3.492847 -1.881493 1.534133 5.992362 0.178523 0.178586 -0.094628 0.401280 0.146010 -2.524002 -4.523636 3.698613 5.733868 0.093576 -7.326319 -3.095194 0.017772 -0.257298 -3.105033 7.563214 1.452012 2.161281 -2.893482 3.098258 9.616995 2.597690 4.834095 -1.151910 -5.377266 -2.025585 -7.108704 3.849879 2.350223 -4.920189 -0.939072 4.981720 4.776520 1.122167 6.044268 -2.581123 -2.054645 -6.879315 -5.669222 -0.424148 1.903740 -5.703241 3.324940 5.923838 13.361596 -6.759363 -5.060682 2.875610 4.606309 -4.404248 3.593545 3.165353 5.758275 7.730924 -5.650510 0.268205 -5.595104 -1.895646 -5.107911 -1.844492 -3.949784 4.766739 -0.463187 -2.245874 0.683626 0.776983 5.614098 1.751930 -0.788508 4.411020 -1.229786 -0.719131 -1.095347 -3.472195 -0.616455 -0.649527 -2.689521 0.313952 5.595900 -0.045553 2.676039 -2.762111 0.570716 -5.072854 -6.751371 6.698574 7.774620 4.434875 1.570931 2.264956 -5.404120 -4.858441 -2.244596 -5.261712 -7.461683 -0.792449 -5.037943 9.108147 -2.424526 6.557901 -2.556212 3.639539 -2.507535 -2.249928 0.202514 -5.264392 0.808972 -4.523348 4.353485 0.908587 -1.299965 1.547237 3.863033 5.862433 -3.036236 -7.451647 -3.861223 6.629243 2.596706 -3.033854 -2.314776 -6.422546 0.065523 -2.942634 2.351105 -1.289385 7.006390 -3.850085 0.008402 4.838997 3.934283 7.874678 -6.482776 2.752007 -3.289393 0.135762 -3.162766 -7.995115 -4.209061 -1.107510 4.590798 -1.285190 -0.651893 -0.169401 2.699891 2.111433 3.992625 0.482452 0.410703 2.958868 2.572017 1.951387 6.454103 -7.355433 1.711944 0.984136 -6.524596 4.168370 10.875312 4.540420 -3.763297 -7.429313 4.312213 2.580163 -3.305418 -3.226939 -5.116845 1.499247 -1.094250 -3.120574 7.247359 0.911196 1.482242 3.757486 3.547757 2.782111 2.012800 -5.806149 -0.007470 2.131385 -5.670669 7.769860 8.958359 -1.864891 -6.438911 -2.327644 5.603973 1.071520 3.308864 -2.297357 -3.854477 2.412752 -2.869751 2.408263 -1.310235 1.875412 -0.874878 -0.224831 0.016304 -0.108896 -5.257694 3.190082 2.444162 -5.305170 3.261981 -2.185720 1.126852 -4.654029 4.145782 5.609221 -0.347012 0.108107 -9.926011 2.135307 1.050127 3.396808 4.894666 -0.579166 -2.141891 0.988224 3.443627 -0.304922 1.731287 1.510732 -6.044239 2.866206 -0.179683 -5.128937 0.326887 5.504216 -0.233680 -0.137506 10.514329 -3.713222 -0.450663 1.874733 1.770460 -1.786191 3.580733 3.343546 2.830609 -7.546836 1.910514 3.628148 -4.652756 -1.524875 8.918823 -7.451095 4.342808 1.063991 -0.912550 8.638550 2.340713 -0.008343 -0.517276 -4.877611 3.510322 4.675909 1.640252 8.903363 -7.357590 2.608226 6.761836 3.342924 -5.491754 5.491010 -10.299050 -3.185214 -0.578763 -5.106086 10.461704 -1.350641 2.952828 -2.763879 1.229375 0.738714 -7.632528 3.695858 0.013249 8.194975 1.878602 5.035342 -3.234746 -2.451357 0.173238 2.106708 11.366357 -5.857803 11.371590 4.536621 -0.203844 4.364497 -6.797718 1.841524 0.405759 3.492843 2.732763 -7.495268 2.354572 1.788043 -0.764038 -6.190013 2.509821 -5.389075 -4.194910 9.284721 -2.181671 -1.526199 -8.841831 6.300146 -0.572463 -0.392622 7.199496 3.671169 -1.393989 -0.838058 -0.413107 -11.020097 5.505909 4.213035 3.837200 0.704745 -3.199852 -2.055040 0.450472 -4.950532 2.836532 -3.210897 5.794054 -2.595344 -1.165179 -3.548992 -0.374341 4.464366 5.966125 -7.536761 1.884982 1.780169 -5.643836 2.368410 -3.389305 10.154839 5.467516 -1.855440 -1.259117 -3.503627 -0.228101 -3.673948 4.303135 0.795355 8.871494 -2.064125 -0.719534 1.785144 -1.138390 1.088942 7.973314 -5.840956 -4.391641 -3.431321 0.295749 2.091759 1.575252 -3.380810 0.065186 3.193660 3.065317 2.253292 -5.801389 0.461823 -4.865442 -3.788318 1.480247 -3.863132 4.736899 6.620011 1.386364 3.915368 -1.666162 -1.082451 0.849080 5.542230 -3.331028 -0.168915 -2.290214 3.734120 2.861903 -2.537523 5.501300 -3.112888 -7.089531 -1.080211 1.580663 3.631639 0.246243 1.011541 1.265605 3.960283 -1.644432 3.468375 -0.124025 2.602512 -0.463479 -2.554443 2.987207 -7.774356 3.960143 -2.249290 3.732643 0.331078 0.943113 1.078706 -1.575546 1.395340 5.947219 -2.750373 3.010434 2.516323 -4.958785 -1.729680 -1.547673 1.322232 5.703261 2.604837 -2.287136 0.953744 8.888336 7.288617 0.668475 -4.454112 -6.011350 -2.480969 -4.933482 -4.484058 3.566579 -1.666522 2.198865 7.525685 1.918750 -0.866838 -0.887273 -5.763149 -2.806900 -7.886613 -8.935412 -7.696213 -0.921306 -0.352176 -2.441182 -3.961845 -2.720805 8.133719 1.576225 1.369846 -1.645525 -3.483525 4.669090 -1.579899 -3.941783 -3.846378 -0.365927 2.377204 1.894679 -3.272321 5.024165 -0.840941 -0.305243 1.812834 1.440601 -1.561315 -3.969941 -3.073723 -5.310547 3.005612 -2.746645 0.453384 7.987481 2.169187 2.212085 6.823375 -4.307537 -1.408998 -6.962066 -3.205517 -3.610166 -0.428233 -0.108855 -4.860874 -3.373005 0.011379 2.524170 -0.741131 -3.260288 -2.588726 -2.039342 0.867036 3.041398 -0.155152 -5.126629 -3.998549 1.868780 -3.846375 1.562108 0.985771 1.208241 -3.948981 2.217658 1.716706 3.664918 -2.362393 -1.809577 0.889240 -1.800134 -1.602542 -4.212866 -0.992475 -0.977558 -8.285058 -6.790419 -3.326065 2.324271 -3.374747 -0.019725 0.202934 3.138763 5.216890 -0.756739 1.720486 -1.549851 -6.339343 -5.728632 4.894425 -3.941930 -0.755267 -3.081693 -1.829023 -11.884079 2.820862 -0.824156 -6.009800 4.883539 -0.529899 5.178043 1.392008 -0.836007 -3.786015 3.936466 2.991160 -3.083369 -0.274439 5.029658 -5.916177 -4.968022 3.122430 -5.299669 0.254122 -0.012746 5.607325 1.795301 1.962193 4.368793 -1.768336 0.889853 0.209605 2.412460 -3.560567 -0.363451 -2.839194 -4.853154 -4.245456 3.955065 -2.032453 8.583601 -0.388960 3.051632 2.291727 -0.382902 -0.806672 -3.951453 6.698771 -7.627570 -5.981785 7.582064 1.439976 -1.250949 1.312211 -0.858554 9.247950 4.800201 -0.647395 -3.624116 -0.338717 -5.369429 -5.054798 2.882012 4.755682 -0.909034 5.058718 4.845539 1.797081 3.735056 5.433317 -0.987697 -1.200724 1.559478 8.934353 -0.521758 2.437781 -3.013597 0.400424 -0.003656 2.438124 1.670896 1.359903 4.135375 -1.220959 4.338923 -1.691062 -1.352132 -1.555476 3.827862 0.565394 -1.929166 -8.910290 -4.547772 1.086479 -1.793779 3.408643 -4.700607 4.651814 4.096815 -6.151554 -2.816451 -7.963889 1.029545 2.586071 2.445794 2.279133 2.445753 13.086165 3.248749 0.224639 -0.396981 -10.704778 -9.338436 -3.540345 -0.669082 9.234353 0.581815 -2.954299 3.273031 0.720589 -2.300765 4.522203 0.787428 -1.890400 -1.400050 2.126489 6.761127 -2.275621 8.559245 -3.313819 7.983983 1.135090 1.407266 0.633196 -4.588310 -11.311749 0.384792 -5.021260 3.539536 5.206545 5.527075 2.697097 2.972384 2.905630 -0.677116 1.381736 -1.867775 -1.708280 3.682316 3.428219 -6.936508 -5.502130 0.661194 -2.048859 -2.030710 -4.260210 -5.632284 0.653156 6.026926 0.198448 2.716407 -2.529631 1.071535 -4.498999 1.296577 -4.648941 -9.017374 -4.909129 -6.416569 -5.151592 3.162541 -2.145270 -3.812084 -0.358635 -2.198275 -1.955026 5.505876 -3.136233 -5.167503 -1.836492 3.966935 0.369006 0.089230 5.258590 1.906757 -3.269957 2.376138 -3.453808 -3.283131 -0.814057 -0.630009 1.829288 -1.008784 2.267393 4.373569 1.188347 -4.134793 1.355972 -1.744592 -1.708327 5.748245 4.799155 6.714362 0.669218 1.232454 3.284835 -0.242108 -5.794248 -2.947737 -0.177739 -2.706492 0.366420 0.557115 0.807940 5.887249 10.233637 6.054186 -0.078661 -2.441631 8.044217 -9.260234 -5.490916 -5.478740 3.310871 -2.578960 1.021313 -6.266355 2.911353 5.009840 4.431317 0.722073 3.197105 5.508351 4.666135 -1.282920 -1.251157 -1.401555 3.814195 -4.720798 3.786328 -9.721396 0.233573 -2.638723 3.339032 -5.302481 -1.551298 -1.033858 7.081165 0.782817 0.921396 3.245067 0.455367 -7.195272 6.490717 -0.167301 4.947695 6.336370 3.630237 0.723680 -1.816245 -11.508073 2.391233 -4.085490 -5.839698 2.353175 -4.828871 -8.191172 -4.257845 -3.149040 1.961126 -3.982297 2.409816 9.689505 3.615303 3.531187 -2.284141 0.688299 4.822073 -1.579341 -4.206994 -6.428444 2.676042 -0.383210 -2.761587 -4.939431 -1.395150 1.502766 3.830379 3.132508 -7.536742 -0.884451 -0.758598 4.416080 -7.282578 -6.006614 -2.543472 -4.407281 1.433682 5.981464 -2.456804 3.344205 3.148761 -1.944517 2.827281 -0.634590 -3.217686 1.782627 1.630182 -6.134982 -7.820139 3.827515 2.967019 -5.343141 3.255702 2.938669 0.295811 -2.383247 8.318134 -6.316909 -2.827504 -2.652439 3.067496 -3.174757 -2.463234 -1.861867 -1.483871 -3.692260 -0.502648 6.924711 -1.985145 -1.320504 -6.082533 2.842257 1.723310 -1.290524 -1.370953 1.412241 -1.020427 1.795352 -1.247869 3.910764 0.297926 3.047240 2.389151 4.578448 3.689822 -4.607092 3.715588 -5.017833 -4.205668 -4.213949 6.668950 5.295843 -2.902610 3.301024 -7.154598 4.443057 -2.314071 3.026154 4.174563 -1.237704 -5.487687 3.164363 2.585582 4.297752 -2.052074 3.780436 -4.536257 -5.916056 7.487311 -4.432319 1.296889 0.711193 4.083571 0.773868 3.420001 8.076999 1.278359 -3.950857 -3.317739 2.100913 -1.269926 1.226132 0.972611 6.307524 -9.636685 0.312189 -2.724763 5.321941 3.613451 -1.701887 -1.022328 -5.591767 6.025367 -3.229899 4.779922 6.015980 -1.955228 -1.139786 6.852054 8.347038 -1.215164 -3.609913 2.260481 -10.953502 1.055126 -2.315678 0.814698 2.870175 3.364875 1.061032 -11.668475 -1.727795 0.395305 -0.150258 1.912768 -5.691551 6.339595 -2.109071 1.593897 0.635105 0.399663 2.666298 -0.417168 -0.012136 2.368805 2.047690 11.950479 2.099159 -2.855232 5.128164 1.819712 -8.878574 -0.499319 1.843069 -8.660557 -4.714321 1.629436 -0.877987 -3.402039 5.230689 9.678894 -2.095339 -1.301743 -8.620981 -2.228422 9.855191 5.319550 -5.761803 0.660254 -3.518537 -2.534424 2.043569 -1.327594 3.494049 -4.677553 -0.172474 -2.734003 -2.160341 -2.202493 5.439352 -3.193248 -4.852748 6.309254 0.471207 -2.150313 -4.721048 3.937152 -4.797242 -1.392142 -3.825808 -5.614427 2.767583 2.417574 -2.791395 0.086250 -2.115158 8.714830 1.641016 4.183321 0.546589 -1.756412 3.615905 -2.447093 -2.247273 -2.505809 -7.022465 1.860332 1.364226 -0.978843 1.653618 -3.281357 2.799760 -0.597736 2.186935 -6.305115 -2.633457 0.262600 -2.288599 8.146606 -6.031202 3.276642 2.482294 -2.349848 -4.928657 -4.497499 -3.823067 3.903597 -1.867037 4.002293 -1.733988 -0.527772 -5.578905 5.393106 3.786641 -9.801543 -0.515404 -0.324693 2.653447 -0.855743 7.165694 -6.834412 -0.297551 4.797271 -1.047497 3.533801 -2.408147 -1.447019 -1.565799 -3.631706 -0.680013 6.447548 2.931731 2.715704 -0.004248 3.089864 2.271207 -11.150666 0.473103 -0.452808 2.314136 1.627368 1.986398 2.140967 -0.574394 4.884001 8.631828 -0.892509 -3.290365 7.422191 -1.383685 -1.267855 6.085841 2.686119 -8.015481 -6.498393 -0.051757 -5.619906 0.017397 2.540543 5.106284 -2.992308 1.038669 1.046927 8.225944 3.716301 -1.981688 0.836600 0.874995 -4.169371 1.252748 0.650326 3.083431 -2.554815 -3.928144 7.064246 5.749069 4.966175 -6.208742 -4.674506 -1.460743 -6.505451 6.851131 -2.606218 -1.457708 1.669907 -0.064371 7.770077 -1.712936 -3.632824 -3.511627 -0.241904 -0.313039 -0.599918 2.193131 -3.010631 3.108521 -2.299469 0.824925 0.181407 0.215003 0.103175 2.649381 -5.198548 3.437257 -2.440253 3.360343 2.285668 2.267255 -5.682537 3.077857 -7.655403 -3.840108 1.137354 -3.998632 -0.826902 1.981480 -0.077852 7.605622 1.303093 -3.526647 -3.414890 2.234896 -1.069090 6.222633 0.001692 0.566754 0.631888 1.086746 0.658665 -0.016119 -0.172409 -5.359520 -1.781409 -3.985312 1.815740 -3.848606 -5.424706 -1.907191 -1.368019 -3.554486 1.982594 -0.842638 9.715159 -2.116024 -3.528715 -0.708154 -0.631461 -0.990773 -1.480154 -3.714929 4.590866 4.030338 3.954053 -1.918611 -1.354572 1.292811 0.718696 -2.335053 -7.386578 -1.025673 -0.816966 -0.473576 -5.572182 0.656444 3.132575 -2.240363 5.861176 4.737037 4.202218 -1.733414 1.402600 -1.701111 -6.977972 1.429892 3.280746 -2.350570 3.309344 0.753778 1.163857 0.670504 5.737787 4.336487 0.793548 0.867189 -4.261454 -3.593465 -0.871806 4.026346 2.973825 0.147221 -4.308159 4.570470 3.742458 -2.123707 -7.362981 3.970925 0.638298 -4.403086 -6.233607 -2.437487 -4.660533 -1.340149 1.410237 -3.904610 -3.030624 -2.079110 3.683892 5.210607 4.289162 6.254144 -2.225725 1.117313 0.578186 -4.959767 -4.907587 -2.021547 -9.244071 2.520774 2.170931 5.021373 1.573976 -2.989732 -2.191040 0.300700 2.427295 1.293358 3.381479 -1.926886 -6.129324 0.176599 -0.122626 -3.132317 -0.563190 -5.374387 1.000367 0.827984 1.143752 10.868464 -1.156783 -2.890422 -5.221631 -1.623065 -2.203408 -5.078701 -1.766044 -4.025396 -2.709949 -1.884533 6.220772 4.966799 -0.844883 4.620582 3.949564 -1.756029 -1.932904 -1.990523 0.450373 2.397867 -10.554547 9.272920 2.303649 -2.332753 0.166808 -4.667862 1.163823 -4.986909 8.886107 -3.485250 -4.970807 1.185388 -1.266130 -1.260407 5.936387 5.023777 -3.424769 -0.058809 2.905736 2.122686 3.651937 -4.767134 -9.019700 4.988653 -3.480049 -0.376452 -0.996109 -5.239434 -1.717737 1.127640 1.178563 8.026289 1.590926 4.543082 -1.409202 1.767250 0.859349 -2.370136 2.649215 4.387438 6.479987 5.587426 5.124398 4.504143 3.627901 10.419379 -2.040302 5.801871 -5.804155 0.762660 -5.091917 1.044448 3.006304 7.728273 -5.769825 1.090034 6.193074 -7.259817 -6.444103 -3.294280 -7.731608 3.390055 3.019267 -4.164338 4.352251 9.535748 -1.559498 5.979412 -2.809340 0.448368 -3.053097 5.450634 -3.483266 -0.280534 5.175553 -2.791241 -2.119875 -1.814641 3.807446 -4.908785 -8.939669 0.356542 2.790805 -5.072091 6.140301 0.275789 -1.629801 1.132656 -1.139686 -3.787783 -3.756948 -0.370799 -10.624660 -6.197511 -5.045865 -9.024886 -5.114678 -6.651173 -2.540300 -4.726801 4.322754 -1.340741 1.749388 4.028834 -4.036584 9.195967 -0.567614 2.326486 3.658622 3.322447 -4.989754 -1.932705 3.360790 -0.200026 -3.072276 0.073182 0.182320 -4.885808 1.080199 0.714020 -2.123046 0.590932 -6.908313 4.583557 3.289847 -1.987949 0.605433 0.564377 0.763742 -2.332736 0.576855 -2.419673 -4.766713 -3.933867 -3.309617 4.690492 -1.362986 -0.733410 1.982171 4.577160 -3.836707 11.892398 4.365106 -1.260258 -1.416431 -3.375710 1.918970 -6.969520 4.437060 -2.009579 -1.102939 1.904818 -3.054025 2.609424 -0.887203 -5.591426 0.036491 2.423508 -0.311694 -0.466437 -0.098764 -4.945375 0.855215 0.537600 0.320873 7.489326 1.409633 -0.807681 -3.272884 2.587676 1.518739 3.276615 -2.564632 -1.911212 -3.961840 -2.996535 4.789966 -1.554112 -3.742015 4.584117 -0.777921 -2.919298 -0.241332 2.409795 -6.031326 2.520478 7.225191 -1.485552 -1.200295 -5.814479 -2.096862 -2.572270 0.216090 -2.736489 -2.275158 -6.472826 2.735355 -5.551616 5.610885 1.518030 1.761593 -6.222583 0.327107 0.033550 9.758977 -5.161734 -1.407387 -6.464269 0.276658 -2.908173 2.337358 -3.590157 -0.217946 -2.413106 -6.580495 -0.642496 1.552537 1.122011 -1.837787 -1.146082 4.433835 6.153014 -2.518339 -4.821973 0.763357 -9.717942 1.790435 3.281799 2.962838 2.332837 -2.338166 3.809991 0.095099 -2.599817 -2.927174 -0.372332 -2.930444 -2.448000 -4.450004 1.508593 -1.468123 6.647805 -2.260306 -1.508112 1.126733 -6.576520 4.388969 0.307340 -2.050735 0.479011 -6.813694 -0.223371 4.206211 1.044539 -2.012391 0.882715 3.761990 5.544388 -0.637901 -0.560523 -5.952523 5.206182 -3.812077 -0.692648 3.964222 -6.502753 5.091361 6.518142 3.360154 -2.825704 -2.151807 5.953297 1.698858 -1.256837 -3.886159 4.427454 -3.932180 -5.594821 2.634902 1.997154 -3.457272 -0.230403 7.808290 -3.708304 -0.439963 -0.441756 4.730174 0.744794 -1.736063 3.718108 -2.148982 1.049760 3.156904 -2.489654 0.273742 -2.434613 0.889705 0.328617 2.916275 2.453637 -2.955697 -7.236929 4.150543 -2.012859 -1.810717 5.705048 0.102023 0.513982 3.081080 0.492987 2.514603 1.666006 -0.957609 1.430346 1.194554 -3.856631 -5.931075 2.650173 -3.030290 2.537394 -3.057446 5.744937 -2.937658 -4.389885 1.265075 3.310367 -0.003372 -5.228158 -3.978457 1.847483 1.439771 6.304925 2.501486 2.499199 -2.694349 3.240790 -2.835279 -0.298861 6.733320 -12.173719 -2.092931 -1.964376 -0.996760 0.981492 0.904511 11.436418 -3.288828 -1.695411 -1.594935 -4.076904 3.466168 -0.387692 2.440982 -0.627075 0.399049 -4.382922 1.276777 5.684881 6.897959 -4.557618 -0.724815 -2.942331 -4.872806 2.894134 -0.692552 -3.205922 -2.647758 1.178155 -3.884728 -3.412254 -2.998936 2.408439 1.731133 -0.791371 -2.950882 -2.260673 -9.464130 -3.018672 -5.763143 10.259565 0.504471 3.995935 1.173643 -0.743512 4.276456 2.784807 -3.308795 -0.935657 -3.328262 -4.974703 0.635653 0.499494 -2.171513 0.661072 -1.535461 -1.025853 -3.635124 -5.512614 2.660138 -0.694105 4.750467 -1.214684 -2.890672 5.285063 -0.775644 -0.741336 1.193820 -3.997335 1.708440 3.744559 -4.150874 -1.150324 -1.005055 -5.601669 5.038690 -1.118364 -3.168281 -5.510803 3.649008 -4.730848 3.489176 -7.523382 1.731144 -4.094034 -2.825252 2.363319 4.331848 -1.337154 4.043502 -1.465366 1.551506 0.686017 0.553670 -2.612436 -4.950778 -1.465529 -3.962998 -3.374029 -2.987987 -4.973016 -1.519246 -6.322946 7.687380 0.943357 1.232452 3.447071 0.694460 3.054676 -0.596745 -0.629689 -1.238904 3.804303 3.098860 -7.677318 -1.191790 6.461574 7.840700 1.049907 1.020035 -6.558719 -2.870999 -2.894575 -8.080984 -0.034754 -2.842996 -4.147326 1.862463 2.070969 -0.619836 4.244850 -4.015903 -0.872885 -3.888917 -0.572780 1.412526 -4.113440 -5.746437 -2.296812 -1.752414 -1.640230 -1.691193 -3.907531 -0.704521 4.558919 1.367137 6.104075 2.394238 4.866538 -3.863117 -0.681633 3.814481 -2.504753 2.662712 -0.597326 -7.652930 -1.361144 -3.745675 -0.639520 -1.364238 4.223414 1.111157 1.290988 3.988728 8.397288 9.195577 -0.196081 2.372732 1.674747 -6.364216 1.759882 0.752817 3.082373 4.817790 4.775877 4.524136 -1.252938 9.372755 2.090147 6.576555 2.398512 -0.200558 7.411674 1.004462 -1.468650 0.766839 0.734163 8.215916 1.522991 -0.654423 -0.543392 -2.642473 2.939212 -5.730196 2.907023 -5.555643 6.286879 5.289466 -5.118408 -4.056216 -3.379567 -2.629859 -0.337525 -10.606602 -3.443155 7.233391 4.326765 1.452926 9.097311 -1.989970 8.744510 -8.470613 5.905891 -1.652028 -3.564415 -5.709323 -2.019964 -1.383780 -6.325867 2.673623 -5.348572 3.567968 3.010227 3.158227 -7.616633 -3.539360 -0.445467 1.801366 -1.490180 -6.236234 5.305500 -8.019181 4.173465 5.436413 -0.270205 2.092185 4.518318 -0.755174 -13.775847 -3.884717 -8.864941 4.807568 -6.757814 -7.221912 -3.233748 -1.817502 -1.100072 3.670650 -2.124232 -1.707297 1.212980 -1.065735 1.318664 0.632155 3.114728 4.861270 1.656532 -3.492777 4.561550 -1.573782 -9.141903 1.943976 6.439957 2.796771 -2.789841 3.502664 0.508793 2.832503 -5.626710 2.638124 -6.235186 5.262720 -3.508969 -5.038209 0.612747 3.204920 -2.353325 2.847723 -0.080668 -2.403756 2.838124 -0.075451 -0.287352 -0.744013 -5.439915 5.572635 -3.373736 -4.974836 8.099844 4.332798 6.432059 2.564476 0.345213 0.010439 -0.351501 -5.645072 2.068442 -1.298942 -3.235190 -0.076840 -2.098737 3.575020 -2.392656 0.897488 5.500885 2.135399 -3.085997 -2.612307 0.423088 2.538785 1.774287 -6.118669 -2.417926 0.634342 3.343186 5.036223 -0.949200 -8.080769 1.099381 -1.625787 0.942225 -2.564599 0.692932 3.279582 3.175785 0.531360 0.345002 -4.929393 3.416268 -2.737711 2.806130 -0.645062 -2.574874 0.575593 3.116751 -4.958328 3.228682 -0.065803 0.259918 -5.193602 -1.410912 1.163625 5.790979 -5.333442 -1.642947 -1.432381 1.678388 1.012792 3.225581 -2.491083 3.146146 -4.829952 6.412860 -3.038884 -2.380385 -4.993157 1.111393 0.748685 3.033324 0.067771 -2.246499 -6.802281 4.635879 -4.320177 3.778589 0.008011 3.180909 2.677075 0.074229 7.793989 -6.811472 -0.510019 -6.229840 2.497731 1.370998 -3.847042 -8.028425 -1.436085 1.570633 6.199108 -0.288399 5.157057 -0.675717 -2.480261 2.782768 4.296544 -4.640966 5.973492 -2.561828 -1.601801 0.806333 3.522466 -7.621072 -1.506456 -1.189380 6.696666 0.092679 5.741420 -0.264127 2.754824 2.263500 -5.860758 2.230291 -3.883143 4.627716 -6.727730 2.698274 -2.957849 -2.032017 3.265175 2.645156 -0.269437 -5.362775 1.076711 3.288356 -5.097634 0.780627 5.517567 2.348955 -10.629605 6.810530 2.836050 -2.763367 4.931938 -5.799989 3.040351 -0.524947 5.444194 -3.790053 -5.622253 -1.864741 -1.697434 -1.544945 0.982323 0.934985 6.202495 2.989370 0.546290 0.333544 2.677341 -8.273646 -4.715589 -4.431002 1.362276 -4.233996 2.094466 -5.569616 1.004279 5.936758 2.568969 -0.683425 4.398554 -6.246737 -2.671736 -2.779951 -2.404284 -2.744771 2.835570 7.883348 1.711145 2.030996 -5.680595 -4.750634 -4.747365 0.501937 -5.423705 0.514119 5.926315 5.760650 -2.370705 0.884733 -1.991184 0.422283 -0.422633 4.459904 0.847454 -1.466935 1.821707 4.218741 -6.863241 -0.911907 3.878653 3.191031 7.526203 -3.563585 5.321384 -3.531630 -2.481714 2.168305 -3.823279 1.790571 1.262249 -3.191682 2.532283 -0.359011 -5.046415 5.429652 4.434013 3.885943 5.564775 2.777279 0.006666 -2.795909 0.173595 -8.244261 0.316836 2.537564 2.501927 -0.207417 0.584872 -4.082825 -0.928948 -6.194965 -0.387596 4.088334 -1.395044 9.502737 0.642901 1.482359 0.902768 -1.688277 -1.973021 -2.430224 -4.545920 3.662518 0.612127 1.169137 -4.045807 2.235352 -0.816802 -5.892213 -5.195443 8.130209 1.553509 1.641588 -3.449148 2.896917 2.153481 4.270915 0.604253 5.283554 -0.641857 2.492010 -3.134743 -5.172787 5.326715 -6.062247 -2.285118 0.294593 -1.596673 -3.823406 9.599840 -4.473640 6.529405 -2.463893 3.971621 5.070029 6.934251 -1.863866 0.797798 -4.250876 4.123678 5.287991 -0.637382 1.932629 -0.633167 -7.440070 6.338373 -5.290222 -1.808408 2.873491 -4.378587 4.280192 -4.172691 -2.579749 -5.360241 5.910542 -2.870641 2.685170 2.374953 2.660812 4.831890 -3.412022 -2.718274 -0.378100 -2.933044 2.368355 -0.852536 2.379814 -2.991639 0.715109 0.607331 0.352432 0.058411 -2.583843 -7.104066 -0.799544 1.807502 -1.049922 -3.539221 5.036068 -0.599521 -5.303426 -1.953208 5.886752 -3.171758 2.404930 -0.452582 2.580609 1.930975 -0.613860 1.878494 -6.562663 4.875932 -4.030722 -0.590446 1.614484 -3.396558 -10.310677 -3.644329 2.062865 3.842124 0.449451 -1.555377 -5.926263 8.107090 3.945480 0.439303 -5.442538 -4.199669 -0.923174 1.459476 6.031509 -5.535016 -4.197162 -5.701010 5.762164 1.501923 -6.643596 1.991740 -3.267628 -2.142816 0.318826 -2.292037 2.798285 -0.499989 0.248620 -2.558338 3.029000 4.902933 1.275072 -1.565387 8.860492 4.776655 -8.662587 2.715168 -5.739756 5.242326 -4.264877 2.154913 1.369746 -6.005810 -1.951789 0.519945 -2.244958 2.676112 -0.378030 5.249270 1.684133 9.619281 -2.349227 0.610475 0.012840 -0.139720 