3.432323 3.432323 3.432323 3.432323 3.432323 3.432323 3.432323 3.432323 3.432323 2.374140 2.373547 2.372953 2.372360 2.371896 2.371303 4.254586 4.324095 4.323013 4.321933 4.320853 4.320211 4.319823 4.318743 4.317665 4.316595 4.315516 4.314437 4.313358 4.313161 4.312083 4.311039 4.309966 4.308889 4.307811 4.306738 4.305661 4.305490 4.306707 4.306501 4.305773 4.305399 4.304322 4.303249 4.302260 4.301184 4.300109 4.299089 4.298096 4.297021 4.295954 4.294880 4.293806 4.292734 4.293253 4.292744 4.291697 4.290768 4.289716 4.288643 4.287571 4.287780 4.286808 4.286345 4.285273 4.284202 4.283132 4.283960 4.286519 4.285447 4.285738 4.284666 4.283595 4.282524 4.281455 4.280637 4.279865 4.278795 4.278334 4.277444 4.276411 4.275693 4.274632 4.273563 4.272522 4.271491 4.270426 4.269406 4.268340 4.269907 4.268843 4.268008 4.266941 4.270789 4.269721 4.268655 4.268071 4.267005 4.266001 4.264941 4.263874 4.264484 4.263689 4.263109 4.262112 4.261046 4.260711 4.259647 4.259827 4.258863 4.257801 4.256752 4.255715 4.254651 4.253587 4.255427 4.254498 4.253440 4.252442 4.251867 4.250805 4.249743 4.249708 4.249601 4.249641 4.248638 4.247638 4.246580 4.246534 4.245599 4.244664 4.250173 4.249120 4.248071 4.248687 4.247795 4.246765 4.246020 4.245239 4.244318 4.243258 4.242287 4.244004 4.243637 4.242589 4.241583 4.240664 4.239631 4.238867 4.246203 4.245491 4.245907 4.244846 4.243845 4.242785 4.242170 4.241141 4.240298 4.241443 4.240391 4.240438 4.241156 4.240191 4.239186 4.239203 4.238448 4.237537 4.239041 4.238170 4.237138 4.236208 4.240804 4.240406 4.239438 4.238379 4.238418 4.240338 4.239336 4.238353 4.237762 4.237337 4.236617 4.236198 4.237362 4.237031 4.235986 4.235123 4.234306 4.233744 4.232748 4.233346 4.232288 4.232018 4.236124 4.235088 4.234279 4.233401 4.232800 4.232388 4.231335 4.231197 4.233058 4.232726 4.231757 4.230730 4.230900 4.230934 4.229905 4.230353 4.229443 4.228514 4.227463 4.227239 4.226843 4.228354 4.230697 4.230153 4.230050 4.230106 4.229499 4.228497 4.228345 4.230971 4.230141 4.229207 4.228172 4.227116 4.227985 4.232683 4.231712 4.231429 4.230373 4.229472 4.231624 4.231265 4.231815 4.232653 4.233348 4.233886 4.233517 4.232577 4.231609 4.232967 4.232407 4.232172 4.231373 4.230410 4.231192 4.231065 4.230320 4.229431 4.230342 4.229719 4.228666 4.227834 4.228088 4.227539 4.226543 4.227876 4.229365 4.228845 4.227889 4.229698 4.229900 4.229068 4.228460 4.228640 4.228007 4.227209 4.226360 4.226111 4.226010 4.228320 4.228401 4.227371 4.228263 4.227467 4.226410 4.225427 4.224780 4.226668 4.225626 4.226037 4.225592 4.225166 4.224304 4.226340 4.225779 4.225032 4.224678 4.224772 4.224777 4.223724 4.222724 4.224076 4.225670 4.225595 4.225563 4.225309 4.224844 4.223812 4.223643 4.222589 4.221592 4.221649 4.223640 4.223419 4.223317 4.223289 4.222940 4.223232 4.222283 4.221263 4.222741 4.222698 4.221848 4.220940 4.220029 4.219236 4.218574 4.218464 4.218183 4.217654 4.217361 4.218270 4.217308 4.222125 4.221620 4.220721 4.220018 4.221923 4.222322 4.222123 4.221767 4.220936 4.220455 4.219514 4.218500 4.223058 4.222008 4.224001 4.223175 4.224325 4.224343 4.226112 4.225438 4.224955 4.224696 4.224219 4.223264 4.223276 4.222221 4.222652 4.225367 4.224484 4.225244 4.224529 4.224853 4.224641 4.225105 4.224516 4.224446 4.225132 4.224503 4.223865 4.223002 4.221979 4.221629 4.220929 4.220613 4.220721 4.220105 4.219095 4.218065 4.217650 4.217740 4.217211 4.216276 4.215496 4.214810 4.213914 4.213297 4.213080 4.212958 4.213190 4.212238 4.211235 4.213037 4.212678 4.214015 4.214417 4.213478 4.212429 4.212236 4.211276 4.211578 4.210997 4.210232 4.209600 4.210137 4.209654 4.209406 4.208835 4.208325 4.207850 4.209202 4.208715 4.207905 4.207379 4.207384 4.207462 4.206646 4.206260 4.206772 4.205738 4.204900 4.204401 4.203438 4.202388 4.203653 4.203465 4.202576 4.202293 4.201321 4.201264 4.200329 4.199539 4.198997 4.198678 4.199720 4.199272 4.198461 4.197463 4.197043 4.196679 4.197120 4.196875 4.195954 4.197797 4.197089 4.196094 4.196206 4.196384 4.196236 4.196448 4.196348 4.195683 4.194705 4.197605 4.197653 4.197408 4.199111 4.200694 4.199660 4.199954 4.199302 4.198376 4.197608 4.196843 4.196034 4.195202 4.195870 4.196992 4.196007 4.195249 4.195273 4.195471 4.194530 4.193891 4.192959 4.192594 4.191685 4.191402 4.190493 4.190642 4.189684 4.188683 4.187751 4.187913 4.186984 4.186304 4.185610 4.184767 4.183765 4.183057 4.183542 4.183451 4.182537 4.182486 4.182397 4.182274 4.182596 4.182355 4.182568 4.186718 4.187083 4.186534 4.186679 4.186068 4.185526 4.185128 4.185071 4.184070 4.183061 4.183104 4.183245 4.183369 4.182455 4.183804 4.182917 4.183733 4.184390 4.183471 4.182807 4.182065 4.181871 4.182306 4.181379 4.180494 4.179887 4.183454 4.182522 4.184313 4.183792 4.182870 4.186946 4.186476 4.185803 4.185507 4.184472 4.184596 4.184691 4.183823 4.182872 4.182416 4.182689 4.183700 4.183701 4.184129 4.183487 4.183365 4.182376 4.186524 4.186791 4.187024 4.186297 4.185972 4.185831 4.184944 4.186316 4.185800 4.186397 4.185496 4.184956 4.184162 4.183417 4.182555 4.182975 4.182226 4.183171 4.182421 4.181647 4.181573 4.180624 4.180187 4.179924 4.179557 4.178601 4.177849 4.177105 4.177329 4.180550 4.179776 4.179354 4.179179 4.179010 4.178660 4.177929 4.177067 4.176869 4.176521 4.176355 4.175900 4.175276 4.177312 4.177311 4.176383 4.175618 4.175223 4.176403 4.175519 4.175047 4.176924 4.177105 4.176360 4.176055 4.176614 4.176079 4.176078 4.176420 4.176202 4.176203 4.175540 4.174854 4.174177 4.174297 4.174213 4.173943 4.173825 4.174235 4.175828 4.176953 4.176360 4.175486 4.175738 4.175046 4.174945 4.175356 4.174819 4.173956 4.173167 4.176198 4.177191 4.177126 4.176574 4.175828 4.175133 4.174293 4.173635 4.173156 4.173609 4.173372 4.175571 4.174532 4.175056 4.176489 4.176673 4.176047 4.176394 4.175422 4.174953 4.173985 4.173374 4.174860 4.175520 4.176475 4.175458 4.174620 4.174062 4.173021 4.172252 4.171218 4.171642 4.170995 4.174213 4.174594 4.174319 4.175629 4.175447 4.175255 4.174649 4.174818 4.173905 4.174041 4.173121 4.172905 4.172677 4.171916 4.172111 4.171341 4.173924 4.174607 4.174429 4.175774 4.175241 4.175605 4.175449 4.174588 4.174219 4.174641 4.175434 4.175249 4.174471 4.173765 4.173647 4.173164 4.172621 4.172351 4.172155 4.171826 4.172647 4.173077 4.172812 4.172574 4.171847 4.171692 4.170928 4.171882 4.171627 4.171030 4.170500 4.171058 4.171149 4.171591 4.171161 4.172006 4.171676 4.171383 4.170959 4.170475 4.169475 4.170850 4.170919 4.170060 4.169350 4.168669 4.169123 4.169078 4.170525 4.170511 4.169503 4.168977 4.168770 4.168642 4.167769 4.167741 4.168331 4.168507 4.168466 4.168868 4.168826 4.168455 4.168026 4.167929 4.169877 4.169827 4.169212 4.169532 4.168959 4.169030 4.169482 4.168898 4.169946 4.169235 4.171663 4.171054 4.171834 4.172014 4.171457 4.172099 4.171309 4.171324 4.171099 4.170732 4.170238 4.171001 4.170619 4.170443 4.172047 4.172451 4.172641 4.171839 4.170998 4.171779 4.170742 4.170322 4.170019 4.170269 4.169906 4.171006 4.171409 4.171391 4.170777 4.170778 4.171092 4.170796 4.169792 4.170472 4.170117 4.170332 4.169353 4.168988 4.168130 4.167742 4.167154 4.166880 4.167815 4.167997 4.169144 4.168232 4.167710 4.166917 4.166776 4.165844 4.165899 4.166019 4.165402 4.164793 4.164242 4.164337 4.165945 4.165701 4.164936 4.165046 4.164579 4.163707 4.162968 4.163210 4.163435 4.163879 4.165788 4.165054 4.164671 4.167228 4.166850 4.166451 4.166293 4.166389 4.166201 4.166085 4.166202 4.166361 4.167050 4.166499 4.165906 4.165241 4.164707 4.164705 4.165175 4.164546 4.163779 4.164497 4.164688 4.164259 4.163816 4.164577 4.164948 4.164721 4.164326 4.163533 4.164010 4.163789 4.165016 4.164623 4.164940 4.164800 4.164085 4.163417 4.163936 4.163898 4.163006 4.164815 4.166008 4.165312 4.167929 4.167651 4.167159 4.166809 4.166983 4.166329 4.165709 4.165023 4.164859 4.164194 4.163943 4.163502 4.163538 4.162943 4.162604 4.162939 4.162503 4.161815 4.161418 4.161938 4.161494 4.160881 4.160486 4.160884 4.161151 4.161085 4.161298 4.161672 4.161151 4.160784 4.159797 4.159154 4.158961 4.158591 4.158352 4.158100 4.158371 4.157730 4.157241 4.156982 4.157359 4.159128 4.158431 4.157588 4.157010 4.156536 4.157943 4.157616 4.157549 4.156919 4.156825 4.156717 4.156122 4.156803 4.156853 4.156474 4.156546 4.156153 4.156416 4.158586 4.159682 4.161103 4.161774 4.161051 4.162472 4.161466 4.160819 4.161799 4.161311 4.162833 4.162742 4.162861 4.162944 4.162288 4.163265 4.162406 4.162053 4.162033 4.163768 4.163602 4.164222 4.164954 4.164369 4.165178 4.164571 4.164256 4.164181 4.163175 4.163335 4.163242 4.162590 4.161782 4.160884 4.160713 4.161403 4.161801 4.161687 4.161203 4.162157 4.162437 4.163179 4.162587 4.161648 4.162376 4.163055 4.162930 4.163221 4.162943 4.163110 4.162169 4.162459 4.162865 4.162436 4.161923 4.161688 4.160978 4.161391 4.162010 4.161596 4.161253 4.160565 4.160936 4.161586 4.161158 4.160740 4.161616 4.161244 4.161327 4.161108 4.162448 4.161738 4.161923 4.162581 4.163721 4.164991 4.165346 4.165135 4.166252 4.165376 4.166211 4.166135 4.166123 4.166028 4.165284 4.165374 4.165313 4.164570 4.163657 4.163759 4.164121 4.164543 4.164711 4.164721 4.164219 4.163763 4.164828 4.164337 4.163928 4.163008 4.162159 4.161887 4.162144 4.162164 4.161960 4.161345 4.160475 4.159862 4.161302 4.160295 4.160505 4.162667 4.162390 4.163147 4.163070 4.164758 4.164635 4.163810 4.163663 4.162960 4.162589 4.161752 4.161727 4.160906 4.160159 4.160598 4.160761 4.161518 4.162198 4.161970 4.161330 4.161947 4.161130 4.160434 4.159698 4.159605 4.160231 4.160032 4.159785 4.159681 4.159572 4.159866 4.160252 4.159370 4.158925 4.160736 4.160354 4.160109 4.160091 4.161761 4.161881 4.162540 4.161879 4.163230 4.163027 4.163942 4.164778 4.166347 4.166509 4.166726 4.166590 4.166263 4.166713 4.165959 4.165407 4.165064 4.165212 4.164813 4.164111 4.163915 4.163234 4.162349 4.161401 4.162434 4.161928 4.161978 4.162747 4.162780 4.163177 4.163305 4.163198 4.163087 4.162680 4.163707 4.162859 4.162320 4.161753 4.160894 4.162318 4.162129 4.162101 4.161567 4.162454 4.165359 4.165107 4.164844 4.164031 4.163613 4.164530 4.163999 4.165051 4.164626 4.165482 4.168108 4.168497 4.168021 4.167143 4.166171 4.165455 4.165268 4.164712 4.164505 4.164042 4.164815 4.164574 4.164317 4.164715 4.164778 4.166640 4.165955 4.165789 4.165764 4.166559 4.166497 4.165696 4.165422 4.164779 4.164460 4.166314 4.166786 4.167172 4.168395 4.168367 4.169598 4.169202 4.168858 4.170620 4.170242 4.170089 4.170779 4.170325 4.169844 4.169320 4.169941 4.170286 4.170645 4.170534 4.170267 4.170227 4.170494 4.170398 4.169630 4.170394 4.169980 4.169866 4.169901 4.169013 4.169101 4.169125 4.169297 4.168835 4.169849 4.169959 4.170808 4.170004 4.169439 4.168668 4.168456 4.167790 4.167666 4.167451 4.167588 4.167201 4.168225 4.168141 4.167913 4.167452 4.167172 4.166944 4.166515 4.167068 4.166341 4.165965 4.166637 4.166286 4.166116 4.165619 4.164626 4.164701 4.165523 4.165325 4.165214 4.165593 4.165575 4.164772 4.164274 4.163799 4.163292 4.164070 4.164341 4.165060 4.164944 4.164691 4.164465 4.164538 4.164212 4.163944 4.163147 4.163540 4.163398 4.167037 4.167184 4.166548 4.165974 4.165538 4.165524 4.165817 4.164923 4.164367 4.163736 4.163792 4.163855 4.164185 4.164900 4.164403 4.163854 4.165545 4.164823 4.164274 4.164742 4.164674 4.165367 4.164696 4.164707 4.164117 4.166312 4.165766 4.165747 4.166531 4.165709 4.164979 4.164675 4.164571 4.164233 4.163488 4.163106 4.162849 4.163286 4.162536 4.162261 4.162485 4.162192 4.161683 4.161600 4.162177 4.163103 4.164661 4.164392 4.163583 4.164457 4.164858 4.164020 4.163972 4.163600 4.164003 4.166218 4.165913 4.165055 4.164961 4.164871 4.165115 4.165918 4.165342 4.165275 4.164667 4.163732 4.163684 4.163418 4.162995 4.162612 4.162029 4.161372 4.161990 4.161767 4.162371 4.162374 4.161850 4.162977 4.162242 4.162231 4.161751 4.161059 4.160735 4.160349 4.160870 4.160740 4.160967 4.161977 4.162441 4.163459 4.162801 4.162169 4.161867 4.162219 4.163246 4.163053 4.163371 4.162614 4.162310 4.161699 4.161389 4.161177 4.160557 4.160711 4.160574 4.160287 4.160684 4.160925 4.160531 4.160047 4.159116 4.159324 4.158576 4.158996 4.159200 4.158237 4.157871 4.157968 4.157583 4.157514 4.157343 4.156782 4.157365 4.156363 4.157710 4.156976 4.157200 4.158828 4.158284 4.158642 4.157839 4.157858 4.159486 4.158988 4.158506 4.157969 4.160958 4.160914 4.160803 4.160969 4.160890 4.160335 4.160287 4.159667 4.160173 4.161126 4.162138 4.161557 4.162106 4.161497 4.162927 4.163557 4.162559 4.161651 4.162556 4.161635 4.161672 4.161452 4.160730 4.162265 4.162583 4.162478 4.161708 4.161239 4.160340 4.160113 4.159702 4.161318 4.161075 4.160687 4.160600 4.160114 4.160141 4.159792 4.159336 4.160014 4.159137 4.158659 4.158523 4.157959 4.158350 4.158211 4.157409 4.158615 4.158032 4.157195 4.158420 4.158039 4.158364 4.158545 4.159336 4.159131 4.158499 4.158474 4.159350 4.158680 4.157926 4.157692 4.158301 4.159261 4.158486 4.157685 4.157329 4.157646 4.159204 4.159658 4.160545 4.160113 4.160383 4.159963 4.159914 4.159318 4.159904 4.159475 4.159648 4.159064 4.158151 4.159180 4.158547 4.157972 4.158545 4.157941 4.158891 4.158500 4.159550 4.159808 4.160969 4.160913 4.160567 4.159794 4.159397 4.158769 4.158666 4.158329 4.158288 4.158577 4.160257 4.160701 4.160850 4.161068 4.161105 4.160406 4.161328 4.161061 4.161766 4.161905 4.162520 4.162446 4.162737 4.163879 4.163222 4.162693 4.162816 4.163060 4.162848 4.162616 4.162772 4.163254 4.163207 4.163585 4.163557 4.162877 4.162641 4.162739 4.162603 4.161818 4.161048 4.161339 4.160825 4.163084 4.162666 4.162275 4.162647 4.162917 4.162529 4.162237 4.161751 4.161915 4.161627 4.161089 4.160592 4.159874 4.159999 4.159286 4.159527 4.159496 4.159399 4.161662 4.161341 4.161014 4.160718 4.160302 4.161151 4.160898 4.160213 4.160382 4.159948 4.160245 4.160157 4.159775 4.159182 4.159407 4.158776 4.158323 4.158478 4.157883 4.157944 4.158105 4.157705 4.157752 4.157021 4.156527 4.157274 4.156515 4.155825 4.155787 4.154927 4.155506 4.155120 4.154836 4.154827 4.155355 4.155939 4.155650 4.156303 4.157744 4.157277 4.157385 4.157468 4.156890 4.157063 4.156935 4.156660 4.156184 4.156493 4.155757 4.155219 4.155293 4.155457 4.156043 4.157336 4.157025 4.156369 4.156820 4.156448 4.155498 4.154567 4.154254 4.153844 4.153706 4.153888 4.154362 4.153950 4.153999 4.153996 4.153802 4.153274 4.152609 4.152966 4.153457 4.153790 4.155530 4.156084 4.156010 4.155918 4.155785 4.156377 4.156462 4.155710 4.155908 4.155152 4.155372 4.155385 4.155336 4.156252 4.156126 4.156324 4.155768 4.155584 4.154707 4.154734 4.155122 4.154953 4.154269 4.154911 4.155480 4.154866 4.154422 4.155835 4.155650 4.156333 4.156991 4.157382 4.157748 4.157315 4.157147 4.157830 4.157102 4.156850 4.156393 4.155698 4.155779 4.156056 4.155728 4.156310 4.155875 4.157056 4.156350 4.155621 4.155033 4.154455 4.154337 4.154026 4.153638 4.153397 4.152695 4.152343 4.152667 4.152896 4.154142 4.153951 4.154511 4.153911 4.154403 4.154329 4.154097 4.153836 4.153046 4.153211 4.153019 4.152644 4.153236 4.154082 4.153977 4.153043 4.153025 4.153784 4.153930 4.153629 4.153853 4.153239 4.153855 4.153262 4.152978 4.152370 4.152446 4.152090 4.152117 4.152937 4.152770 4.152338 4.153682 4.155346 4.154809 4.154377 4.153855 4.154706 4.154883 4.155090 4.154682 4.154170 4.154912 4.154719 4.155982 4.155603 4.155800 4.155436 4.155286 4.154944 4.154367 4.153495 4.153188 4.152766 4.151957 4.151340 4.151436 4.150656 4.151905 4.152018 4.152265 4.151509 4.151875 4.151389 4.151387 4.151066 4.150334 4.149996 4.149973 4.149428 4.149492 4.149373 4.149498 4.148706 4.149072 4.149894 4.149658 4.149207 4.149078 4.148432 4.148953 4.148391 4.148498 4.148133 4.148236 4.147497 4.146936 4.146767 4.146767 4.146717 4.148286 4.148907 4.149237 4.150504 4.150424 4.150061 4.150198 4.149810 4.149135 4.149314 4.150049 4.149341 4.148560 4.149297 4.148877 4.149151 4.148989 4.149145 4.149349 4.149015 4.148423 4.149556 4.149598 4.148815 4.148624 4.148130 4.147816 4.147670 4.148862 4.150943 4.152328 4.153094 4.152538 4.152197 4.151490 4.151107 4.151083 4.150221 4.149898 4.149131 4.148465 4.148638 4.148800 4.149752 4.149341 4.149498 4.149226 4.148604 4.149031 4.148809 4.149131 4.148138 4.147736 4.146880 4.146965 4.146533 4.146515 4.145893 4.145175 4.144488 4.144326 4.143640 4.143885 4.143763 4.144104 4.143503 4.142702 4.142187 4.141631 4.140999 4.140640 4.140087 4.140300 4.140264 4.140843 4.141300 4.141124 4.140679 4.140669 4.140559 4.140521 4.140635 4.140040 4.139743 4.139916 4.139677 4.139471 4.139786 4.139269 4.139067 4.139670 4.139859 4.139975 4.140375 4.139859 4.140596 4.140658 4.140962 4.141948 4.141397 4.141904 4.142078 4.142416 4.142806 4.142918 4.142528 4.142179 4.142197 4.141836 4.140953 4.140738 4.140516 4.139879 4.141127 4.140629 4.140202 4.139944 4.140219 4.140295 4.140709 4.140996 4.140322 4.140364 4.142444 4.142777 4.142545 4.142306 4.143368 4.143177 4.144074 4.143569 4.142903 4.143639 4.143343 4.143793 4.144885 4.146958 4.147149 4.146612 4.147461 4.147265 4.147808 4.147891 4.148333 4.149296 4.149802 4.150023 4.149421 4.149210 4.148646 4.148095 4.147999 4.147829 4.147680 4.148020 4.147878 4.149402 4.150104 4.149720 4.149802 4.152134 4.151814 4.151800 4.151341 4.150601 4.151212 4.150778 4.150795 4.150392 4.150631 4.151592 4.151248 4.151888 4.152106 4.152058 4.151713 4.151349 4.151271 4.151191 4.150638 4.151994 4.151701 4.151077 4.151016 4.150838 4.151659 4.152287 4.152665 4.153231 4.152687 4.152335 4.154210 4.153327 4.153183 4.152501 4.152433 4.151933 4.151521 4.151290 4.151138 4.151429 4.151996 4.151563 4.151767 4.151254 4.152082 4.151717 4.151088 4.150340 4.149527 4.149566 4.148875 4.148035 4.147933 4.148509 4.148604 4.147765 4.147201 4.147340 4.147040 4.146606 4.146797 4.146510 4.146477 4.147245 4.147340 4.146695 4.146022 4.145538 4.146896 4.146368 4.147128 4.146217 4.145413 4.146541 4.146978 4.146859 4.146685 4.146629 4.146915 4.146745 4.146567 4.146525 4.146448 4.146240 4.145584 4.146810 4.147608 4.147257 4.146812 4.148007 4.148227 4.148472 4.149213 4.148750 4.148138 4.148172 4.147554 4.147461 4.148076 4.147310 4.146534 4.145998 4.145808 4.145718 4.145581 4.145805 4.145187 4.145288 4.145158 4.145001 4.144872 4.147428 4.146646 4.146594 4.146021 4.145639 4.145361 4.145786 4.145458 4.145573 4.145422 4.146051 4.146324 4.146316 4.146678 4.146950 4.147274 4.146836 4.146821 4.147406 4.146799 4.146611 4.146618 4.146325 4.146884 4.146756 4.148795 4.149117 4.149139 4.149482 4.148697 4.148597 4.147855 4.148476 4.148001 4.147723 4.147140 4.147543 4.146817 4.146581 4.146832 4.146248 4.145613 4.145010 4.144983 4.146157 4.146329 4.145750 4.146560 4.147005 4.146761 4.146973 4.146734 4.146107 4.145551 4.144667 4.144581 4.144351 4.144353 4.143399 4.142937 4.142244 4.142449 4.142075 4.142007 4.141782 4.142348 4.142535 4.142654 4.143048 4.143506 4.143823 4.143949 4.143888 4.143621 4.143459 4.144013 4.143855 4.144316 4.144908 4.144980 4.144853 4.145308 4.144509 4.145395 4.145347 4.145132 4.146061 4.146827 4.146707 4.146813 4.146152 4.146152 4.145727 4.146123 4.145450 4.145063 4.144428 4.144112 4.143811 4.143176 4.142853 4.142591 4.142133 4.142451 4.143160 4.143784 4.143329 4.143097 4.142665 4.143503 4.143061 4.143728 4.143371 4.143717 4.143455 4.144681 4.144466 4.144310 4.144503 4.145048 4.144216 4.143645 4.143052 4.142851 4.143064 4.142923 4.142332 4.142049 4.142001 4.142671 4.142124 4.141932 4.141986 4.142674 4.144010 4.143831 4.143366 4.142634 4.142940 4.143784 4.143363 4.143848 4.143476 4.143427 4.142965 4.142321 4.141908 4.142601 4.142341 4.144838 4.144592 4.145379 4.145328 4.146277 4.146008 4.147469 4.147774 4.148723 4.148317 4.147660 4.147688 4.147663 4.147369 4.147699 4.147558 4.148565 4.148035 4.147158 4.146754 4.146729 4.146919 4.146231 4.146668 4.145999 4.146839 4.146639 4.146733 4.146436 4.146003 4.145314 4.144689 4.145437 4.144715 4.143978 4.143567 4.143173 4.143221 4.143289 4.144726 4.144527 4.145112 4.144794 4.144052 4.143598 4.142986 4.142818 4.142408 4.141814 4.141195 4.141318 4.142783 4.143065 4.142853 4.143300 4.142652 4.143110 4.143104 4.143859 4.144269 4.144070 4.143271 4.142973 4.142517 4.142108 4.142242 4.141801 4.142270 4.142232 4.141755 4.141859 4.141735 4.141509 4.140685 4.140753 4.141101 4.140281 4.139735 4.139502 4.139125 4.139227 4.139497 4.138893 4.139151 4.138253 4.137926 4.138025 4.137406 4.137355 4.137032 4.137538 4.136893 4.136925 4.137480 4.137638 4.136679 4.135930 4.135841 4.135460 4.135637 4.135652 4.135046 4.135455 4.135535 4.135034 4.135672 4.135694 4.135834 4.135619 4.135238 4.134551 4.134012 4.134201 4.134421 4.133861 4.133445 4.133896 4.134556 4.134658 4.134580 4.134342 4.134290 4.134449 4.134730 4.134156 4.133969 4.133352 4.133152 4.132768 4.132664 4.133523 4.133469 4.134281 4.133744 4.133275 4.132705 4.132530 4.132062 4.132534 4.132329 4.132235 4.132683 4.132608 4.133910 4.135041 4.135689 4.135473 4.135314 4.134611 4.134621 4.134453 4.134323 4.134508 4.134320 4.133679 4.132968 4.132266 4.132372 4.132135 4.133741 4.133438 4.133604 4.132833 4.132850 4.132049 4.132540 4.132892 4.132798 4.133150 4.134036 4.134065 4.133454 4.132807 4.132027 4.132429 4.134111 4.133990 4.134520 4.134731 4.135019 4.134832 4.134390 4.134277 4.133523 4.133347 4.133242 4.132918 4.132110 4.132190 4.132286 4.131761 4.131442 4.132200 4.131832 4.130999 4.131694 4.131157 4.131646 4.131151 4.130984 4.131180 4.131609 4.131910 4.131989 4.131409 4.131971 4.131528 4.131655 4.131244 4.131516 4.132740 4.132166 4.132832 4.132109 4.131427 4.131443 4.130886 4.130858 4.130319 4.129838 4.129194 4.129604 4.128835 4.128445 4.128136 4.128622 4.129251 4.128469 4.128694 4.129137 4.129147 4.129914 4.129392 4.129405 4.129140 4.128727 4.128804 4.128758 4.128449 4.130162 4.130598 4.130286 4.130218 4.131257 4.131007 4.131061 4.131353 4.131195 4.131021 4.131554 4.131402 4.132118 4.131610 4.130757 4.131577 4.131358 4.131335 4.131688 4.130777 4.130440 4.129759 4.129407 4.131301 4.130734 4.130242 4.129590 4.129998 4.130138 4.130143 4.129648 4.129950 4.129497 4.129912 4.129425 4.128720 4.128986 4.128905 4.128848 4.128806 4.129624 4.129546 4.129172 4.129691 4.129800 4.129507 4.129119 4.129458 4.129776 4.129438 4.129705 4.130119 4.130916 4.130705 4.130076 4.132238 4.132036 4.132630 4.134253 4.134083 4.134094 4.133679 4.133687 4.133508 4.133252 4.133167 4.132924 4.132505 4.132024 4.131509 4.131775 4.132892 4.133271 4.132736 4.133019 4.132372 4.132742 4.132064 4.131903 4.132341 4.132679 4.132141 4.132547 4.132189 4.132496 4.132494 4.131983 4.131508 4.131656 4.132276 4.132478 4.132575 4.132547 4.131920 4.131517 4.132267 4.132580 4.132218 4.131705 4.131162 4.130733 4.131243 4.132211 4.131982 4.131446 4.130753 4.130308 4.131026 4.130708 4.130117 4.129915 4.129818 4.129985 4.129640 4.129718 4.129677 4.129671 4.129137 4.129307 4.128855 4.128693 4.128222 4.129236 4.130154 4.129877 4.130459 4.130120 4.130686 4.130401 4.130384 4.130047 4.130258 4.129855 4.129831 4.129838 4.130119 4.129267 4.129273 4.130319 4.130322 4.130405 4.130243 4.130175 4.130117 4.129806 4.129951 4.129410 4.128918 4.128637 4.128469 4.129753 4.130137 4.129676 4.130226 4.131019 4.130857 4.130793 4.130185 4.131820 4.131446 4.130799 4.131019 4.130634 4.130873 4.130893 4.131094 4.130791 4.130681 4.129793 4.128849 4.129373 4.130008 4.129466 4.130147 4.129878 4.129754 4.129210 4.128919 4.128398 4.130216 4.130384 4.130039 4.129453 4.129143 4.129213 4.129538 4.128794 4.129045 4.128771 4.129221 4.130036 4.129854 4.129887 4.129536 4.129626 4.129668 4.129095 4.129446 4.129293 4.129544 4.129808 4.129240 4.129345 4.128645 4.129065 4.128572 4.127772 4.127266 4.126653 4.126913 4.126696 4.126535 4.126133 4.125847 4.125496 4.125162 4.125203 4.124771 4.125023 4.125565 4.125532 4.125795 4.125357 4.124792 4.125232 4.125221 4.127094 4.127254 4.126980 4.126631 4.126006 4.127557 4.127579 4.127467 4.127112 4.128043 4.128755 4.128624 4.128150 4.127516 4.127193 4.127070 4.126807 4.126505 4.126543 4.126871 4.126282 4.126163 4.126053 4.125800 4.125874 4.125811 4.125600 4.125333 4.127080 4.126882 4.126803 4.126863 4.126993 4.126298 4.125942 4.125467 4.124816 4.124468 4.124753 4.123887 4.123510 4.123264 4.122566 4.121928 4.121572 4.121277 4.121863 4.122149 4.122179 4.121514 4.121086 4.120882 4.120732 4.120079 4.119919 4.120340 4.120358 4.120659 4.121415 4.121374 4.121084 4.120588 4.120493 4.120539 4.121263 4.120850 4.120643 4.120733 4.120504 4.121163 4.121019 4.120919 4.120940 4.120706 4.120079 4.119903 4.119490 4.119962 4.119476 4.119580 4.119157 4.119534 4.119660 4.119030 4.118593 4.119595 4.119323 4.119693 4.119896 4.119972 4.119363 4.118979 4.118981 4.118878 4.120125 4.120224 4.119905 4.119865 4.119759 4.119691 4.119428 4.118811 4.119043 4.119999 4.119566 4.119401 4.119861 4.121589 4.121394 4.120711 4.119962 4.119328 4.118956 4.119302 4.119563 4.119572 4.119500 4.119170 4.119629 4.120740 4.120176 4.119561 4.119837 4.120448 4.120273 4.119819 4.119384 4.118814 4.118615 4.117941 4.118300 4.118724 4.118476 4.118455 4.118887 4.118598 4.118796 4.118476 4.118696 4.118084 4.117756 4.117416 4.117939 4.118826 4.119258 4.119175 4.118870 4.118745 4.118280 4.117881 4.117696 4.117899 4.118488 4.118586 4.118255 4.117553 4.116739 4.116456 4.116604 4.116641 4.116022 4.115297 4.115289 4.114744 4.114429 4.114360 4.114088 4.113586 4.113659 4.113365 4.113936 4.113214 4.113290 4.114990 4.114377 4.114204 4.114375 4.113890 4.113313 4.113578 4.113203 4.112709 4.113330 4.113450 4.113526 4.113109 4.112561 4.113371 4.113413 4.113816 4.114059 4.114006 4.114488 4.114740 4.115556 4.115924 4.116390 4.116204 4.117352 4.117082 4.117118 4.118097 4.118412 4.118917 4.119228 4.119896 4.119153 4.118938 4.118258 4.118186 4.118248 4.119600 4.119481 4.120912 4.121412 4.121304 4.121223 4.120798 4.121078 4.120658 4.120595 4.121134 4.120880 4.121125 4.120886 4.120406 4.120281 4.119661 4.119899 4.119528 4.120091 4.120102 4.119859 4.120114 4.119917 4.119587 4.119978 4.119789 4.119523 4.120314 4.120447 4.121170 4.121625 4.121525 4.121004 4.121096 4.121444 4.121613 4.121158 4.122388 4.123298 4.123529 4.123659 4.124113 4.123803 4.123717 4.123359 4.124571 4.124391 4.124088 4.123908 4.123812 4.123184 4.123360 4.122831 4.122325 4.123232 4.123188 4.123586 4.123535 4.123893 4.124434 4.124547 4.124754 4.125784 4.125565 4.125299 4.124438 4.123971 4.125041 4.125055 4.125124 4.125001 4.125083 4.124998 4.124212 4.124090 4.124381 4.125141 4.124904 4.124485 4.123853 4.123889 4.123146 4.123423 4.123223 4.122857 4.122846 4.122432 4.122565 4.122409 4.121998 4.121874 4.121855 4.121461 4.120946 4.120270 4.119989 4.120261 4.119784 4.121714 4.121965 4.121547 4.121690 4.120905 4.121383 4.121093 4.121132 4.121537 4.121253 4.121012 4.120693 4.120268 4.119818 4.118999 4.118574 4.119655 4.119373 4.120182 4.120699 4.121575 4.120942 4.120613 4.121171 4.120544 4.120079 4.120181 4.119658 4.120193 4.119704 4.119028 4.119018 4.118451 4.118239 4.117788 4.117609 4.116983 4.116410 4.116173 4.115481 4.114672 4.114744 4.114694 4.114688 4.113992 4.113722 4.113723 4.113661 4.113725 4.113469 4.112836 4.112672 4.112800 4.112401 4.111565 4.111884 4.112110 4.112092 4.112591 4.113599 4.116192 4.116140 4.115850 4.115613 4.115262 4.115092 4.114455 4.114072 4.114074 4.113834 4.113450 4.113339 4.113459 4.114411 4.115173 4.114892 4.115536 4.116507 4.116656 4.116346 4.116661 4.116247 4.115989 4.116180 4.115635 4.115236 4.116272 4.116078 4.115913 4.115511 4.116106 4.115565 4.116809 4.116969 4.116841 4.116933 4.117507 4.117838 4.118774 4.118492 4.118101 4.118119 4.119122 4.118434 4.118263 4.117811 4.117419 4.117400 4.118431 4.118560 4.118720 4.118953 4.118641 4.118436 4.118139 4.117766 4.119385 4.118713 4.118188 4.117881 4.117521 4.117648 4.117712 4.117470 4.117950 4.117307 4.117943 4.117284 4.116509 4.117450 4.116896 4.116818 4.116170 4.116175 4.115890 4.115774 4.115849 4.115875 4.115463 4.117508 4.117318 4.117482 4.117398 4.117664 4.117725 4.117432 4.117977 4.118426 4.118054 4.117633 4.118113 4.117676 4.116986 4.118332 4.118569 4.118145 4.118026 4.118005 4.117741 4.117587 4.117730 4.118597 4.118081 4.117417 4.117358 4.117371 4.118357 4.118312 4.117699 4.118193 4.118990 4.119427 4.119105 4.118731 4.118070 4.118427 4.117776 4.117530 4.117410 4.116996 4.116309 4.116498 4.116571 4.116140 4.115750 4.115151 4.114942 4.115333 4.115106 4.115456 4.115786 4.116307 4.115553 4.115490 4.115103 4.114660 4.114072 4.114145 4.114379 4.114772 4.115220 4.115502 4.115800 4.115344 4.114779 4.114819 4.114507 4.114065 4.115048 4.114352 4.114155 4.114071 4.114765 4.115074 4.114878 4.114821 4.114256 4.114050 4.114458 4.114026 4.113923 4.113710 4.113127 4.113570 4.113733 4.114284 4.114089 4.113809 4.113440 4.113411 4.114207 4.115303 4.116495 4.116686 4.116575 4.116490 4.116051 4.115733 4.115544 4.115808 4.115358 4.114786 4.114514 4.114051 4.113816 4.113995 4.113302 4.112766 4.112522 4.112557 4.112341 4.113117 4.112873 4.112117 4.111836 4.111418 4.111005 4.110972 4.111299 4.111643 4.111389 4.111265 4.111211 4.110652 4.110819 4.110254 4.111844 4.112799 4.112776 4.112406 4.113312 4.112828 4.112723 4.112348 4.111941 4.111913 4.111783 4.111822 4.111645 4.111371 4.111001 4.111093 4.111479 4.111071 4.110391 4.110578 4.109986 4.109360 4.109021 4.108550 4.108016 4.107334 4.106909 4.107146 4.106961 4.106928 4.107486 4.107137 4.106849 4.106074 4.105431 4.105530 4.106656 4.106296 4.105849 4.105880 4.106124 4.106191 4.106159 4.105937 4.105601 4.105544 4.105086 4.105331 4.105562 4.105564 4.104896 4.103992 4.105416 4.105663 4.104899 4.104726 4.104637 4.105456 4.106448 4.105894 4.105636 4.106240 4.105549 4.105611 4.105851 4.105532 4.106332 4.106119 4.106500 4.105808 4.105272 4.105119 4.104810 4.104587 4.103815 4.103795 4.103194 4.103110 4.102537 4.101991 4.101577 4.101311 4.101359 4.101798 4.102325 4.101862 4.101848 4.101678 4.101583 4.100989 4.101074 4.101093 4.100817 4.101435 4.101150 4.102200 4.102219 4.103084 4.102496 4.101770 4.101152 4.102355 4.102692 4.102728 4.102229 4.101649 4.101615 4.101194 4.101225 4.101669 4.101501 4.101219 4.100643 4.100396 4.099752 4.099710 4.099354 4.099201 4.099194 4.099128 4.098921 4.098616 4.097835 4.097006 4.097498 4.096849 4.097473 4.097047 4.097439 4.097388 4.097803 4.097957 4.097594 4.097212 4.097716 4.097574 4.097646 4.097451 4.097023 4.097116 4.097839 4.098313 4.098044 4.097894 4.098191 4.097529 4.098091 4.097507 4.097012 4.098096 4.098362 4.098105 4.097631 4.097349 4.098087 4.098031 4.097221 4.097396 4.098299 4.098460 4.097756 4.098050 4.098783 4.099426 4.099062 4.099066 4.099464 4.099028 4.098552 4.099553 4.099862 4.099826 4.099623 4.099413 4.098820 4.098318 4.097918 4.097796 4.098096 4.098052 4.098900 4.098860 4.099531 4.098966 4.098261 4.098126 4.098175 4.098203 4.098683 4.099321 4.099880 4.099662 4.099763 4.100152 4.099661 4.099476 4.098945 4.098424 4.099139 4.100111 4.099435 4.099183 4.098856 4.098110 4.098886 4.099374 4.098976 4.098480 4.098304 4.098466 4.099791 4.099851 4.100849 4.100164 4.099556 4.099366 4.099231 4.098898 4.098647 4.098051 4.097576 4.097375 4.097084 4.097039 4.096804 4.096979 4.097255 4.097172 4.096339 4.096841 4.097155 4.097190 4.097892 4.097837 4.097457 4.097327 4.098155 4.097424 4.096716 4.096527 4.096031 4.095385 4.095066 4.095951 4.095927 4.095399 4.094993 4.094532 4.093895 4.093650 4.093592 4.093004 4.093971 4.093516 4.095132 4.095089 4.095431 4.095512 4.094755 4.094284 4.093733 4.093814 4.093234 4.092945 4.092849 4.092519 4.091950 4.091521 4.091072 4.090693 4.090854 4.090426 4.090215 4.090493 4.089957 4.089740 4.090487 4.090848 4.091013 4.090831 4.092401 4.092406 4.091921 4.091775 4.092022 4.092739 4.092212 4.092602 4.092381 4.092484 4.092599 4.092567 4.092519 4.091908 4.091768 4.090909 4.090990 4.090995 4.091191 4.090557 4.091022 4.090655 4.090413 4.091301 4.090935 4.091775 4.091306 4.091404 4.090902 4.090292 4.090301 4.090083 4.089558 4.089545 4.088911 4.088932 4.088368 4.088782 4.088983 4.089613 4.090198 4.090429 4.089790 4.089267 4.089209 4.088687 4.088034 4.087434 4.087210 4.087401 4.087671 4.087994 4.088015 4.087760 4.087296 4.087902 4.088646 4.087844 4.087040 4.086748 4.086501 4.086566 4.087441 4.086930 4.086600 4.085884 4.085437 4.085932 4.086027 4.086209 4.086102 4.085331 4.085592 4.085976 4.085755 4.085068 4.085190 4.087124 4.087129 4.086886 4.086214 4.088271 4.088331 4.089305 4.089046 4.089488 4.088770 4.089399 4.089182 4.088919 4.088966 4.089088 4.090160 4.089736 4.089624 4.089569 4.089229 4.089523 4.089804 4.089889 4.090769 4.090115 4.090564 4.090794 4.090999 4.090668 4.090376 4.089956 4.089730 4.089867 4.089865 4.089456 4.089438 4.089144 4.088790 4.088504 4.087938 4.087433 4.087484 4.087897 4.089137 4.090274 4.090590 4.089921 4.089957 4.090132 4.090147 4.090355 4.090802 4.090084 4.090004 4.089669 4.089071 4.089779 4.089283 4.089822 4.089268 4.088819 4.088900 4.088700 4.089376 4.088944 4.089164 4.088803 4.088446 4.087838 4.087619 4.087088 4.086494 4.085890 4.085269 4.085727 4.085758 4.085857 4.085562 4.085377 4.084889 4.085222 4.086101 4.085855 4.086328 4.086076 4.086728 4.087114 4.087064 4.087859 4.087417 4.087498 4.087771 4.087435 4.087878 4.087460 4.087219 4.086969 4.086954 4.088195 4.088893 4.088500 4.088607 4.088565 4.089275 4.089604 4.089270 4.089877 4.089056 4.088977 4.088142 4.088430 4.088824 4.088214 4.088355 4.087987 4.088167 4.088259 4.087810 4.087417 4.088173 4.087995 4.088366 4.088708 4.089526 4.090515 4.091686 4.092173 4.092141 4.091572 4.092536 4.091882 4.091760 4.092508 4.093594 4.093846 4.094845 4.094773 4.094038 4.094425 4.094773 4.094693 4.094460 4.094200 4.093873 4.093787 4.094053 4.093580 4.092977 4.093023 4.093823 4.093706 4.095096 4.095036 4.094860 4.094606 4.095487 4.095528 4.095252 4.095479 4.095640 4.096082 4.095711 4.095100 4.095283 4.094516 4.094481 4.094837 4.094888 4.094512 4.094195 4.095226 4.095604 4.095517 4.094912 4.096450 4.096573 4.096651 4.096485 4.096036 4.095439 4.097067 4.096488 4.096423 4.096636 4.096185 4.095865 4.096560 4.096563 4.096776 4.096092 4.095931 4.095749 4.096767 4.096673 4.096360 4.096231 4.096650 4.096848 4.096690 4.096589 4.096950 4.097009 4.098100 4.099806 4.099904 4.099497 4.099224 4.099426 4.099393 4.099282 4.099050 4.098797 4.099230 4.098718 4.098462 4.098031 4.097820 4.097721 4.097568 4.097530 4.097022 4.097268 4.097524 4.097303 4.097027 4.098099 4.097686 4.097652 4.097678 4.097652 4.096945 4.097098 4.097627 4.097970 4.097662 4.097177 4.097339 4.097594 4.097981 4.098141 4.097951 4.098612 4.098336 4.098775 4.098568 4.098417 4.098090 4.098178 4.098019 4.097342 4.097427 4.098092 4.098576 4.099267 4.099273 4.098708 4.098774 4.098507 4.098338 4.098216 4.098249 4.098004 4.097434 4.096979 4.096545 4.097158 4.097559 4.096863 4.097126 4.096667 4.096368 4.095955 4.096120 4.095538 4.095281 4.095022 4.095462 4.095049 4.095598 4.095417 4.095461 4.094854 4.094081 4.093985 4.093630 4.093769 4.094873 4.095548 4.095303 4.094961 4.095079 4.095048 4.094791 4.094459 4.094039 4.094101 4.094491 4.094353 4.094664 4.094728 4.094174 4.094687 4.094116 4.093898 4.093719 4.093108 4.092949 4.092738 4.092163 4.092196 4.091948 4.091491 4.091962 4.091561 4.091366 4.091590 4.092261 4.092272 4.092764 4.093935 4.093287 4.092845 4.092500 4.091991 4.092197 4.093149 4.092633 4.092600 4.092816 4.092962 4.092701 4.093092 4.092808 4.092897 4.092388 4.092193 4.092048 4.092300 4.091959 4.091706 4.092174 4.091926 4.091918 4.091729 4.092086 4.092758 4.092048 4.092121 4.092462 4.092290 4.092250 4.091509 4.091646 4.091122 4.091176 4.091124 4.091767 4.092145 4.091861 4.091742 4.092136 4.091417 4.091753 4.092842 4.092496 4.092839 4.093661 4.093769 4.093350 4.093144 4.093288 4.093490 4.093682 4.093637 4.093662 4.093229 4.092585 4.092704 4.094383 4.093906 4.094157 4.095017 4.094839 4.094917 4.095512 4.095680 4.095980 4.095288 4.095468 4.095238 4.095491 4.095860 4.095368 4.096150 4.096438 4.095824 4.096250 4.095702 4.095214 4.095058 4.094867 4.094543 4.095231 4.094552 4.094486 4.094126 4.094238 4.093857 4.093971 4.094422 4.095085 4.095830 4.094964 4.095043 4.095825 4.096792 4.097386 4.098098 4.098409 4.098599 4.098918 4.099408 4.099792 4.099578 4.098994 4.098374 4.098168 4.098893 4.098757 4.098215 4.098417 4.098304 4.098015 4.098459 4.097872 4.097469 4.097184 4.096928 4.096366 4.095628 4.095367 4.095173 4.096083 4.095527 4.095588 4.095012 4.094508 4.094080 4.094586 4.094582 4.095085 4.095671 4.096074 4.095806 4.095099 4.094749 4.094460 4.094524 4.096095 4.096241 4.096413 4.097431 4.097141 4.098355 4.098845 4.099320 4.098663 4.098630 4.098531 4.098412 4.098915 4.098178 4.098532 4.098568 4.099479 4.099052 4.099428 4.099242 4.098990 4.099134 4.099143 4.098854 4.099836 4.099938 4.099809 4.099676 4.099288 4.099009 4.098497 4.098535 4.098626 4.098352 4.099164 4.099588 4.098914 4.098158 4.097926 4.097363 4.097899 4.099627 4.099171 4.099696 4.099084 4.099059 4.098609 4.098849 4.098415 4.098811 4.098721 4.098855 4.098718 4.098495 4.098261 4.099096 4.098733 4.098946 4.098304 4.097618 4.097351 4.097402 4.096742 4.096510 4.096986 4.097871 4.097243 4.096914 4.096563 4.096316 4.097476 4.097134 4.096619 4.095907 4.096075 4.095757 4.096269 4.095619 4.095255 4.095038 4.094371 4.094772 4.094837 4.094558 4.095155 4.094650 4.094418 4.093924 4.094166 4.094114 4.094135 4.093877 4.094747 4.093838 4.094195 4.094236 4.095210 4.096279 4.096558 4.096899 4.097314 4.097212 4.096580 4.096206 4.096092 4.095706 4.095572 4.095715 4.094975 4.094982 4.094678 4.094275 4.094238 4.093957 4.094009 4.094785 4.094929 4.096155 4.096704 4.097548 4.097125 4.097532 4.097514 4.097509 4.098087 4.097965 4.097646 4.097552 4.097787 4.097200 4.096864 4.096535 4.096197 4.095873 4.095445 4.095689 4.095085 4.095078 4.094376 4.094475 4.095457 4.094947 4.095020 4.095160 4.094489 4.094645 4.095013 4.095098 4.095521 4.094636 4.094700 4.094452 4.094231 4.093779 4.093631 4.093698 4.094197 4.094290 4.093741 4.093400 4.093959 4.094866 4.094770 4.094465 4.093860 4.094171 4.093795 4.093006 4.092962 4.092418 4.091791 4.091767 
