-1.532796 -1.572759 -1.613544 -1.655120 -1.697457 -1.740523 -1.784287 -1.828718 -1.873784 -2.656796 -0.994047 -1.721362 -0.835978 -0.588452 -0.457786 -1.700003 0.023962 -0.017428 0.123352 1.059357 2.034979 1.419643 1.178976 0.130230 0.787061 0.090910 1.305005 -0.540615 -1.932529 -3.559754 -3.922621 -4.264262 -4.345447 -5.272470 -5.841746 -6.926607 -6.711599 -5.856539 -5.524885 -5.320183 -6.047368 -5.948247 -5.897331 -5.199004 -4.621854 -5.016523 -5.507516 -6.253303 -6.173611 -5.447271 -4.594146 -5.379170 -6.284005 -6.700118 -6.224877 -5.545012 -6.292353 -5.389363 -4.581524 -3.923204 -4.583318 -4.310808 -4.840456 -5.097026 -5.457143 -5.550261 -5.583903 -6.084558 -5.877968 -6.369062 -6.731298 -5.721701 -6.140743 -5.898592 -6.299506 -6.074846 -6.433351 -7.941665 -7.251159 -8.910893 -8.606705 -9.484142 -9.623836 -8.485400 -9.826171 -9.976930 -9.847676 -10.265305 -9.176669 -10.598070 -9.762208 -11.139242 -10.813038 -10.517773 -11.675455 -12.335828 -13.485112 -13.520900 -12.694230 -12.351198 -12.400558 -13.067533 -12.135966 -12.104363 -12.786234 -11.971490 -11.964366 -11.205653 -10.868692 -11.005541 -10.980377 -12.059485 -10.456013 -11.010729 -9.536081 -9.908901 -9.933327 -9.459180 -9.380251 -8.257740 -7.990362 -7.265842 -5.942074 -5.312276 -5.098796 -5.188896 -4.420122 -4.256445 -4.440023 -4.513947 -4.223395 -3.514212 -4.023522 -3.467943 -4.182324 -3.484016 -3.483972 -4.185532 -1.980543 -3.401600 -2.258360 -2.424409 -3.274259 -1.670441 -0.668162 0.257678 0.193940 -0.733367 -1.128053 -0.548512 1.308898 -0.138518 -0.405381 -1.165420 -0.916325 -1.330930 -1.314103 -1.612725 -1.838760 -1.847688 -1.618729 -1.810442 -3.021632 -3.472506 -3.497196 -2.913491 -2.186542 -2.358742 -3.162805 -4.320203 -3.507774 -3.443919 -3.170644 -4.964650 -5.429731 -6.621730 -6.993016 -7.247823 -7.661149 -7.789079 -6.112753 -6.827708 -6.476233 -7.608906 -6.498184 -6.089612 -5.803502 -6.166895 -5.815239 -6.281765 -7.648488 -9.173023 -8.858034 -8.556663 -7.310693 -8.204953 -8.606074 -9.488074 -11.235853 -9.933711 -9.676967 -9.161513 -10.537199 -10.624371 -10.872952 -10.906891 -10.337333 -8.865160 -9.805843 -10.337803 -10.632695 -10.040967 -8.388155 -9.236960 -9.684900 -8.818064 -8.655686 -6.651122 -6.982170 -6.492450 -6.828091 -6.471767 -5.673067 -6.004123 -5.711972 -5.924768 -5.978278 -5.530907 -5.646186 -4.723056 -4.592715 -4.038353 -4.624885 -4.285545 -4.302444 -4.670214 -4.837609 -5.086910 -4.694672 -4.778150 -5.352295 -5.618217 -6.382931 -5.484632 -6.130798 -5.693016 -5.424863 -6.496987 -6.808276 -6.595123 -5.466562 -4.271221 -5.098873 -5.983379 -6.097054 -5.851862 -5.976500 -4.546221 -4.852518 -4.431197 -4.811262 -4.798305 -4.989596 -4.859255 -4.402579 -4.199192 -4.605284 -4.788446 -5.980702 -7.478134 -7.405471 -7.080633 -6.440625 -7.093405 -8.388823 -9.373033 -8.838101 -8.331042 -7.419975 -7.415276 -7.984619 -8.827716 -8.108611 -8.054381 -7.342454 -7.129504 -9.015772 -8.520260 -7.839045 -7.554280 -6.943140 -8.065593 -7.276371 -6.975966 -7.138267 -6.650123 -7.026896 -7.657786 -7.603753 -7.107151 -7.007923 -7.708360 -8.464131 -8.220961 -7.518134 -6.902720 -6.990972 -7.759565 -8.545200 -8.573083 -8.599785 -7.235051 -7.855133 -7.898599 -8.758542 -9.173121 -8.208110 -7.753354 -7.766647 -7.276553 -7.291653 -7.047840 -8.420317 -7.862368 -7.889145 -7.165846 -7.360536 -7.956387 -8.903410 -8.545725 -8.004592 -6.656284 -6.684283 -5.665320 -6.656507 -7.114414 -6.939464 -7.524171 -6.657374 -6.866185 -7.777028 -8.197772 -9.424088 -9.208501 -8.242396 -8.849867 -8.495015 -9.162193 -9.184398 -9.220599 -8.951312 -7.636725 -7.609872 -7.653129 -8.029663 -8.317296 -7.752126 -6.621944 -6.525069 -6.231254 -6.731139 -7.235151 -7.126603 -6.188835 -6.723201 -6.294921 -6.649997 -6.685825 -7.423503 -7.348155 -7.915660 -6.837819 -7.576367 -8.091236 -8.336266 -8.789966 -7.053032 -5.961073 -6.442033 -6.529713 -8.046705 -7.795337 -6.569618 -5.902323 -6.125814 -5.929654 -6.646925 -6.581630 -5.797660 -4.995423 -4.724530 -3.429210 -4.011825 -3.055042 -3.044577 -4.604233 -4.879486 -5.420938 -4.389877 -4.345812 -5.194778 -5.085425 -6.328935 -6.261753 -5.161381 -3.325141 -4.831124 -3.858649 -4.318033 -4.059939 -3.839723 -4.268247 -4.501221 -4.330060 -5.325560 -5.253396 -5.440529 -6.477006 -6.414950 -5.913063 -6.470646 -5.641552 -6.480404 -6.831410 -6.380272 -5.641781 -4.954655 -5.622596 -6.732624 -6.607645 -6.397033 -5.658355 -5.627700 -5.905536 -6.150582 -6.159009 -5.359064 -5.109959 -4.896114 -5.182819 -4.921558 -4.762559 -5.138203 -5.463584 -5.072819 -4.947890 -5.456971 -5.432643 -5.779150 -4.803849 -4.779136 -3.626430 -3.919385 -4.743958 -4.175724 -4.060830 -4.322181 -4.265466 -5.001034 -4.797750 -4.900672 -7.155835 -7.562275 -7.829269 -6.915200 -6.755905 -8.217830 -7.955412 -8.975979 -8.192017 -7.298394 -6.625711 -6.050811 -7.596451 -7.114524 -4.571410 -5.945487 -3.619905 -4.905314 -4.410127 -3.382584 -2.930424 -1.730737 -2.337401 -3.281329 -3.330438 -1.725477 -1.403905 -2.834675 -3.782955 -5.034752 -3.323187 -3.528954 -4.881572 -4.501199 -5.775955 -4.949319 -4.559440 -4.956157 -4.433231 -4.970081 -4.516091 -5.161908 -4.240496 -4.148501 -4.227119 -3.657605 -4.888613 -4.859197 -4.899361 -4.680841 -3.287505 -3.210280 -3.239895 -2.765727 -3.181172 -2.241852 -3.306806 -3.101574 -2.833043 -2.715862 -1.595123 -3.142609 -2.694932 -2.354802 -2.007893 -1.480491 -1.661228 -2.682698 -2.642015 -2.590468 -2.024008 -2.124663 -1.967989 -2.225256 -3.170826 -0.989408 -1.352646 -0.655522 -0.070372 -1.071356 -1.433286 -1.355913 -0.104752 1.808714 0.116531 0.145213 -1.678409 -1.801164 -1.086000 -0.868993 0.812748 -0.500925 -1.293987 -0.964199 -0.336638 -0.112542 0.389970 0.692737 0.716740 1.301870 0.135124 0.175545 -1.113036 0.168610 0.097239 -0.081634 -1.361267 -1.772954 -2.515933 -2.639160 -1.242950 -2.760991 -3.299372 -4.919280 -3.987107 -3.752126 -3.960001 -3.849923 -4.715742 -4.228061 -3.445815 -4.196923 -4.562051 -3.100489 -3.293719 -2.778613 -2.080874 -2.759700 -1.284232 -1.668962 -0.914669 -0.515035 -1.364115 -1.155648 -1.007000 -2.408211 -3.004642 -3.557383 -2.857785 -3.353922 -3.095994 -3.961401 -3.640972 -4.130964 -3.697015 -4.237510 -3.566951 -4.518237 -4.563902 -4.652668 -4.278869 -5.362646 -5.255196 -4.605252 -4.161258 -2.845255 -3.887337 -4.557363 -4.391418 -3.957219 -3.379429 -3.858653 -4.265180 -4.383548 -4.139226 -3.192883 -3.127755 -2.059594 -3.022955 -2.738696 -1.072961 -0.997866 0.175853 -0.483610 -1.330120 -1.333614 -0.074846 -0.494699 -0.412121 -1.088940 0.050794 0.087053 0.750573 -1.133246 -1.278288 -1.658870 -1.174872 -1.452579 -2.363006 -2.268812 -2.928905 -3.101111 -2.165248 -1.984241 -1.601420 -1.225671 -1.335052 -0.572590 -1.816906 -1.575443 -0.906514 -1.192339 -1.186766 -0.734708 -1.449387 -1.030446 -0.668140 0.291971 0.085419 1.019562 0.854901 1.690869 1.677082 2.122640 2.242283 3.279376 2.542218 3.188391 2.677186 3.416761 2.836200 2.528574 1.326367 0.919232 1.215684 0.932101 1.835129 0.162538 -0.382769 -0.800122 -1.597371 -0.722337 -0.029588 0.172859 0.870690 0.112666 0.586067 -0.812230 -0.275091 -1.255004 0.209956 -0.013868 -0.681378 -1.408469 -1.833568 -1.468467 -0.056976 -0.651283 0.006046 -0.762437 -1.642166 -1.356523 -0.598070 -0.379095 -0.313811 -2.048868 -1.372757 -0.749011 0.138801 -0.915538 -1.332075 -1.958751 -0.563487 0.060632 -0.536068 -1.946311 -2.097683 -1.232165 -1.105281 -1.767901 -1.325357 -2.393702 -1.963093 -1.638029 -2.133269 -0.969460 -1.882291 -1.452197 -1.549482 -1.490898 -0.924860 -1.562390 -1.482780 -0.331683 0.092895 -1.338055 -1.880512 -0.185932 -0.860811 0.343109 -0.832323 -0.758996 -0.909715 -1.760509 -0.816142 -0.720984 -0.627785 -1.177994 -1.318641 -1.046109 -1.908264 -1.273381 -0.568937 -1.490552 -1.937598 -2.546727 -1.692450 -1.454405 -1.178582 -1.281844 -0.667871 -1.355367 -0.812970 -0.993664 1.181238 0.208151 1.002971 -0.195467 -0.586172 -0.110860 0.212423 0.084059 0.014146 -1.176639 -1.639994 -1.948478 -2.464314 -2.424674 -3.172753 -3.025468 -1.710566 -2.490143 -1.620824 -2.155720 -3.648731 -2.215750 -1.989112 -0.692477 -1.522682 -1.815320 -2.253811 -1.496374 -0.764576 -1.042806 -1.321369 -1.749831 -2.166455 -1.907159 -1.544773 -1.803527 -1.295913 -1.471748 -1.964178 -1.366093 -0.663334 0.237066 0.085414 -1.142883 -0.461865 -0.344140 0.166222 0.074990 -1.111524 -0.945851 -0.368097 0.013799 -0.258941 -0.945443 -0.979664 -0.658423 -0.790088 -1.485511 -1.616767 -1.666409 -1.671974 -0.989163 0.008565 -0.184025 -0.541516 -1.291866 -0.978719 -1.511885 -0.454459 -0.502548 -1.045848 -1.515200 -1.304943 -0.821061 -0.087361 0.098487 -0.356481 0.008804 -0.577492 0.032195 -1.536923 -1.311523 -1.326778 -1.131389 -0.946067 -1.469531 -0.752629 -1.432097 -1.288842 -0.332488 -0.170277 -0.247354 -0.211627 -0.510863 -0.414063 -0.839725 0.672196 0.823872 0.389376 0.605110 -0.105159 -0.124509 -0.074655 1.111700 1.494956 1.223560 0.794690 1.171858 0.100763 -0.015825 0.937152 1.729665 1.890513 1.813866 0.910414 0.430560 0.515562 2.208907 3.101314 3.424834 1.759410 1.067097 0.563296 1.563815 2.174625 3.302078 2.445164 2.547337 2.716319 1.600838 2.164014 2.952952 3.981421 4.209233 3.239798 2.464568 0.974568 2.417612 3.875351 4.372107 4.518636 2.945889 2.347208 2.294295 2.660220 3.574774 2.501850 2.754919 2.277435 1.579405 0.782679 1.110207 0.642583 1.061666 1.121210 1.259083 -0.789313 -1.676365 -1.453460 -1.016911 0.722635 -0.864633 -2.234680 -2.974921 -3.956689 -2.763595 -2.463794 -3.111408 -3.272771 -3.795082 -3.691114 -3.574878 -2.502280 -1.672254 -1.349874 -1.439751 -1.791122 -1.678847 -2.728824 -1.778060 -1.614023 -1.609494 -2.014408 -3.787335 -4.001954 -4.359878 -4.832916 -3.335094 -3.265529 -3.087558 -3.375021 -4.681358 -3.120026 -2.424644 -2.008430 -1.175852 -1.519427 -0.105108 0.021230 -0.088996 -0.314364 0.739342 0.438058 -0.068662 -0.120063 -1.060949 -0.622088 -0.937204 0.110663 -0.803767 -1.533620 -0.426444 -1.068215 0.595231 0.413394 0.166663 0.345272 0.971995 1.365126 2.641023 1.729476 0.358004 0.946651 -0.011693 -1.263035 -1.588491 -2.028568 -1.379068 -2.307089 -2.269631 -3.028427 -2.574072 -0.506241 -0.085145 -0.338734 -1.427817 -2.754995 -1.848319 -0.860348 -2.268238 -1.758042 -2.690584 -3.211862 -3.094579 -2.434606 -2.235280 -1.951840 -2.229551 -2.328228 -2.182168 -2.441116 -2.406591 -2.463724 -2.851024 -2.661763 -1.747947 -2.272873 -3.051728 -2.397505 -3.462603 -3.086933 -3.677942 -4.292189 -2.577014 -3.469823 -3.866365 -3.929129 -3.708744 -2.857247 -2.308461 -2.980878 -4.017018 -2.895348 -2.516627 -2.233593 -2.667194 -3.681419 -2.669022 -2.363257 -3.610850 -3.867268 -2.843342 -2.573511 -2.040900 -2.162194 -2.698411 -2.970976 -2.077297 -2.576668 -1.638023 -2.690348 -1.826125 -1.251847 -1.498357 -2.139800 -1.648982 -1.373913 -2.284249 -1.524809 -2.077916 -2.650602 -2.770067 -4.181143 -3.870093 -3.304859 -3.213775 -4.251048 -4.882977 -4.468310 -4.576470 -5.447427 -5.321192 -6.410605 -6.391676 -7.357747 -7.412027 -8.155237 -7.247134 -7.604605 -7.395822 -6.822843 -7.239863 -6.021023 -5.885649 -4.487634 -4.547143 -3.933113 -4.926059 -3.115368 -3.500535 -3.020706 -3.905866 -3.811272 -2.948911 -2.424221 -3.394516 -3.218056 -2.579868 -1.872061 -0.585571 -1.404726 -1.275635 -1.216797 -2.250564 -1.092054 -2.033282 -2.198933 -2.574446 -3.391754 -2.981793 -2.275123 -2.581301 -1.774577 -3.537540 -1.780088 -1.394186 -2.289279 -2.923433 -3.071080 -3.041344 -4.030224 -4.364315 -5.167596 -5.030085 -5.013318 -5.142025 -5.560673 -5.131769 -6.216314 -6.239186 -7.401786 -6.682215 -7.506745 -7.760452 -6.887330 -7.526958 -8.811265 -8.731170 -8.664659 -7.660328 -8.016379 -8.434228 -8.290048 -8.593685 -9.781453 -8.659634 -9.356568 -9.699126 -9.667245 -9.607169 -9.528932 -9.683770 -9.245571 -9.397958 -9.436301 -10.229593 -9.627229 -8.938572 -8.465261 -9.478733 -9.326988 -9.718294 -9.619542 -9.414123 -10.305966 -9.245232 -9.643937 -10.790443 -10.543847 -10.950473 -10.421373 -11.223694 -11.386445 -10.482781 -11.099930 -9.387435 -9.443065 -11.142470 -10.372482 -10.200332 -8.454557 -7.321894 -7.965654 -8.947030 -8.091003 -8.729840 -8.461101 -8.565017 -7.994213 -7.936330 -8.219694 -7.775985 -8.180107 -7.083395 -6.691888 -6.439868 -5.353482 -5.083168 -5.409075 -5.573690 -5.251239 -4.504514 -4.699946 -4.058335 -4.133239 -4.228382 -3.161910 -3.564194 -2.937019 -3.803982 -3.417375 -3.205768 -2.474870 -0.915792 -1.321971 -1.607581 -0.362588 -0.890978 0.713479 1.197169 1.831934 2.656628 0.456548 0.041999 1.961440 1.672290 2.647974 0.810865 1.363111 1.128943 1.370579 0.976269 0.987399 1.220436 1.884991 2.194446 3.254275 2.825917 4.129633 4.208671 5.334271 5.337115 6.467779 6.944206 6.356531 6.313290 4.986342 5.435674 6.037823 5.996699 6.856955 6.562356 5.217456 5.189985 6.708101 7.262766 6.817989 6.132466 5.484360 5.075734 4.978882 4.363376 3.692922 2.842741 3.452620 3.064548 3.553928 2.241513 1.927773 1.174203 1.987392 1.573815 1.805625 0.721695 0.887181 0.177008 0.951168 1.114748 0.843854 1.134087 1.185995 1.258233 0.756016 1.491845 1.077235 0.593159 0.378869 -0.317524 0.254225 1.769918 -0.157631 -0.140495 -0.874373 -1.260678 -0.087678 -1.456801 -0.915584 -1.162121 -0.748068 0.071712 -0.613314 -0.410430 -1.873338 -0.771586 -0.294012 -1.140561 -1.247468 -2.164338 -0.633819 -0.832415 -0.863924 -1.261651 -0.282905 0.246819 -0.137086 0.934388 0.194584 0.425970 0.198818 -0.737257 0.255059 0.637109 1.029227 1.236500 0.316049 0.719138 1.082684 2.350538 1.240591 1.073153 1.489188 0.585255 1.929886 2.053685 0.987658 0.825323 -0.138742 0.480168 0.928854 0.505946 1.410355 0.718546 0.723829 0.562704 0.047562 0.883979 2.098743 1.309682 2.077151 1.095375 1.297167 1.790607 1.339689 1.323037 1.280182 1.255557 2.972138 2.589328 2.888011 3.568580 3.232631 3.500641 4.057269 4.154430 5.026967 4.840835 4.324088 5.182251 4.013641 3.204045 4.357246 2.235757 4.239562 3.357753 1.685501 2.686484 2.340043 2.880243 2.931809 3.426808 3.979291 4.419830 3.550006 3.829842 3.773580 3.750916 3.446200 3.568403 3.618692 3.600346 3.238082 3.666488 4.255693 5.654695 4.498795 5.610247 4.648872 3.983865 3.457762 4.114384 3.759823 3.660387 4.114622 4.036348 4.451885 4.405028 4.597440 4.606178 5.321489 5.251492 6.653750 6.844982 4.965001 6.180406 5.435696 5.801503 6.816663 6.053773 5.751037 6.005202 5.590727 5.899880 6.209701 5.675125 5.694084 5.297521 6.574757 6.415292 7.654269 6.682270 6.091601 6.911568 7.432780 7.179917 8.739442 6.352047 6.855749 6.754442 7.228784 7.033738 7.645854 7.677902 8.024803 8.221564 7.667265 7.288160 7.641552 7.539559 8.734813 9.355664 9.549131 9.034514 8.989091 9.111272 9.569582 9.728416 9.596050 8.314411 9.199770 10.086111 10.865673 10.871507 10.300893 11.163380 10.293885 12.244962 11.340456 10.618531 10.706489 9.005899 8.723005 7.594553 7.211152 8.117243 7.950581 8.536377 7.529904 7.095300 7.517161 7.025998 7.394411 7.169331 7.500489 7.250625 6.537596 6.612603 7.390915 7.365468 7.241192 8.349508 6.589151 7.035605 7.327664 6.310302 6.040777 5.540033 6.481708 7.786234 7.000798 6.541535 6.191681 6.218531 7.107560 7.693044 8.002483 6.735041 6.581696 6.745258 5.745178 7.046981 6.866804 5.226951 4.932189 4.103835 3.960898 4.236225 3.281401 4.158478 3.584567 2.649716 4.157125 3.695098 4.620359 4.687295 3.709366 4.284107 4.262532 4.814182 4.950412 6.366889 5.945652 6.403273 6.524126 6.989029 7.988639 8.826539 9.394338 8.384695 7.198036 7.024795 7.942681 6.896270 5.315250 4.606002 3.663164 4.428596 3.502000 4.269887 5.325189 4.179998 4.378065 5.339868 5.278901 6.710716 5.832259 6.150432 5.548109 5.070945 4.054329 5.270275 5.141745 4.660730 4.378166 3.202509 2.986120 4.034680 5.199679 5.380308 4.494503 3.751958 3.724369 3.969392 5.166228 5.096155 4.213646 4.388361 3.863244 3.613872 4.169313 5.474393 4.995341 5.206542 4.467800 4.862673 4.483527 5.275675 6.253597 6.516930 4.960489 4.379242 3.441355 4.046273 4.509090 4.171598 3.080863 1.965342 2.013766 3.173201 2.652956 2.141363 2.420729 2.861788 4.060713 3.684621 4.404457 4.863810 4.757033 5.893796 6.257096 5.326166 4.904357 3.255635 2.961238 4.688826 4.056536 4.287678 3.432665 3.046443 3.722630 3.748580 3.763514 4.271180 2.711182 2.691849 2.097855 1.619956 2.704316 2.283691 2.568919 3.206367 1.722458 3.141828 2.862735 2.576865 1.985703 2.003029 2.315752 1.983305 0.243116 0.480543 -0.242147 0.131697 -0.263929 -0.386158 1.015160 1.206474 0.528610 -0.300263 -0.207487 0.596967 1.330126 2.422426 2.416416 1.754543 1.599093 2.538631 2.610650 4.049898 3.783214 2.691873 2.691497 2.940015 3.481644 4.170398 2.598406 2.867798 1.712994 1.953803 1.727050 1.170032 0.392946 0.614004 0.697665 -0.160710 0.819772 1.121363 1.613801 2.818267 2.019243 3.383669 3.660218 4.189335 5.817821 4.795265 4.653097 4.706365 3.329697 2.777708 3.594756 3.597440 2.969624 2.397287 2.530394 3.491052 2.319415 2.805359 3.348521 3.326111 3.880403 3.030852 1.951761 1.558363 1.427475 2.531812 3.134537 2.559873 2.578226 2.333715 1.814419 2.062826 1.293799 1.434049 2.288610 1.314249 0.031530 -1.168489 -1.422124 -1.419441 -2.043797 -1.939823 -2.315966 -1.515986 -1.975538 -2.630257 -2.575702 -2.438824 -1.002260 -0.896717 -0.164936 -0.874037 -1.599156 -0.690981 -0.770315 -0.515282 0.527444 0.540969 0.554290 -0.349529 -1.571320 -1.283065 -2.191298 -0.339298 -1.589278 -1.391227 -2.425600 -2.710578 -2.747820 -1.937794 -1.043755 -0.594707 -1.394090 -0.561550 -0.995053 -0.082163 -0.314292 0.324359 0.809491 1.643871 1.662835 2.030616 0.451279 0.523893 1.354793 1.096946 1.383115 1.483139 0.922109 0.736270 0.419502 -0.371336 1.148526 1.335185 1.935174 1.942896 1.081597 1.773474 2.103256 3.521856 5.734116 4.987498 5.109946 4.576404 4.810099 7.003333 6.229850 6.372430 5.843128 4.643399 4.242873 3.739092 4.590916 5.070899 4.901953 3.414123 3.891976 2.967106 4.237111 4.705700 5.553615 5.407481 4.815608 4.085055 4.321952 3.607189 3.601148 4.386340 3.372151 4.061768 2.753838 3.499588 3.354885 3.601929 3.739481 2.851205 5.189624 4.561936 4.961427 3.906202 4.350781 5.889271 6.075448 5.612951 5.579629 4.819706 5.045172 6.009643 5.491772 5.146538 3.829520 2.570785 3.606844 3.563539 3.497635 1.718142 1.718733 2.292203 1.716375 2.169772 2.121210 2.899389 3.939071 3.815563 4.220225 4.547563 3.326856 3.770312 3.963027 3.581192 3.650516 2.379408 2.173761 2.436325 2.028596 3.189000 2.418418 2.381895 3.705703 3.416107 3.398451 2.025510 2.698129 2.817803 3.409527 3.564803 3.519964 3.505853 3.951002 5.143930 5.358333 6.454944 6.360431 6.294749 5.932630 5.617358 5.515661 5.828689 6.110903 6.979144 5.482593 5.659382 4.915182 5.866062 6.107130 6.336763 5.572076 6.094689 6.194165 5.935556 7.017652 5.115624 6.697377 7.227235 6.281435 7.030965 7.355664 7.316457 7.447716 7.323152 8.880618 9.080566 8.862049 8.441570 9.742048 8.683566 9.484095 9.394972 9.267819 8.760918 9.182273 9.763334 9.634161 9.668460 8.840005 9.601603 8.172956 7.709114 7.301591 7.764163 8.079833 6.863693 6.283309 6.934470 6.726798 7.202390 7.174784 6.968600 6.403514 6.231149 6.265780 7.650036 5.831435 7.277379 7.378893 7.025571 6.836066 6.841155 7.119241 6.826006 5.997581 6.150886 5.588275 5.088351 4.440274 4.883914 4.854532 4.679466 3.983934 3.064149 3.887639 3.556171 4.458193 4.294961 4.465814 4.518205 3.406554 4.021466 4.138730 4.431778 4.385075 4.067516 2.945978 3.320946 3.258558 4.135185 3.668259 3.888928 4.258637 4.022865 3.990148 3.626755 4.409724 5.827051 4.945536 4.890762 4.042914 5.021914 4.931482 4.074053 4.114329 2.064447 2.851079 2.593877 2.067639 2.329543 1.253006 2.148306 2.947082 1.624536 2.355634 2.901783 2.883099 3.285547 3.605573 4.430806 3.968730 3.663636 4.178227 4.233604 4.311697 3.998673 3.648254 3.281023 2.410803 2.924659 2.648096 2.130263 2.272438 2.155818 1.990869 1.803435 2.245634 2.184847 2.485506 2.916817 2.566905 3.965706 4.611550 4.734484 4.770487 4.873050 5.375945 6.405064 6.042242 4.343150 4.886633 4.538635 4.643196 4.936860 3.930585 3.441602 2.870846 2.009445 3.837415 3.595938 3.194120 2.255957 2.951016 4.073834 5.436723 5.646743 5.727540 5.372635 4.756497 5.133324 5.987976 5.193043 4.927968 4.123110 3.891437 5.223943 4.642787 4.181548 3.885219 4.734830 5.981985 4.642807 4.403063 3.950286 2.863258 3.585618 3.016865 3.657689 3.055663 2.283072 1.529884 1.355125 1.011130 0.637501 1.221234 0.636547 0.626594 0.028163 -0.280966 0.544878 0.953519 1.123028 1.265964 0.283975 0.805613 0.020907 1.133337 0.139366 0.229662 0.632488 -0.614284 -0.122993 0.298975 0.628589 0.683776 0.170178 0.421690 1.302084 -0.181543 0.390256 -0.590653 -0.370364 1.666592 0.786203 0.105874 -1.290536 -0.848170 0.463399 1.685114 0.813414 1.183980 1.234079 1.496463 1.704201 1.396071 1.792291 2.221119 2.100791 1.081661 1.698763 2.629122 2.524543 3.186099 3.832266 4.010615 5.121811 4.932133 4.273184 3.743428 4.078689 4.236649 5.190108 4.283894 4.069309 3.924891 3.335723 3.576599 3.862869 3.568978 4.158006 3.564844 3.751247 3.112858 2.798781 2.393811 4.948900 6.118370 5.297231 5.666459 5.902963 6.413727 7.565245 7.321856 7.167901 7.562347 7.026936 6.983214 8.075988 7.919794 7.489452 7.503972 6.950339 7.088524 6.844849 6.998934 6.330239 5.959360 6.521602 7.304526 6.851216 6.239860 5.359528 5.223209 5.956932 6.238451 5.936376 5.812570 6.382579 6.464104 6.476749 6.544221 7.554129 7.777254 7.750714 7.153711 6.745921 6.560035 6.523513 6.877996 6.413027 6.738978 5.708692 6.560328 5.895835 6.519795 7.266561 7.792185 7.166201 7.595374 8.568666 8.187329 7.808149 8.171346 8.287784 8.512289 8.645007 7.814255 7.589669 5.789523 6.189123 6.858301 7.858510 6.840887 6.206762 6.096578 6.217083 6.600174 6.967691 7.472984 8.122671 7.650626 6.361633 7.146586 7.366528 7.531584 7.971453 6.991621 7.042083 7.044193 7.031233 8.065849 8.988202 8.597504 8.372995 8.759841 8.541698 10.039747 10.122412 11.195338 10.979451 9.903751 9.680728 9.254302 7.921309 9.379123 9.715169 9.510145 8.429070 6.556672 7.104952 8.356303 8.293493 9.303017 9.320487 8.859135 10.452003 9.306733 10.000096 10.577026 10.870747 11.027491 10.628150 10.197085 9.210706 9.527552 10.268782 10.371819 10.729788 9.534951 10.465911 10.527234 11.090752 10.597887 11.697821 11.232473 12.125101 11.685795 12.971322 12.511527 11.970565 12.530228 12.436380 12.679402 12.639791 12.219478 11.175719 11.375317 11.793933 10.949441 10.337028 9.875862 9.141573 10.122720 9.977363 10.536205 11.015280 9.933834 10.364309 11.151426 12.160372 12.661052 12.687519 11.348776 11.203973 11.414191 12.057632 12.048289 10.794008 10.111530 11.062498 10.382073 11.473166 10.187610 9.955904 9.959280 10.174168 10.378111 9.798768 9.656150 9.758248 9.714458 9.398317 8.205931 8.402077 8.187515 8.118477 7.476567 6.287383 6.561757 6.594867 7.141894 7.784630 7.864629 8.351249 6.974616 7.266805 9.050480 9.324630 8.681899 7.368426 6.834156 6.684859 7.794913 7.611731 7.185833 6.672829 6.778381 6.625388 6.765495 6.724162 6.655942 7.209445 8.143991 9.012815 8.464045 7.852303 8.206061 9.821908 10.758417 10.480802 9.156753 6.254697 6.864098 7.114495 8.036398 8.848010 7.335255 6.559467 6.858696 6.530503 7.730252 7.671679 6.795313 7.220071 7.961948 7.445219 6.732416 5.906416 4.722883 6.412603 6.456424 6.653470 5.462498 4.643628 4.372805 5.635642 7.223887 7.403206 7.680969 7.111304 6.403413 6.620462 7.517125 7.682955 7.462123 6.689931 6.797525 6.832387 7.071031 7.807549 7.468528 6.896151 7.239466 8.003175 6.919965 6.121008 5.764178 5.783064 5.972425 6.040310 5.191863 5.503272 4.597828 4.680531 5.140282 4.997080 4.730833 3.150632 3.321104 4.532701 3.806041 5.113015 4.386272 5.094066 5.302285 6.021319 7.618542 7.739732 8.107069 8.206994 8.469260 7.413771 7.307332 8.133195 9.232453 9.012953 7.410408 7.334848 6.686594 7.520280 7.804424 7.731115 7.488244 7.738461 8.349890 8.162894 8.799866 9.031849 10.236419 9.999893 10.211820 9.327949 7.878163 8.426795 8.130755 8.570598 6.890783 6.767192 7.244396 6.930657 7.076947 6.759457 6.695703 5.834681 5.325154 5.939859 4.221392 4.682236 4.386648 3.736734 4.006531 2.917176 2.993959 2.581595 3.331468 4.253274 3.616107 3.233852 3.049590 2.955768 3.162885 3.089835 3.469464 3.513461 2.819891 2.958281 2.048428 0.614582 0.984064 0.519025 1.904247 0.086929 0.384599 1.827114 1.306650 2.131537 1.485278 0.941625 1.962661 1.453934 2.232372 1.704533 1.052174 1.155312 1.448004 1.407506 1.036493 1.771594 2.485002 1.499856 1.947468 1.526399 2.283249 2.344525 1.621245 1.782870 2.094388 1.815184 1.978418 2.124255 2.098445 2.893569 4.159061 3.101255 2.910337 1.955922 3.556864 4.674054 4.547214 3.657701 3.189488 3.684695 4.200248 5.505676 6.194518 4.815243 4.704781 3.709688 4.060038 4.320367 4.517421 3.830434 3.742518 3.223235 4.063710 4.671655 3.499854 4.465009 6.169245 5.556765 5.879623 5.362590 6.316496 7.282796 8.222567 8.031033 6.222208 5.810744 5.579011 5.804108 5.910833 6.069611 6.108751 5.705734 5.383510 5.131574 5.251944 4.750669 5.829031 5.378067 5.648579 4.323441 4.595161 4.084307 3.504343 3.361928 2.983424 3.906290 3.725187 3.359816 3.352603 3.983421 3.889010 5.001798 4.381720 4.672565 5.026919 5.233100 4.681201 3.244176 3.090942 2.464558 4.506939 4.435215 3.486292 3.902447 2.697703 3.808957 5.144731 4.971088 5.663138 3.835747 3.647848 3.502224 3.622786 3.120039 3.070382 2.208248 2.445583 1.642718 1.366445 1.698437 1.885169 2.233140 3.147129 3.016673 3.367372 2.729174 3.174492 4.432496 4.532879 4.644564 4.353902 3.766955 4.316318 4.121952 5.414301 5.458467 5.327013 5.481303 5.594965 5.825128 6.502793 7.126580 6.779042 7.566838 6.995734 7.440708 7.022895 7.519226 6.977687 8.477600 8.957458 9.328312 8.802845 7.830446 8.070181 10.451606 9.832163 10.053514 8.663941 7.497998 7.522810 7.968462 8.664878 8.822337 9.065597 8.421243 9.464187 9.639069 10.249144 11.648809 11.789127 10.858808 10.918693 10.537503 10.174012 10.254046 9.110386 9.072084 10.171267 8.733841 9.680042 9.127897 10.000448 8.600072 9.328549 9.100204 9.712078 9.947930 8.549731 7.886542 7.288234 7.482621 7.620445 8.344806 7.869055 7.199614 6.817521 6.490387 7.011870 6.929470 6.542110 5.627285 5.684387 5.516112 6.432992 5.266554 5.696450 6.167834 5.641023 5.724783 4.995921 4.041053 4.926763 5.060192 3.809810 2.705782 2.203020 2.334363 2.208822 2.413910 1.686031 1.818522 1.402094 2.314590 2.607375 2.862381 1.898726 2.675466 2.615387 2.066204 2.179449 2.520733 2.006865 2.191015 3.307420 2.695828 2.050475 2.400345 2.861250 3.300985 2.823498 2.181944 2.966986 2.894318 1.292477 1.989460 1.610749 2.033171 2.326768 0.904495 1.491019 1.133323 0.582740 1.116554 0.836222 0.889886 1.898997 2.310924 2.986696 2.809408 3.101549 4.029975 2.675521 3.741069 2.372673 3.298757 3.499025 3.723395 3.473577 3.407596 2.725591 4.433079 4.100435 4.282442 5.431353 5.370313 4.803076 5.180521 3.717194 5.292933 5.091622 5.960964 6.808572 4.808202 4.944107 3.597314 3.487388 4.457807 3.600255 4.546015 3.478521 1.972248 3.498801 3.603945 4.598778 5.193533 4.853285 5.298518 5.339708 4.522951 5.828411 5.249616 5.147805 5.275409 4.665525 4.215161 4.112786 3.943910 3.901245 4.085141 4.550124 5.711518 5.919409 4.995126 6.491964 6.940802 7.077311 8.032230 7.129157 7.526009 7.736214 6.080364 6.529159 6.633916 6.028142 6.469000 5.083449 5.170591 5.327564 5.530695 5.624253 6.019232 4.896773 4.311062 4.785807 3.822429 3.909576 2.828701 3.313306 2.348184 2.178829 3.008936 2.000353 2.611242 2.485462 3.132062 3.772763 2.829826 2.905913 2.830600 2.712859 2.312221 2.402333 2.996901 1.912148 3.060928 2.758536 2.327334 2.834505 2.851165 3.204981 3.033499 3.256514 4.038623 3.666897 3.537950 2.485691 2.922907 2.704338 0.769633 2.005246 0.290357 0.090448 0.449304 0.110405 1.245920 0.334942 1.442462 0.381821 0.109274 0.651519 1.093835 2.093503 1.970772 1.173765 1.618670 2.534934 3.390294 2.097099 2.727976 2.693447 2.564855 2.302281 2.215933 1.598533 2.081653 0.705954 2.188970 3.801196 2.236197 2.870322 2.070282 2.159307 3.599810 4.111579 4.036344 4.051420 1.906977 3.108165 3.724371 3.621807 3.117151 3.663413 2.948997 2.252629 2.905513 1.949647 2.241650 3.255652 3.424106 3.549023 3.781663 3.121208 3.287878 4.516277 4.684668 5.869912 5.986492 5.982005 5.718133 4.073056 4.991952 4.793997 4.797901 3.211333 3.708214 3.325757 2.648444 3.464759 3.703413 3.879699 4.319455 3.722064 4.305874 4.146370 4.165073 5.251581 4.760827 5.250782 4.849847 5.554890 6.201023 5.560056 5.734486 4.618359 4.899919 4.239343 4.339886 4.740106 3.710080 4.263161 4.024993 3.910748 4.672545 4.664763 4.331617 3.509125 4.610247 5.147411 5.426221 4.664815 4.402889 4.619224 5.479650 6.502964 6.366549 6.510598 5.093519 5.818431 5.239173 5.134878 5.687699 5.051509 5.319292 5.362317 4.315928 4.973207 4.464224 5.532413 6.241026 6.101821 5.738419 6.281216 6.686459 7.203701 7.510789 6.982304 6.830106 6.814533 7.383339 8.020423 6.995254 6.530384 6.498286 7.565277 6.890878 5.837383 5.037084 5.366862 5.146641 4.663481 4.811483 5.288121 3.955098 5.022955 4.480839 4.760078 5.468762 4.442955 5.391478 4.915119 5.282680 4.955324 4.125830 4.314147 4.655424 4.663743 4.022692 5.077484 4.510904 4.119666 4.647556 4.484129 4.823648 4.920221 4.067625 4.552704 3.704162 5.231619 5.667779 5.275008 5.161498 5.632865 5.588626 7.099159 7.976921 7.628764 7.673340 8.776577 7.976211 8.897477 8.146561 7.833742 8.348609 7.667274 7.317770 7.017572 7.391534 7.578875 8.217402 8.866744 9.650369 9.490575 9.787553 9.768275 10.103406 9.528064 10.722844 10.276004 9.944304 9.113924 8.571989 8.269447 8.767655 7.246648 7.663485 6.287936 5.218774 4.681417 4.129882 4.704689 5.064662 4.125148 4.501986 5.055174 6.882451 6.836846 8.169165 7.612667 6.875737 7.041160 6.949143 6.879335 6.517786 6.323792 5.386403 5.857980 6.034048 6.413477 7.347259 6.980064 6.629925 7.294708 7.066176 6.976683 6.284043 5.127059 5.066717 5.298296 5.962653 4.017128 4.347527 3.527189 3.914207 3.717044 3.009278 3.638988 4.224411 3.723167 3.650710 3.558096 2.747903 2.875754 3.115181 3.680984 3.823255 4.161515 5.086705 4.008016 5.360308 4.731921 5.075035 5.032146 5.299303 5.318272 4.646042 3.971822 4.210769 4.494935 5.254279 5.300714 5.059631 4.154637 3.386565 3.994272 3.164396 3.629651 4.197173 2.994139 3.110103 2.650589 2.402662 3.121641 4.450428 3.836352 2.531354 3.861077 3.929127 4.848966 5.215464 4.608043 5.061681 4.492647 5.422065 6.989632 6.044298 6.294004 5.427142 5.348938 6.443714 5.397969 5.426739 5.023248 5.223440 5.371498 5.930777 6.120744 5.571052 5.742437 6.826591 7.138972 7.879332 6.989559 6.525331 6.333263 5.955255 6.042818 7.952896 8.156531 8.580298 7.365498 7.683639 7.740370 8.805692 8.912735 9.392083 7.628680 7.839585 7.921808 8.655414 8.752864 7.811848 7.171961 8.106983 7.641263 8.467581 8.420470 8.539604 7.806516 7.249899 8.271893 8.321297 9.570506 8.556071 7.321323 7.359460 7.243978 6.255150 5.560817 6.079541 5.726927 6.379757 6.278617 5.960964 5.168658 5.498882 6.565952 7.183753 6.957129 8.001183 6.523295 6.790241 7.820337 8.029745 9.170909 7.837678 8.419405 9.458940 8.287725 7.982042 8.799060 8.514328 8.798951 8.538986 8.428685 7.813457 7.884002 7.732384 6.827599 5.895615 4.690417 5.049162 5.418050 4.491508 4.910879 3.873608 3.407217 4.326662 4.100433 4.358238 4.709729 4.884038 5.455355 4.897448 3.114197 4.334037 5.074107 5.556606 5.315074 5.196577 4.563976 5.193832 4.039334 5.108921 5.594596 5.542003 5.401080 4.340096 4.238122 2.659091 2.758795 2.667151 3.323130 3.421599 3.783991 3.678835 3.672731 3.502159 3.452009 3.615292 3.223705 3.104643 3.053492 1.688607 1.336055 0.793034 0.720815 1.709891 1.562892 1.457467 3.344219 3.442302 3.265256 3.630147 3.296813 4.708917 4.184882 4.331540 3.447964 2.437569 3.000332 2.847029 3.436903 1.963491 2.327168 2.689872 3.483100 3.338744 3.234929 3.689572 2.655729 3.449610 4.207190 4.481983 5.898617 4.666429 3.899275 4.433067 3.903175 3.803889 3.461082 4.003540 3.692163 3.786616 3.290148 3.196091 3.112314 3.941772 5.669361 5.551837 4.618137 5.995156 4.782394 4.943408 4.488592 4.404970 5.492079 5.419882 5.836567 6.192035 4.677783 6.120398 5.660365 6.459484 7.010014 6.534752 6.432994 6.271126 6.821476 7.222001 6.222751 5.470079 5.882157 5.586656 5.731052 6.223084 5.980902 5.896053 5.607546 6.449425 6.554252 6.836204 7.264290 7.201316 7.342914 8.246989 7.721918 7.916064 7.209979 6.720006 8.120184 7.422481 7.092599 7.785018 6.349473 6.650003 5.340937 5.657495 6.737218 5.525778 5.423966 5.502993 5.385465 5.717419 5.873238 5.506821 5.488027 4.997991 4.383702 4.136507 3.330007 4.270047 5.455997 4.366888 4.509130 3.883044 4.159956 4.008500 4.201530 3.694980 4.027939 2.551846 3.104403 2.592362 2.588557 3.073607 3.599189 4.480358 4.019478 3.628746 4.363589 4.631556 4.872524 4.843972 5.178481 5.177097 4.902375 4.039875 4.661980 5.022873 5.813571 4.511466 4.899388 4.900808 5.963245 6.730751 7.366629 7.778699 7.889701 6.072807 7.035472 7.018913 5.959914 6.015990 5.772889 4.313344 5.306792 4.787443 5.362312 6.089815 5.285954 5.817900 5.458810 5.931790 6.453719 4.934510 5.696099 5.592698 5.496281 6.165061 6.151314 6.123976 5.844564 6.779746 6.665566 7.138870 6.456817 6.404108 5.846387 5.526756 4.598732 5.291663 5.548004 6.214937 5.387981 4.311754 4.470770 4.657574 4.953377 5.532572 5.978898 6.034395 5.003066 4.162532 3.917763 4.784245 5.687963 4.775118 4.821936 4.008531 3.612717 3.818099 3.551646 3.490933 3.401194 2.936444 2.846332 2.215562 0.869435 1.239274 2.368412 2.422077 1.166697 0.706741 -1.113491 -0.615985 -2.922565 -3.937018 -4.043124 -5.930845 -7.015714 -8.622408 -9.870781 -10.221779 -8.959448 -8.675631 -8.326149 -7.603624 -8.391708 -7.907366 -8.228534 -6.839793 -6.416447 -8.353931 -7.316226 -8.481622 -7.597433 -7.429782 -8.175185 -7.513772 -8.686985 -8.897985 -7.416564 -7.863221 -7.617310 -8.701710 -8.286688 -7.798504 -6.233312 -6.853010 -6.045059 -6.747110 -5.748757 -6.454988 -5.700487 -5.376124 -5.623154 -5.516244 -5.265964 -6.210871 -6.723843 -7.904710 -6.491649 -6.332816 -6.670941 -7.455283 -9.890479 -8.685654 -8.249377 -7.714495 -7.729892 -8.807641 -8.776805 -10.006448 -10.334196 -10.159581 -9.877161 -9.567041 -9.100254 -9.868303 -11.012609 -11.489496 -11.108685 -10.282859 -10.578347 -10.844825 -11.246589 -11.445913 -10.312611 -9.951087 -9.346735 -9.343675 -9.233953 -9.506946 -8.971439 -9.338443 -8.582286 -8.271261 -8.657461 -8.404182 -10.016672 -8.074104 -6.888324 -6.307552 -5.992897 -6.121650 -7.638068 -6.667013 -7.029419 -6.977357 -7.593993 -7.290337 -8.035807 -9.433091 -9.879401 -9.754855 -9.732552 -8.447204 -9.624676 -9.215682 -8.837703 -8.080314 -7.400306 -6.831901 -7.786640 -7.413915 -7.703321 -7.505418 -6.892297 -7.580203 -8.004531 -7.669384 -8.571609 -9.660971 -8.863093 -7.926530 -7.867415 -7.973893 -8.465298 -8.148893 -7.588487 -6.018046 -6.195750 -6.378374 -6.709262 -7.056665 -6.348481 -6.841520 -6.832738 -6.697750 -7.486081 -6.687961 -7.205425 -6.692546 -6.154893 -5.518064 -5.930534 -5.510741 -5.458637 -6.057668 -4.786400 -5.019438 -5.200548 -4.811563 -6.477777 -5.154301 -5.302168 -5.050499 -4.083774 -4.613107 -5.923654 -5.590297 -5.046826 -3.583544 -4.070752 -3.909934 -4.745204 -4.268364 -3.930550 -3.751929 -4.008899 -4.076098 -3.578556 -2.559335 -2.819144 -2.722250 -3.474150 -2.799988 -1.629855 -1.236496 -1.133425 -2.229228 -2.458275 -1.212042 0.766121 0.128593 -0.709984 -1.152647 -0.817870 0.232099 0.631439 0.462643 -0.476146 -0.817561 -0.268641 0.422623 0.751698 0.448037 -0.782929 -1.216874 -0.893349 -0.284816 -0.713045 -1.863564 -1.169238 -0.206975 -0.063236 -0.283897 0.265573 -0.567993 -0.217341 0.933823 1.029276 0.250905 -0.063430 -0.456024 0.720734 1.686370 0.376912 -0.215103 -1.117876 -1.629497 0.239915 -0.419820 -0.314885 -1.801525 -1.946654 -0.846290 -0.715154 -0.029129 -0.110968 0.181692 -0.411163 -0.244244 0.516253 0.396521 1.226827 0.401117 0.453916 0.145591 0.304135 0.101289 -0.628947 -0.349741 0.264380 -0.710679 -0.837869 -1.756782 -1.833819 -0.442981 -1.150320 -0.000776 -1.091745 -0.811064 0.316450 -0.153057 0.646839 0.619361 -0.101386 1.200828 0.440558 -0.241300 0.720878 -0.216311 0.014236 -0.272189 -1.175167 -0.968544 -0.978896 -1.323559 -1.767112 -2.204032 -2.873431 -3.491491 -3.266946 -3.475730 -3.891347 -4.724046 -5.293739 -5.335797 -5.052052 -5.458273 -5.815174 -6.358438 -6.330998 -5.347906 -5.624760 -5.160561 -6.864201 -6.996882 -5.342329 -5.697141 -5.332013 -7.024135 -8.069512 -7.556002 -7.495096 -7.648954 -8.109416 -7.781412 -7.528723 -7.337581 -7.694195 -8.206136 -8.393425 -7.523274 -7.374659 -8.226232 -8.865628 -10.108312 -10.216255 -10.502672 -11.373556 -10.599549 -11.083929 -11.706266 -12.108252 -12.542721 -11.573893 -10.602043 -11.279830 -11.709820 -11.903795 -11.928545 -11.146555 -10.784593 -10.241678 -9.282714 -10.240050 -10.739341 -11.425632 -10.948002 -11.240973 -11.389550 -12.826249 -12.077005 -12.762122 -12.073213 -12.714782 -12.138668 -11.677424 -11.137427 -10.189506 -9.976114 -10.809782 -11.145605 -11.597716 -11.133881 -10.358732 -10.269451 -10.605088 -10.355287 -9.951805 -10.134095 -9.469827 -8.989568 -7.621801 -9.138847 -9.334581 -9.997185 -9.777417 -8.808544 -8.297355 -7.556898 -7.703702 -7.991557 -6.927067 -6.580376 -4.740585 -4.830237 -4.924053 -5.008775 -5.226463 -3.994392 -4.273587 -3.956686 -4.217259 -3.710951 -3.422960 -2.931496 -2.580208 -3.212424 -2.489083 -2.519550 -3.107306 -2.527819 -2.924136 -2.462763 -3.281816 -2.762456 -2.270894 -2.684016 -3.183623 -2.687182 -1.964879 -1.131749 -1.861581 -1.999521 -2.604551 -1.792117 -0.982900 -1.270228 -1.765473 -1.130270 -1.162590 -0.427946 -2.036270 -0.927854 -0.864707 -1.784377 -1.807755 -2.081363 -1.208161 -2.759582 -3.124308 -3.147280 -3.184752 -3.614842 -2.983178 -3.848802 -3.159930 -2.804914 -3.067989 -2.059712 -2.904498 -2.685999 -2.913907 -3.163670 -3.366412 -4.286236 -4.747909 -3.943300 -4.930970 -4.077559 -4.122465 -5.129248 -5.064835 -4.539564 -4.651790 -3.754542 -4.566935 -4.458173 -5.265234 -5.387286 -4.641267 -5.518650 -5.084811 -6.005136 -5.732268 -5.587189 -6.382652 -6.439678 -6.102211 -6.585384 -6.344961 -6.143244 -5.565113 -6.675805 -6.110401 -6.068929 -5.860374 -5.326011 -4.664359 -5.124478 -4.639094 -4.369181 -3.571124 -3.737917 -4.109845 -3.248326 -2.347131 -2.800334 -3.255085 -3.541341 -2.747945 -1.792101 -1.184306 -0.290987 -1.793082 -2.744645 -3.139020 -2.211823 -3.667832 -4.191743 -4.507493 -5.408354 -5.587099 -6.018286 -5.193201 -4.836568 -5.456141 -6.006483 -5.294727 -4.676100 -4.777014 -3.988753 -5.718819 -6.887967 -7.134818 -6.468008 -5.363263 -6.102878 -6.729381 -7.686272 -8.438149 -7.370514 -7.534438 -6.155921 -5.928939 -6.725958 -6.658049 -6.144391 -6.173643 -6.582785 -6.066079 -6.408153 -6.527413 -7.310565 -7.168075 -7.306177 -6.700715 -7.048600 -7.401438 -7.549521 -6.489011 -6.948395 -6.372400 -7.059700 -7.721253 -6.997986 -7.266689 -6.201054 -6.240893 -6.504223 -5.312474 -6.048204 -5.734589 -5.209354 -4.767662 -3.814957 -5.413439 -5.680105 -5.915264 -6.020416 -6.080031 -6.364169 -6.853133 -7.314984 -7.287033 -6.343541 -6.169205 -5.770803 -6.144017 -5.842014 -5.390109 -5.223197 -5.661016 -5.281424 -6.444226 -6.519999 -6.660028 -6.631914 -5.719828 -5.756790 -6.271676 -5.975920 -5.017702 -5.107945 -5.561913 -5.384533 -5.354569 -5.601487 -5.244341 -4.774177 -3.622752 -5.148337 -5.331942 -4.706624 -4.466495 -4.698896 -4.082492 -4.886468 -5.731276 -5.792691 -5.432904 -5.455600 -5.482929 -6.790702 -6.871800 -7.158374 -8.405274 -7.549294 -8.583302 -8.318982 -8.739685 -8.270544 -8.068207 -8.786792 -6.725138 -6.736494 -6.046418 -5.465044 -5.119079 -4.184369 -4.896108 -5.530827 -4.672192 -5.117856 -4.994950 -4.900140 -5.546317 -4.702039 -6.252597 -5.389541 -4.226125 -5.562893 -4.554902 -5.786334 -5.740638 -5.388226 -5.796600 -5.681299 -5.691016 -7.014262 -6.099704 -6.143799 -6.135930 -6.921394 -7.303397 -6.890430 -5.722861 -6.297607 -5.223459 -6.529698 -7.093510 -5.910045 -5.696492 -6.124077 -6.226591 -7.755940 -7.492699 -7.583118 -7.517680 -6.811490 -7.377533 -7.095225 -7.576401 -7.818009 -6.125977 -5.980247 -6.740514 -6.865908 -7.966188 -7.404194 -7.736296 -7.112287 -7.148521 -9.006144 -8.923392 -9.291969 -9.368232 -9.099478 -9.546302 -9.684158 -9.890458 -9.537222 -10.032105 -9.873011 -9.284149 -9.360717 -8.373111 -8.426099 -7.466677 -6.995597 -7.074006 -7.600065 -7.174561 -6.846185 -7.098308 -6.774751 -7.359701 -7.235701 -7.661787 -8.554356 -7.715226 -8.220897 -7.469613 -7.868699 -8.863779 -8.399952 -7.557601 -7.183213 -6.288439 -7.732399 -8.184905 -8.713308 -8.434407 -7.582501 -8.134241 -8.353270 -8.350301 -9.175021 -8.582301 -8.744951 -8.499800 -9.484209 -9.124458 -9.162803 -9.496364 -9.113792 -10.106529 -9.780716 -9.405781 -9.349618 -8.616156 -7.506795 -8.116106 -8.196206 -8.614110 -8.738926 -7.707259 -7.597798 -6.689570 -7.833405 -8.300932 -6.417152 -6.968191 -7.364801 -7.026783 -7.132124 -6.372135 -7.384948 -7.840910 -8.173557 -8.308374 -7.007272 -6.125101 -7.185020 -7.879262 -7.290453 -7.017511 -7.205498 -6.706091 -6.705766 -7.192571 -7.052306 -7.926208 -8.167500 -7.913787 -8.204928 -8.974981 -9.836289 -8.524866 -9.168472 -8.680486 -8.965939 -8.667087 -8.372491 -9.280750 -7.964080 -8.585119 -8.293966 -9.658324 -10.150929 -10.018172 -9.434675 -9.697577 -9.365263 -9.713076 -10.068331 -9.555627 -9.508188 -9.147068 -9.285834 -8.827097 -8.877907 -9.929392 -8.940570 -8.794590 -9.573395 -8.584924 -8.508686 -7.689644 -8.699532 -8.081216 -7.928882 -7.650449 -7.594848 -8.357062 -8.742770 -8.699555 -7.754835 -8.076283 -7.570822 -7.375060 -7.072321 -6.053784 -6.486546 -6.298592 -6.274118 -7.190466 -6.485847 -6.837975 -7.589019 -7.320217 -7.741672 -8.676829 -8.530419 -7.495126 -7.405069 -8.034884 -7.969781 -7.238549 -6.998671 -7.626418 -8.695761 -7.979075 -7.766859 -7.500837 -7.579940 -8.262013 -8.461175 -7.918931 -7.734305 -8.093572 -8.063398 -7.817490 -8.422508 -8.044926 -8.819488 -9.158451 -8.928473 -8.597894 -8.372739 -7.871806 -8.046467 -6.859219 -5.799780 -6.643659 -6.232914 -6.333149 -6.577061 -7.622145 -7.299875 -7.200018 -7.873341 -9.227846 -9.646087 -8.793956 -8.069527 -7.468698 -7.509799 -8.075524 -8.843650 -7.422560 -5.990261 -6.284746 -6.631663 -7.135476 -6.355629 -5.659134 -5.110858 -4.669773 -4.824980 -4.565082 -5.600741 -5.644843 -5.499907 -6.795362 -5.618066 -6.954167 -6.679590 -7.004633 -8.334702 -7.462462 -7.210392 -6.161651 -5.499427 -5.594277 -6.145066 -4.825060 -4.058326 -4.277916 -3.626609 -4.125271 -4.746246 -5.251728 -5.726293 -6.523827 -6.733856 -7.044467 -5.853562 -6.191039 -6.379036 -6.659097 -7.048777 -6.420206 -5.409013 -5.916889 -5.907055 -6.493462 -7.285584 -6.454675 -6.639878 -6.466939 -6.527519 -7.464582 -7.606331 -7.183501 -7.909696 -6.858696 -7.207512 -7.939441 -8.283394 -7.473269 -6.750082 -6.746497 -7.567970 -6.935449 -7.425830 -8.018290 -7.006671 -7.201398 -7.468900 -8.210939 -8.130218 -8.690832 -8.837424 -9.077826 -8.916529 -8.932326 -9.026530 -9.207517 -8.687808 -8.406888 -8.348043 -7.522047 -8.134659 -7.889579 -7.831943 -8.674080 -8.317540 -8.209385 -8.927482 -8.780766 -9.728126 -9.619387 -9.234152 -9.301130 -9.037406 -10.232382 -9.445991 -9.665861 -8.438141 -9.088635 -9.771221 -9.657739 -9.901692 -9.609156 -9.178826 -9.723107 -9.656746 -9.018846 -8.029429 -9.176572 -8.039776 -8.527306 -7.479272 -6.901515 -7.094347 -6.769151 -7.287804 -6.819142 -6.095334 -5.528307 -4.681685 -5.280022 -4.488940 -5.249542 -5.183168 -4.947742 -4.832145 -4.347793 -5.106359 -6.078533 -6.493943 -6.761331 -6.863918 -6.236979 