-1.097493 4.028601 -3.559812 -3.518235 4.153300 6.739432 -3.389068 4.284561 -5.842638 5.112639 -4.179308 4.177205 3.291821 5.587361 -4.715569 9.241979 2.431880 -2.612861 4.875557 9.025684 -2.122203 -1.506866 -3.809265 -0.217453 -5.960417 7.451065 -6.478361 -7.175806 -8.326959 -4.156667 -6.336867 -0.909093 -0.827909 0.099114 -1.874676 1.753252 4.081310 0.683184 0.351530 -4.939304 -1.669053 -1.768175 3.267042 5.111780 1.991564 -0.156833 -4.751971 -4.006185 -1.542811 2.816981 -3.122276 -2.337251 1.110650 4.069829 3.594588 -4.714475 3.662064 5.302140 4.494301 -3.793217 1.953028 -3.405614 -5.419031 -5.162462 -2.259279 0.376906 0.410548 5.997335 0.704612 -1.347359 4.101009 -4.537786 -4.118744 -4.360896 1.126151 -1.641576 -6.369203 5.311375 -8.094461 -1.348594 -6.738915 -3.318411 4.450480 -4.317153 -0.433316 2.260509 -0.411812 2.548884 -8.712017 0.338582 -10.669544 -1.663312 0.553550 -4.827847 -3.670165 -5.552858 -1.860508 0.718346 2.434743 -0.451356 -2.945062 5.351112 -0.666587 -8.327389 -0.016320 -0.831064 1.704879 3.489231 3.152270 0.746053 -6.908309 4.343063 -7.432673 3.294307 -0.723406 2.192479 4.759971 4.285825 6.749962 0.541319 2.817007 4.635553 3.311785 0.138920 -0.074560 5.101672 1.789833 -0.916911 -0.733333 1.883658 4.136172 -1.659143 3.936298 -1.705412 4.095101 0.853727 -4.232450 11.727508 -3.192813 5.857443 2.171136 -2.748946 5.730102 9.212416 8.210137 2.198165 -0.281163 -4.439989 -1.502237 8.090487 -6.482254 0.051294 2.861224 6.164329 -1.713965 1.243706 -1.316187 -3.560631 -0.791529 1.760465 1.531506 -3.362914 0.391342 0.842217 3.409973 5.369334 2.099318 -2.814614 -7.096682 1.689913 -1.665581 0.813630 -7.088844 -0.208705 -4.829757 -3.637757 -3.266472 -3.011665 -0.055273 12.787988 3.482464 4.197419 -3.783254 2.435551 -3.761304 -4.169876 -4.455986 3.536605 3.184950 -3.977722 -7.697132 -1.086464 -1.401453 3.383307 -2.948794 0.488531 -1.653414 -10.943678 0.976366 -0.325776 1.960545 -6.184107 2.820777 0.364883 -1.929601 0.647403 7.707044 -3.937393 -5.539777 -2.464751 0.373207 7.410678 -1.871332 -1.022527 7.054611 3.644709 8.568463 -1.065300 1.808814 -3.767038 -0.888331 1.298411 -2.043354 3.373834 3.081683 3.294479 3.347989 0.357552 3.015897 -0.450300 1.962426 -3.678069 1.994595 1.655255 -0.870911 -0.503141 -0.335747 2.456621 -0.478684 -2.938271 -2.364127 -4.641270 3.752642 -2.231790 3.500509 5.605793 -2.291558 -3.762500 -0.908146 3.964834 5.379338 -0.902134 -2.617549 0.810024 0.923698 -4.407626 5.889277 1.915932 4.765295 1.800907 2.180973 -2.918117 -2.726826 -0.314101 -0.770776 -0.974164 1.974995 -2.927975 -9.364918 -2.781354 -0.310950 1.907278 -1.275796 -3.166083 -4.413730 1.656611 1.121680 3.157686 2.246620 -0.301145 -4.817935 1.111295 -2.150877 0.337960 2.169098 -8.216116 1.299350 5.889971 2.665689 2.380925 -3.316347 2.892237 -0.440050 -3.283522 -0.578155 -1.066299 -3.232591 -0.058636 4.973464 1.933796 -3.251565 -5.094194 -1.795356 0.504539 2.344779 1.729364 -0.725449 -2.499923 -1.714288 -4.229471 3.426429 -3.024436 0.138711 -2.360888 -1.500946 3.999766 3.034754 0.036932 2.593291 2.103198 -0.424769 -10.840846 -1.839171 -2.397120 2.715789 1.992491 2.187180 -2.303100 1.186988 0.829303 2.831237 -1.060137 6.597060 -2.051101 -3.602981 -0.602007 -5.863090 -0.192251 -1.059047 -3.393303 -2.482459 -4.604781 -0.835399 4.035146 -2.017091 1.133445 -1.764473 -1.097295 -3.618156 -1.038888 6.321023 2.463369 2.436517 -0.063292 -2.229825 -1.942192 2.578771 -1.094478 1.351713 1.057898 -0.985283 -0.481271 4.496313 -4.070652 -0.993220 -1.421500 -1.066425 -6.116729 -0.292918 -2.911332 5.285371 -0.878603 -2.683121 -2.168251 -4.466288 6.159677 6.965808 0.787717 1.268678 -6.272841 -4.755849 0.078915 1.396262 -1.814099 6.038591 3.299365 1.473569 3.951341 3.167371 -2.720998 4.637307 -1.744146 3.924602 2.967819 -7.214910 -5.655254 -5.380001 2.790648 -0.783478 -0.827544 5.107555 -2.630997 -1.387486 3.631464 10.160290 -9.477413 4.743901 1.228360 -0.855322 -1.113416 -1.333633 -3.448174 -0.672134 -3.386362 -2.390861 0.080041 -4.818958 -1.239415 3.784661 -1.803359 3.840357 -2.074869 -3.779083 -0.885011 3.749983 3.011492 -2.761767 -4.636892 -0.983798 -1.108777 1.223678 0.485000 0.454345 0.732181 0.977227 3.528720 0.185708 -0.063396 -2.820308 0.009464 -0.251797 -2.953862 -2.578218 2.833295 2.442530 -2.768532 0.283615 -2.283779 3.148860 -0.369506 7.234979 0.996141 -3.797037 2.113669 -0.997631 -6.198657 -3.394241 -3.450955 -0.172321 2.167461 -10.444948 -5.646718 -2.697212 2.655914 -0.801222 -6.046648 3.044474 -4.847141 1.259557 3.018661 4.668105 3.995421 -6.751743 -0.119970 12.113433 -8.231144 8.401330 -1.553451 2.275024 4.322904 5.838427 5.386267 -3.442619 -5.379021 -6.978158 5.786281 1.638254 -6.312517 -2.338680 -3.933467 7.490595 -1.850168 -9.273600 -0.291783 -5.758289 0.602600 2.319030 1.929151 4.868933 1.802942 2.339792 -8.286463 -0.011447 -3.475926 -3.567921 4.139896 -1.515750 2.258324 2.228908 2.269072 4.593618 0.657216 -1.963075 0.609606 -2.407628 3.093949 -5.474570 0.676517 3.014351 2.745820 7.714771 -6.121298 0.512320 0.064643 -0.275487 -0.622397 1.393267 -3.512128 0.052409 2.554792 2.503245 -0.606281 2.037440 -0.662301 -8.034231 10.712801 0.902185 3.808489 8.197497 -0.016852 -6.645065 -3.740069 3.811756 7.646727 -4.439003 4.882378 -5.318569 -3.494947 -0.829125 -1.544289 8.410968 -0.899971 0.413701 3.749830 5.963108 -2.293651 0.025319 2.065873 -0.779960 4.282169 -3.932160 -0.222347 -7.891967 6.111945 -0.255834 -0.184462 -5.091721 -1.269022 -5.943467 -5.200488 7.638069 -6.473472 -2.412364 -6.960116 4.832057 -1.186248 -1.421229 1.329712 -3.866499 2.085453 4.140838 -4.270607 -6.062565 9.560960 0.470200 0.663430 7.777522 -0.549415 5.215543 -1.346058 1.581739 -1.715621 -4.658320 -1.266174 1.068424 -6.709421 -5.308211 -2.168714 3.470160 -2.315570 3.266699 -2.077361 1.331112 -4.075449 -1.042391 -6.562473 1.607220 -4.149471 -0.655118 1.933613 4.565445 -5.980619 -2.353775 2.624907 -0.568103 6.617101 -2.328100 -3.829085 -0.615993 1.761128 -1.216137 -4.336992 -1.314703 -0.908175 1.753259 6.595069 3.105660 8.126664 -3.113762 -2.150401 5.194539 -1.557328 3.453709 -0.263077 -2.146680 -1.300170 8.875589 -2.555443 -2.135590 -2.218168 6.087849 -0.138017 4.911856 -8.466995 -4.040110 -3.895068 -0.971419 -3.998483 -3.720776 4.818849 -0.361477 0.298616 5.556954 2.078025 -0.646049 1.514197 -1.404618 1.247829 -7.143832 -0.813383 4.031286 0.819291 1.105116 6.185675 -1.895581 -1.180902 0.943223 3.123983 -2.922260 7.456557 3.979347 6.687074 3.308040 3.321827 -2.209864 2.756626 -5.909665 -0.086375 -0.732548 7.407855 1.582148 2.162709 -5.158864 -6.499722 -3.549521 -6.389039 4.066808 -4.465418 2.293304 2.838612 -1.830167 1.510148 3.178180 -0.057635 2.282984 -0.957914 2.343177 -8.302489 0.725007 -7.441331 6.253913 2.245887 -0.073355 -1.948911 -1.221820 -0.796721 3.924310 -2.573314 3.107125 -0.093269 -4.410918 -0.988123 3.812366 0.510847 0.291872 -7.402610 1.961644 3.828600 5.747920 -5.312157 -1.714751 -3.841281 4.414594 3.019330 -2.690922 -7.180353 -0.683979 4.553525 -1.398124 -4.068074 4.223743 -3.847999 -0.236587 1.875870 -3.535326 4.589112 -1.660829 1.795068 -1.178093 1.462259 1.403674 -4.248495 -1.067899 6.481689 5.330592 -7.809316 -3.835300 9.422487 -4.987424 3.316654 -2.973398 0.745100 -1.871294 -4.263640 1.673286 0.728919 3.176827 -2.002504 1.090771 1.231417 -6.670313 -0.722025 3.729224 -4.604419 -3.682804 -0.692691 5.002570 1.605227 3.910248 1.091359 3.737687 -4.505484 -1.274922 -4.360386 11.078706 -1.268462 7.333824 -1.090194 -2.434823 -2.044118 -2.519429 -5.385779 -2.714348 -2.644435 -1.453650 1.552771 -0.681812 -0.165976 -5.291747 -2.000602 5.481311 -3.462790 4.945986 1.533601 -8.103767 3.561508 2.128527 4.444955 -4.480879 1.435459 -3.358035 2.166588 3.952217 -1.865713 -1.587483 -1.308921 -3.423525 -3.006900 1.819936 -1.085517 4.259369 3.751756 -1.158541 1.876955 3.821936 3.119177 -2.867356 -7.801835 1.055660 0.374642 2.799983 2.289621 -2.705279 1.024301 3.401694 0.280874 -5.187155 -4.914414 -1.684846 0.892441 0.571200 -1.840201 1.398288 1.529544 -0.963880 1.584751 5.988072 -0.095788 -2.446264 -4.631839 -1.338423 -6.737702 3.967728 2.910302 0.415325 0.958625 3.971043 1.217720 0.733838 0.000138 -5.271842 0.269258 -2.639093 3.033335 -7.748617 1.449700 1.224300 1.239555 1.044166 -1.684222 3.925374 -4.420727 -1.198192 3.744685 2.788331 0.083053 2.703197 0.124404 -2.119427 -4.759293 5.838634 1.783646 -0.911095 4.609533 -0.692333 -2.525130 -2.505781 5.073564 1.344143 0.960887 1.232283 4.204219 -6.345213 -5.274118 2.471668 4.061757 3.269244 5.651462 0.641977 -3.540704 -3.060849 4.483347 2.790002 4.440661 -3.512057 -1.846633 -3.697386 1.892547 0.892028 7.910416 1.696831 5.096811 4.994638 -7.889674 -4.231127 0.291829 4.589023 3.560554 3.332742 1.759111 -7.637923 4.024341 5.124363 1.123558 3.169868 -2.062793 -3.033112 -2.434432 0.161548 2.338689 -3.661997 5.040125 2.243990 -2.364658 -6.752760 -0.869902 -6.283563 -0.729806 3.937243 6.420765 -6.432439 -4.384043 -0.953924 -3.719895 6.015820 -5.895990 -6.851788 -2.938675 -4.741500 1.326400 2.676372 -0.166495 0.481118 0.642482 -1.378273 -4.025307 3.487655 4.958123 4.128097 3.805717 1.352528 -0.839167 -11.123707 -2.444531 -3.395295 -1.016266 1.522271 -3.158947 1.157046 -1.171402 -5.899610 2.202627 0.704805 0.635240 0.457269 -4.341400 7.137201 5.575869 2.337421 4.464273 1.088629 6.518336 0.017885 -2.651519 -5.084360 5.313273 -0.826565 -3.068347 2.524505 -2.510227 0.973726 -2.008201 5.936113 -5.284019 -4.369588 6.532529 -2.203846 8.610190 4.403678 2.042449 -0.253886 4.653637 -1.059218 3.633783 -2.728247 -9.445898 2.097839 -3.576940 -10.247795 -3.910321 1.501268 4.484411 -1.251221 4.762932 -2.903724 0.398138 10.116047 2.962084 -2.545145 -4.834621 -8.831670 -2.418361 4.304162 -6.856073 4.724080 4.213885 0.060295 -1.961493 3.007356 -2.738749 -2.938075 -0.678449 -0.400738 2.241005 2.094945 2.353893 -0.223699 -2.709631 -2.322331 2.574540 -3.425409 -5.443548 5.507571 -2.775850 0.832314 -2.086422 -4.038480 6.748031 -2.596341 -4.246598 -1.306991 3.841906 3.621521 5.313090 -0.321828 -7.278610 3.929795 0.265058 -2.656728 -2.939763 -2.506162 6.137262 5.124865 -5.353164 -4.105571 6.323110 0.213053 -0.056779 1.953677 -0.468096 -2.474944 5.426818 -3.096058 2.489445 -3.535333 5.146191 4.281968 1.164624 -3.674999 2.052577 1.561759 -8.885575 2.197025 -1.105480 -3.095440 0.020313 -4.946355 -0.992212 3.782870 3.217636 -7.045713 -3.465374 2.252687 -3.248112 -8.226084 0.274072 -4.938296 -1.305816 -3.867811 -0.358674 -5.390527 5.524947 -0.469288 -0.111817 4.765533 -0.893579 4.609574 0.847668 8.341492 -0.685721 4.459920 -6.326375 7.381902 -2.057988 0.870246 -4.695715 1.275577 6.267115 5.404753 -2.749135 0.764226 5.673899 2.492645 6.870970 -2.044718 1.317503 1.188412 -6.499625 2.163341 -4.081302 -0.597007 -0.431356 -0.055844 3.304531 7.980702 2.187900 5.037144 -8.484911 5.993382 1.692864 -6.322236 -5.427142 2.836210 2.983856 -4.675078 1.399935 -3.352107 -0.005759 -0.143270 -0.160038 -2.574397 5.473450 -2.584653 -1.500107 -6.563367 2.228431 -6.120339 -2.752743 7.673228 1.713975 -5.275595 1.094844 1.014748 0.948238 -2.599160 -2.243109 0.717807 0.573627 -6.751935 4.608097 -1.599853 -3.445986 -0.560362 1.950823 -0.652319 -0.730555 4.510415 -1.013916 -0.861530 -5.909319 -0.029894 1.910807 3.765216 -4.337293 1.762312 -0.932499 -3.084260 -3.183011 -8.474563 2.589545 -1.014256 -5.701683 0.530955 0.284359 0.690985 -7.467313 -4.121926 1.126957 -4.862839 8.469641 4.214080 -8.445621 0.882982 0.112994 2.483910 3.281202 -0.394527 -7.379966 3.773675 -4.711550 -6.615780 -4.341453 3.391661 0.277791 0.219909 5.589405 -2.483503 3.006751 -0.633026 -3.567600 1.266513 2.723192 -2.633253 -2.307346 2.943401 2.620949 -3.211907 2.069656 -1.115021 -3.583183 4.141159 -2.011445 0.933905 -4.779402 1.173693 -1.755980 3.118545 10.016845 0.828569 -1.308318 6.606490 -4.810767 0.803755 1.742364 3.801740 5.710042 -7.829983 -5.629904 7.499976 -2.048663 0.783553 -7.821330 4.188044 -1.450334 1.326900 -4.000868 -1.063493 1.468444 3.778473 3.113918 7.890595 1.744634 7.259124 0.869276 3.333305 -2.878428 4.747926 3.617262 -1.945297 1.185444 -6.400513 0.012567 2.106301 1.504152 6.631408 5.771152 -4.106513 -2.761613 7.438123 0.833874 -4.806923 -1.819080 -1.133557 -3.028517 -0.076825 -2.523039 -4.450599 -3.780145 4.699234 -0.996777 4.477427 -3.641151 -2.328737 -7.101128 1.281640 -4.617681 0.882028 -1.892848 4.277214 -0.974404 4.821901 1.504675 -3.745037 -0.931077 -1.221310 -1.273218 -3.888523 6.785959 0.963998 -1.164459 -0.680383 -5.552225 -2.312765 7.287750 -9.486339 -2.472658 0.053272 -1.755916 3.716521 -5.085677 1.369578 -1.714705 3.617964 3.203911 -2.702002 0.526091 -9.849057 1.786115 0.684363 -4.879343 -1.489729 -1.382821 9.706313 0.546595 0.745192 -4.309432 3.717494 0.195682 -5.420174 5.135995 -1.021612 2.261259 -0.513193 -5.372173 0.650034 2.200784 1.818734 1.426616 -1.323724 2.139794 1.736705 6.459291 -7.523894 -3.870880 1.382690 -6.662543 4.413654 5.612089 -2.140908 -1.074882 -3.455612 -2.491548 -3.110457 -3.559143 4.492963 1.045488 4.280363 1.732014 -3.192993 -0.134785 4.114930 -7.272098 1.146161 -2.164374 1.360468 3.701742 0.665235 -1.426912 -1.410261 -1.367405 6.286418 -0.516295 2.409581 7.197030 1.430329 -0.776788 1.498268 -1.601426 0.844479 -0.028058 -2.384993 5.760953 -2.726408 -6.643930 4.337930 -12.073667 5.306218 -1.783719 -8.531108 3.313408 4.855491 2.658866 -0.424401 7.153232 1.572101 1.019618 -7.050120 -3.637229 -3.917065 -1.317737 -1.295073 4.095775 6.516638 3.923283 -1.144503 -0.782239 -1.210645 3.286282 -8.284984 5.586247 -0.611338 -2.193029 -4.071088 4.084213 -4.201607 -3.847046 3.881588 0.884287 3.505627 3.090090 3.136947 -2.141597 2.935797 -2.865646 4.833549 3.431292 -9.475272 5.120040 -1.181497 -0.436787 4.283538 0.725312 -3.597930 1.790939 -1.006293 -3.134884 1.642095 -1.210792 -0.676216 -0.695175 9.873653 0.967218 8.755881 -2.655360 -6.769493 -1.092692 0.630407 -4.976937 10.534323 -3.740533 3.732994 3.229292 3.330599 -7.316007 0.508237 -0.103879 -0.135927 4.603305 1.863477 -0.125290 2.796881 -0.099577 2.545482 3.893294 3.272443 -2.007155 1.050527 1.095950 0.973769 0.515460 0.356625 -7.140207 4.313696 8.514470 7.628129 4.305500 1.756601 4.870280 -8.707537 4.877288 -7.246053 -6.341547 2.009576 -3.164514 -1.463924 -3.724096 -0.052578 2.873890 1.967798 4.677526 -3.537468 -2.530995 0.446675 -5.061318 -2.027089 0.147564 5.458776 2.584552 0.291350 1.004379 3.472438 -2.392006 -4.909626 5.386916 -8.436731 0.952824 5.592502 -2.328755 -3.854460 -1.041868 4.545008 6.146399 -0.244258 -2.001889 -1.542626 -1.192772 1.323444 2.977481 4.935063 -3.003574 0.806935 0.960279 -9.375547 1.796797 0.494994 -9.497093 -2.771108 0.066721 -1.647992 1.038011 -1.780382 4.260574 -1.702635 -6.214857 4.892259 -1.701283 3.846877 2.921616 -2.231452 1.289543 0.714802 0.736377 -2.358339 10.220762 1.175086 4.139389 3.681768 3.560915 3.096013 4.639468 3.801568 -6.938495 -8.471918 -4.742193 3.060246 -5.486838 -6.983493 -0.316341 -2.150159 3.878811 -4.515819 4.039975 8.358221 -2.869346 -1.724155 5.706976 -0.340959 4.806141 -1.711807 1.709716 -3.694589 -3.092266 -10.244300 3.487646 2.271700 -0.142836 2.881245 -1.922323 -3.289732 2.012789 6.050361 -0.200770 -2.924465 -2.038660 -1.296115 -1.268527 6.115650 2.375747 -2.640312 3.328329 -1.932518 -6.493533 -1.158029 8.458795 -0.475484 5.089700 2.335433 3.074175 -4.949896 0.515382 2.266300 1.288378 -6.604154 -2.504646 -4.466465 1.557554 3.495703 0.489819 -4.258822 -5.711153 -2.052565 2.985143 -3.260425 -2.740179 5.400612 7.664312 9.766319 0.938196 3.857354 0.594452 -4.951033 0.241876 1.648179 -3.801253 -0.327257 -4.991580 -3.342859 9.666870 0.310083 0.942373 -1.831835 -0.976822 -0.590600 -1.266787 -1.292737 3.778462 -4.358403 -0.255339 -2.779073 -4.728144 3.378953 -0.248473 2.715218 7.516123 -3.293590 5.819517 -0.685985 -5.493024 -10.293287 -2.072926 0.452814 0.140091 -4.613594 4.755793 -0.567766 0.154924 -5.305052 -4.909426 5.385067 3.983749 -1.293697 -3.158899 2.756106 2.663330 1.858876 6.211849 2.576483 -2.503639 -1.841766 3.399816 -2.625854 7.474392 3.492077 -3.870437 -0.236030 2.307412 -0.484172 1.517265 -6.800687 -0.142563 -5.498088 0.742849 -2.041026 -1.814273 -3.800321 2.062897 1.841839 -5.871020 5.159619 4.179137 3.877546 8.471240 -0.362425 5.522732 1.615240 1.338691 5.895706 -3.361978 -2.339422 0.345812 -7.336655 -8.503052 4.764267 3.947219 -1.141597 2.029285 5.144688 5.011581 -8.664407 -2.406638 -0.349516 -0.892679 4.215864 1.118506 -3.118076 -2.038984 -1.645586 1.028368 2.467097 -0.678694 2.439036 2.420683 -2.420938 -1.901642 -7.236182 -3.924089 3.564860 -2.375833 -6.487604 -5.204885 -1.461800 -3.751231 -6.296980 -0.586493 -0.690466 7.314875 1.428763 -3.197817 -2.543099 -2.597653 2.351601 -1.628030 5.895626 0.077713 -1.756252 4.054999 -1.939308 -4.403040 2.971125 1.928399 -0.628193 -3.184579 -7.366893 -3.602035 -8.976422 7.190207 -4.834058 4.045121 -1.239062 -0.204689 -5.005844 0.117531 1.850571 0.956531 -2.035582 6.392999 0.474327 3.450896 -2.548126 0.227069 -0.411582 4.189418 0.811972 3.336074 -7.203971 -3.081569 1.931950 -3.985082 -1.184170 3.615794 0.972704 -1.009332 -0.823493 -8.135924 2.827179 1.307317 3.663724 3.063735 0.512947 3.917312 0.682369 5.438720 11.649317 -0.735207 0.011411 -2.654103 -2.120561 7.818008 -2.004424 1.312125 1.169545 -3.387285 -7.273689 -6.873162 1.259817 2.951059 5.014142 -2.446110 6.670918 -3.979199 2.031803 -1.781268 2.836275 -0.554706 -0.408572 -2.359765 0.913854 -4.409175 -3.694413 3.940827 -4.473563 4.169824 -4.148991 4.788137 -1.043745 1.644024 -1.146086 -6.369770 12.319968 -0.190715 2.980040 -5.048650 3.635773 5.734260 1.652704 -3.619605 -0.614042 -3.123786 -2.363863 5.039869 -1.010734 -0.492863 -5.233761 -9.002875 -0.114942 -1.151001 -1.107697 -8.670991 3.280767 5.823242 -2.379426 0.739468 0.286071 2.877699 4.642586 1.059838 1.183346 3.321750 -7.177852 -3.414080 -1.314469 -4.050250 -1.125349 -3.737740 0.076435 2.825148 0.019518 5.513379 -3.276224 -2.505642 5.160081 -1.249860 -3.503330 -8.571807 2.973399 -0.242286 4.724173 4.132448 3.977173 1.478945 1.493056 3.590973 -2.688087 4.726708 1.087032 1.181544 -1.295840 -0.933721 -3.161515 -0.516752 1.713287 6.517204 -4.523301 2.059382 -3.203539 2.626793 -0.867153 1.434845 -3.880920 4.512965 3.990352 -1.195256 6.692551 -9.647941 4.969417 3.387664 -4.771392 1.260541 8.140209 2.729378 0.225518 2.637325 7.848022 1.204423 -1.538591 -3.863140 6.729604 -4.743139 3.944541 3.144012 3.233136 -1.725844 3.867189 3.445835 -2.221359 0.450880 -4.669551 3.788103 -7.145760 -3.174047 -2.710205 5.326516 4.863945 -3.080924 -1.864784 3.801733 -1.935561 -1.727889 0.339585 0.367191 -1.969691 1.138461 1.310826 8.905394 -7.737259 6.796673 2.807662 -2.379984 -4.569728 0.705909 0.700820 -2.120332 -1.827097 1.544394 -1.151977 -3.132432 -5.175574 0.558635 0.114995 0.144377 -2.223623 -4.071157 4.477826 -1.431797 3.985804 0.540716 3.247014 0.533095 -7.148494 -0.950711 -1.565623 0.860179 0.567131 3.156900 -4.154739 2.052931 -0.865104 1.740351 -4.222408 1.330650 3.653047 0.740272 0.976044 -1.534305 3.915220 8.218384 -3.371208 -2.489693 -4.977985 3.499061 -2.566071 -5.018705 0.924856 -9.287685 2.934462 -0.395236 -2.681100 0.388204 -2.416766 3.745903 5.393669 -5.577372 0.831307 5.186342 -0.445940 -0.427256 4.256428 6.479468 -1.974963 -1.512887 1.335273 -1.722384 -1.777761 -1.855854 -1.542830 -1.192411 -3.368246 2.588106 -0.468816 -2.735320 0.325580 0.183405 -2.243041 -2.078092 3.195474 0.210209 2.814062 5.056469 -0.460974 7.518136 6.119335 0.387359 -2.278641 0.228422 0.125859 4.709096 1.136911 -8.672531 3.198825 0.112276 -2.082792 0.355713 -2.481017 -4.017808 -3.528825 -5.501136 8.075596 3.704560 1.402971 -3.281343 5.286018 4.590959 6.011207 2.105252 1.895232 -0.728631 -5.459858 -2.300654 2.408651 -3.532133 -0.194134 0.070941 0.875799 8.736670 -0.225034 -4.730010 -4.268771 3.656756 5.350211 -6.069209 0.356102 0.595846 -6.580575 -0.407415 -3.672841 1.982044 -1.201846 -0.599820 -4.913362 -1.617107 -3.985415 -6.184486 1.818342 -1.308457 1.819295 -0.713817 -0.115387 2.736809 1.910965 -1.040742 -1.210251 -6.439319 -0.371198 -5.978968 4.978002 -3.763626 2.316477 4.769247 -5.805844 -2.016005 0.035769 -0.386198 -3.258878 -0.771000 2.285665 7.120285 -6.475439 0.094320 -8.106678 -4.582703 7.912339 -1.753815 -3.416492 -5.279229 3.746378 3.304013 7.078576 -4.315403 1.642429 1.271863 -1.321302 -4.126752 -4.334490 1.059771 3.206618 2.777790 -4.731081 3.917248 5.843212 -2.716346 -0.068700 4.355876 1.166643 6.074426 2.420164 -5.019356 -6.903473 -1.287585 -4.165912 3.305326 -0.191199 3.258081 3.472667 -1.469048 -3.422947 -3.663822 -6.493158 -1.113135 -1.702164 3.977131 1.247662 1.886051 -2.886004 12.777362 7.679207 -6.205593 -0.298322 1.875516 -0.904054 3.671314 2.519796 0.220119 5.460207 -0.020372 -4.571093 3.101827 -0.534012 -5.463951 0.052523 0.038003 0.591636 0.453451 3.240192 -4.543091 -3.874396 1.582615 3.563439 -2.305617 -1.852307 -3.784017 -2.903685 2.318766 1.585043 -1.239542 1.605599 6.815537 1.159396 -1.465194 -1.477840 3.540821 -0.012154 -0.235279 -2.751805 -2.154802 -1.747012 -1.561126 1.018462 -1.879087 3.672014 -4.283135 4.376349 -4.104485 1.646140 3.565246 5.361546 -2.793276 2.918840 7.575799 -3.569757 -5.731486 -0.266174 -0.629371 -0.745809 4.115819 -1.103032 -0.272280 -10.219959 -3.333680 -1.190214 5.769807 -2.859601 0.701088 3.878280 1.445397 -1.218174 -1.601265 0.574284 2.612057 -0.580696 -7.737849 3.723408 2.938455 0.175447 2.553457 -2.972544 -1.992712 -2.043174 -2.045284 3.053808 9.648391 3.639905 1.487538 4.255113 -3.760932 1.543343 -2.497772 5.048762 1.432769 -0.894410 0.181290 -2.138753 -11.884592 2.163732 3.248985 0.369872 -1.968170 -5.973227 0.985303 5.523155 -0.814328 4.334615 5.868156 0.764554 8.855105 -5.453094 -1.764758 0.084945 2.051082 -0.785705 1.600617 1.999957 -5.198176 0.874335 3.100555 -0.183740 2.256288 -3.187813 5.636222 2.162196 4.643939 -3.548777 7.116353 -1.612780 3.938700 -2.040060 8.571511 -0.343214 -2.426486 3.200608 0.097880 0.191728 -0.051295 -0.011684 -7.220569 1.452388 3.795857 -4.251958 -3.407466 -0.251987 -4.876953 3.486535 2.505388 5.193810 7.178035 -0.930239 0.151207 2.263798 4.019748 0.467735 2.510121 -5.145544 -1.263735 1.424134 3.756982 0.570476 -4.506314 -3.252033 5.059643 -3.520523 4.789100 -3.931191 -0.102569 0.129137 2.668828 -0.089127 -2.836136 0.286273 0.428891 0.326793 -2.172483 -6.942474 -0.663956 -0.860102 -0.645540 -3.119568 -5.020724 1.254592 0.980218 3.490174 5.486214 4.843477 4.763479 -8.438472 -4.518773 5.361302 1.034561 -4.325721 -3.682990 0.173549 -1.835247 5.943248 -0.252938 -2.612822 -2.186924 0.869146 -4.322539 -1.626479 0.776480 0.817813 5.972165 10.504794 9.570249 -1.470840 -6.008202 -5.396460 1.878980 2.806199 1.869691 -0.395761 -11.787043 1.287279 -1.865189 0.427481 4.591709 -1.306035 -2.336346 3.525574 -1.859787 1.011472 -0.188277 -5.215836 0.746662 7.951102 -0.419973 -4.989376 -4.276573 -11.079772 2.819092 1.129372 3.628617 -1.654561 2.079477 -2.187785 3.169170 6.992466 0.318088 2.681835 -0.138994 -4.655461 -3.947570 3.464579 0.024850 -0.140980 0.079852 3.395111 0.744450 0.709588 3.014010 -2.808640 -5.012685 0.645824 5.388642 -5.547332 -4.464122 -1.122099 -0.765269 -0.784155 1.569550 -3.584467 2.350112 -3.047429 -2.141985 0.318378 -0.141373 -2.541237 -9.904189 -0.694789 6.763938 -2.076858 8.822066 2.428960 5.698769 -0.095157 2.239690 4.063722 -0.076566 2.345309 1.977973 4.421113 -6.013417 -2.414862 2.777710 7.037978 0.852588 -6.557110 0.131567 -4.879005 0.855382 0.021695 2.280617 2.353926 7.682929 7.432712 -0.807915 1.922148 -1.257891 3.596258 -2.694443 2.628215 -2.669845 -6.872106 2.206878 -0.884820 1.954286 -8.657821 0.651192 3.317849 0.297579 0.611318 0.465029 0.782518 -6.782926 -5.921905 -0.326245 -11.113214 0.777517 2.859739 0.612261 3.805241 -1.550688 -3.004399 -8.167315 -0.125752 1.667441 -1.797431 1.382802 4.308123 1.949319 -0.499925 -3.250108 -3.177058 -3.556687 -6.143750 -0.364048 -3.045504 -7.221783 1.841260 -1.071287 7.022950 -9.620669 -0.174152 7.157376 -1.914337 1.149193 -2.218760 -4.115568 1.514218 -2.049884 1.001909 -2.319595 -1.791756 -1.139397 1.300531 -1.535227 -4.037795 3.962416 5.770381 -5.115291 0.955987 -2.034691 0.929444 -2.370472 -4.974814 -1.708468 3.216039 0.361455 0.640659 3.020491 0.331587 2.900464 7.191473 -6.789350 -5.731544 -8.083693 5.586053 6.528177 5.410987 0.451695 1.341208 1.809421 -3.771918 0.798661 2.036299 -6.281741 0.183666 -2.248938 1.289221 0.938871 3.221608 -4.604644 -1.374591 -3.829742 1.775674 3.478265 -4.758878 6.585187 15.792297 1.372730 -0.557856 -3.423780 -0.363681 -1.317587 5.345311 1.862475 -5.575190 1.319767 -0.811835 -3.123168 -3.348266 1.631142 1.472364 1.433224 1.836242 -0.384601 -0.132665 -5.339167 2.791306 -3.373189 2.163908 -5.735802 3.218534 -2.139318 -4.171531 -3.591567 -3.449151 4.558551 1.092619 1.273722 1.639093 6.732439 -1.527578 3.652965 -5.089021 -1.925877 0.326344 2.515056 -2.777257 -7.311490 -0.788333 -5.721231 10.163549 3.035036 -1.979373 4.055683 -3.989671 -0.241860 3.733018 -0.145822 2.570887 -5.750361 -1.379904 -3.735071 -1.046381 -6.253075 -0.664196 -3.157606 2.790661 -2.532807 -1.729941 1.089397 0.757406 0.570674 5.308835 1.851780 1.982236 -3.454595 -0.273332 4.367483 0.566413 0.466030 0.354345 -1.898059 1.231954 -1.860476 5.963089 2.127674 2.083508 2.214962 2.060672 -0.596056 1.716847 3.582249 -2.127671 5.849065 -0.024863 3.089307 -2.441799 3.062146 -5.063383 8.193486 6.693574 6.213716 0.756729 -3.803936 -2.831537 9.644059 -2.909631 0.252878 -2.511539 -3.665032 -2.499089 2.562231 4.659646 3.963229 8.891902 1.019444 6.749930 0.620854 0.445973 4.922030 3.522364 -4.247152 1.769299 1.709414 -2.995527 -0.088971 -5.255137 -1.568411 8.642156 -2.629292 6.437333 2.948066 8.586343 -10.087671 1.484970 -4.329640 0.984837 2.916029 -2.405955 -1.007756 -0.344567 2.796807 -2.483712 5.007662 -0.802831 -2.870146 -2.200705 -1.818612 1.051588 0.530105 0.612505 -4.086267 1.914690 -0.685478 4.568929 -6.520216 2.275421 4.388591 -1.168925 -0.642114 -3.268941 -7.626210 0.957856 2.615212 -7.690482 -6.440099 -0.249939 0.252823 -2.421586 2.790087 -2.501133 0.769812 -1.905745 3.596815 0.141253 2.391534 -5.492670 3.100183 -0.219623 -5.245677 -2.153427 2.819460 -2.607957 0.448978 10.437092 -0.851577 -5.326117 0.405368 0.055498 -2.948473 -3.388208 -2.910722 5.360031 4.574989 -8.067673 1.163366 -2.076684 -1.697972 -2.120394 -7.500123 1.551348 0.964824 -1.220546 1.873103 1.339289 -0.923445 4.109023 3.099912 2.687985 -0.530853 2.189501 4.440426 -9.203330 2.323388 -8.914424 2.626236 1.700152 6.586016 1.275514 4.068399 -3.494819 4.816384 -4.520302 -4.187659 5.802599 4.653689 -0.371404 5.281965 -5.267744 3.824781 -2.837090 2.450353 4.124078 -6.895795 0.190707 -7.574396 -3.684537 1.511521 -2.001964 6.484787 0.452894 -6.108810 5.569727 1.500108 1.394964 2.943197 2.348442 2.688690 2.243458 -5.426931 3.019024 -3.372568 -2.793773 -0.148896 -0.276500 -2.209683 0.783748 0.886123 -1.488067 1.097664 3.456834 8.077983 4.373523 -3.463566 7.632981 3.593077 -1.941893 3.007730 -3.033321 0.412818 2.559032 -7.823437 -1.081455 3.555883 -1.635007 1.513833 -4.013157 -0.084540 -0.171682 2.214411 -0.531786 4.460788 -3.563389 -4.983996 0.687847 -7.416096 -3.909653 -6.539865 4.713274 -3.400530 2.650725 7.906213 -3.096160 0.455490 -2.698465 -0.029619 -0.676219 -3.859986 -0.373984 2.092996 2.168309 -2.800082 0.143622 2.596576 -8.170256 3.086761 -0.605085 -2.845760 2.671575 4.707470 2.147744 -0.749138 1.965410 1.742395 -4.125847 -3.754120 -8.711306 -0.029849 -0.467064 -10.420759 6.772342 -4.635535 -2.920647 -0.177671 -0.536527 2.345438 -3.876209 7.207033 -6.615818 -3.012110 -0.196497 1.804324 3.905074 2.905406 -2.057995 1.282078 5.923305 2.463975 -11.106716 0.358744 -0.272133 -2.780671 -2.652078 2.696628 -2.303156 3.400376 -7.255009 4.292955 10.439137 -6.431485 0.219646 -2.957545 -2.157505 2.839602 6.485231 0.887330 3.505631 -9.224775 0.548866 -0.652322 -3.811594 -6.252096 6.967891 1.335496 -3.036220 5.289346 -5.535802 -4.579937 2.757259 1.743257 -0.968263 6.536019 1.217246 -0.665365 6.797163 0.482632 2.857307 1.672063 1.555483 -3.526162 -10.891488 0.925853 -2.536109 0.204912 -7.428190 6.873708 1.290695 -3.412980 2.350465 1.534150 -1.247570 1.119210 -1.863612 1.276845 0.693035 0.852539 5.919968 -0.252672 2.781148 -2.794939 2.692128 1.987085 -3.745180 -0.561147 -5.821709 0.380550 -4.987143 0.759566 3.202089 -2.284263 3.831895 0.735748 -1.569150 1.088161 0.326364 -4.751986 -6.961906 6.575916 5.474794 4.937630 -0.427312 0.334094 -1.947046 0.379685 2.062325 -1.504055 3.718493 -4.054755 4.991522 -3.362588 -2.783330 -0.135969 -3.231856 -0.052600 2.222683 -2.906474 3.226048 0.025702 5.620817 4.552629 1.300949 -3.645978 1.803557 1.260759 0.855517 2.881340 0.031186 0.559671 0.711869 3.270509 2.701702 -5.564580 -4.539411 -1.531475 6.129821 -2.566368 -4.435035 -3.381540 2.504891 -2.911019 -5.233865 0.335428 5.273558 -5.375344 6.129944 -0.024046 0.518070 2.781897 -5.555985 0.555954 -2.935635 2.626856 -2.826837 -2.499481 0.873079 3.227828 0.343485 -4.750966 6.062349 -2.621641 -4.598128 0.879243 0.351353 0.514780 2.718327 -2.464378 0.931284 -4.639927 6.380879 2.310356 -0.668870 -0.276099 4.923543 -0.633956 7.039482 8.072014 -0.434946 -0.086789 7.497833 -6.320734 -0.434236 -3.898568 -3.147652 2.251299 1.736432 -0.125299 0.224205 5.610535 0.150441 2.506167 4.410705 6.304429 0.434672 3.137532 0.297488 0.316766 -5.104497 5.643109 -0.637803 -0.190962 -2.402329 -1.571949 -3.573080 1.815594 -8.854878 0.295327 -5.207642 -6.375159 -5.305997 -2.225574 3.412093 5.380353 -0.065753 3.416827 5.583055 10.116000 -1.883542 5.791262 -3.170256 -7.699890 -4.419894 -2.042251 -1.950234 0.662640 6.110322 -1.324883 4.698638 1.683995 -1.035139 1.128498 -2.348350 -4.524221 3.455116 2.790334 0.475799 -1.977774 -6.371266 -5.214282 -2.610874 2.243679 -11.136008 3.524847 0.651382 4.014786 -1.458364 -3.804267 -0.553435 1.359921 -4.311634 -3.810390 1.348199 -3.645319 -0.292060 2.123155 4.426794 1.317925 3.718720 5.923526 -7.716994 3.533959 -5.447532 -2.276078 -2.619192 5.052895 2.242672 -0.319363 -2.190199 -1.515979 -1.754926 0.503974 -0.255370 -0.301805 -2.603788 -4.241860 1.612344 -6.624561 -0.708553 3.912324 -4.284396 -0.538296 -0.654260 -2.737813 0.053181 9.506467 -1.994585 -9.009707 7.553687 1.137832 1.069782 2.693009 -0.216555 0.390866 -2.605838 3.049328 7.206042 -1.990723 1.497677 -3.838162 -2.971299 2.193037 -6.530937 -2.942126 -0.427830 5.061793 2.318535 7.256609 4.154264 -3.664901 -3.115209 1.799538 -1.827682 2.946069 -0.337357 0.552416 1.016644 -1.334354 -3.499412 9.128356 4.675211 4.471576 -3.581389 2.719543 -2.684730 2.344672 -1.263717 3.715372 -6.936240 2.456361 2.245456 4.706299 1.429627 -3.753955 -5.356005 2.913080 -3.108074 2.443779 4.160527 6.750703 -0.997629 -2.807607 2.835142 -3.272984 4.306811 -4.571597 -6.100228 0.220653 2.725581 -7.331201 -6.342373 4.524224 -1.080632 4.358114 3.705284 1.263358 -6.048187 -0.169749 2.043093 0.976023 0.358222 10.757110 -3.002274 1.018681 5.837867 -0.278362 2.055296 -6.715066 2.247363 6.751769 -1.916964 -3.288816 7.189131 1.285981 -0.972353 -1.256976 -0.997011 -5.972842 -0.271482 -0.342027 -5.276541 -4.371756 -5.982838 0.308492 2.492813 -2.962207 3.050467 -2.455036 -3.960831 1.591692 -1.870820 -1.644590 3.183737 5.375312 5.201003 -0.456446 -12.613869 -0.658354 0.664872 -0.075198 -0.557697 7.313034 2.345399 5.521066 -7.824122 -1.583491 -2.653078 -3.138753 -3.086160 -2.945237 3.201879 -6.868412 -0.203248 -2.846018 2.331758 -0.867288 4.120376 1.214918 1.320074 -1.216888 -3.589382 -3.539232 -6.245581 -3.310928 -0.648800 -5.683781 -1.775830 -1.423278 -0.880257 4.278094 0.745952 -1.650116 11.170640 4.197756 -3.529525 -0.809413 -3.717370 1.702096 -4.796141 0.814027 -4.418763 -3.535187 2.561340 -0.544489 2.151880 -8.610258 0.492352 0.128675 4.852103 -1.027257 1.660165 4.307046 -6.319861 -0.199887 1.549299 0.791719 8.146124 -0.899708 -4.753652 1.099634 -4.520290 -9.076531 -6.434178 4.080893 0.995369 6.392878 3.755359 1.708761 -3.283314 -0.656471 3.600203 -3.213518 -5.639060 10.553037 -0.996247 0.216515 -2.487565 -2.032749 0.593939 -0.493170 2.122093 4.248474 -3.736192 7.950325 -1.121489 1.881610 1.082491 -2.011105 -4.078909 -1.434085 3.813915 3.263565 -2.223092 -3.766908 2.071897 -3.426314 -3.130814 1.810923 1.318891 1.561073 1.645922 7.020561 1.092550 0.987723 0.705771 -2.265381 -2.202407 5.285193 -0.705014 2.363123 -0.374089 -2.211070 5.908101 -3.121275 -4.966638 2.992442 -5.329176 -1.350564 -6.737227 2.201038 6.970613 -1.738309 -0.526869 2.118009 -0.504084 -2.929622 -0.718510 -3.417395 -0.507912 -0.489118 -2.542148 -1.927859 -4.223730 4.211968 8.358060 -3.000154 0.632021 -2.053287 -1.427202 -6.790245 -1.552657 -4.288754 3.846995 -4.115162 4.990129 -0.648560 -0.136519 -0.132714 1.925302 3.942786 -2.024515 -1.563635 3.913229 3.178386 0.367353 0.126385 2.698003 -0.179572 -2.721254 -7.532665 0.959034 2.879995 7.605235 -3.357728 5.573575 2.642587 5.184233 1.578730 3.354290 2.718412 2.306342 -10.519991 1.469168 0.506503 -7.106136 -0.961005 4.069051 -5.860112 5.771697 2.235183 2.754532 4.722729 -1.090906 -0.287045 -3.362057 2.083165 1.610185 -6.540942 5.150531 4.388943 1.949278 4.588760 3.919980 -1.152405 -3.668133 4.240477 -1.780837 3.419475 0.403105 3.628224 -1.405199 -0.847478 -8.157045 0.400177 2.250312 7.080104 1.327038 -0.389072 3.230221 0.528139 -2.201731 0.045532 4.552469 4.106143 -1.035486 -2.547223 -1.706689 3.624212 5.300796 -3.232120 2.766857 0.176973 -1.552688 -1.156874 -1.362256 -1.095804 1.507976 1.597715 2.062465 -0.390489 -7.388918 -0.956658 6.302701 2.630497 -5.052367 1.289146 -8.423162 -1.516799 -17.272701 -12.423055 -3.779404 -6.216364 -4.328643 -3.243774 -1.637080 -2.931773 7.591489 1.243027 0.959209 5.695860 -2.655864 -1.867780 -4.895188 5.598245 1.666438 -8.929173 5.723641 -2.943262 3.308266 -0.118989 -2.829705 0.458764 -5.288781 -4.115569 6.267695 2.243208 2.689866 -2.642177 3.528355 0.570266 7.711281 -4.026176 4.222720 -1.671363 6.659887 -4.510731 3.824699 3.070198 0.202769 0.449798 2.885955 -4.993523 -6.591683 -8.621777 5.274421 3.861359 3.702527 1.497586 -10.433403 2.174057 -1.573834 -2.010111 -2.544992 0.013471 3.634285 -4.025749 -2.796105 -2.468358 -0.099906 -0.382327 4.393686 -1.159233 -5.477316 -4.333011 -1.313057 0.849197 -2.519695 0.318860 0.585338 0.987101 6.272557 2.596189 2.234665 -0.912753 -0.915813 -6.111667 -0.752542 -3.831115 4.165088 5.951996 3.097906 3.484106 -9.484504 4.843317 2.900749 1.714969 1.134196 5.905673 -6.680904 2.464713 -3.592475 -5.773135 -8.368263 2.420637 -2.969151 -7.309813 -0.826397 2.162979 -0.504632 7.102262 -4.355349 -0.634812 1.499260 3.664347 0.363892 4.770017 -3.427587 0.070218 -2.845572 -2.556167 -0.211003 -3.367190 -2.679285 2.831175 -2.590104 -9.317077 1.944550 6.232804 0.210109 0.150993 0.257472 0.748877 0.432472 7.501264 -1.698376 -1.520671 -1.338047 -3.550226 -0.659756 -3.911006 -0.874902 1.659383 -1.018672 4.855792 -1.028460 2.032070 1.519190 3.524604 -4.741424 0.757179 0.337386 -4.800850 5.970445 2.156110 -0.153917 2.570258 -7.990990 1.304421 -2.562121 0.128813 4.963275 3.996551 -5.646381 0.750299 2.960007 4.959603 -4.132877 1.440462 -3.806488 2.114914 1.638074 1.300261 -1.421427 1.378610 3.988875 6.034399 -0.070954 0.188854 -4.994172 0.843861 5.255831 4.085698 3.692338 -1.496864 -0.401061 4.914118 11.297083 -3.396410 -5.301949 -1.920305 1.065424 3.273713 4.766810 4.367470 -0.549866 0.388922 0.730337 0.181418 -0.509846 -0.838921 -5.621392 -1.847360 3.672717 5.892258 0.197592 -4.460310 4.319407 6.168147 0.119752 -2.567054 5.282806 -2.895862 0.480770 7.759316 4.065086 -3.659565 -0.338129 -2.566859 2.911867 6.821241 -4.316659 -3.007202 -2.415186 -4.055479 6.628406 -0.327138 2.875662 -4.858470 1.714301 4.402497 0.759067 3.170997 2.484972 5.109877 -2.811982 0.323940 2.700087 -0.603476 4.602388 -1.314050 2.054726 -0.541139 2.310252 -2.934425 -5.274644 0.541724 5.348650 -2.894669 0.623456 -1.792420 -0.873507 6.832728 -2.187308 6.149229 -2.629513 3.547588 5.809973 -0.403673 2.608900 1.809004 -3.249650 5.100295 -1.288051 -5.613913 5.240209 -0.808102 0.129088 -0.101459 -2.358100 -1.455122 0.881321 -1.651393 -3.849796 -0.863178 -2.969324 -4.842990 0.861201 0.636656 -1.697625 -3.825075 -2.992376 -2.422683 0.162442 -2.664370 -2.258148 -1.901247 1.185083 6.243774 0.174550 2.994470 -10.185058 -5.938353 4.366593 -2.374093 0.523786 -4.927474 -3.235353 0.353091 -0.160420 -5.307458 -5.153600 2.936061 2.608056 2.355368 -0.378840 -2.565293 -4.596418 0.677004 -2.736213 -7.970961 -4.576321 -6.479992 -2.694242 -2.586298 -4.842948 3.657134 0.340062 -4.261691 -6.182419 -5.780434 -0.259833 3.857472 -2.200511 -1.522724 1.450332 -0.898759 -0.874009 -1.655999 0.525106 5.068323 -3.519840 -5.105570 -7.149345 -1.376922 -6.940684 -4.104646 -9.042202 5.109828 -0.725548 5.045700 -3.272407 2.455295 -0.663886 -1.125130 0.877939 -0.069981 -5.369505 -4.535838 -4.200015 -1.204838 3.417460 2.642310 0.009964 2.888667 2.638865 -5.393815 -2.668459 -0.789661 6.359279 -7.723819 -1.120641 -3.467972 -0.262303 2.060996 3.635189 5.667066 2.383542 -0.012720 2.818202 -0.789355 6.493153 -0.432770 -0.343118 -0.249302 -0.164580 5.139240 -1.178963 1.643297 -1.216670 4.130036 1.080661 3.335737 2.844273 -2.593147 3.125201 -0.141206 -5.196871 0.477017 -0.102471 2.836913 -2.710592 5.737659 5.218299 -0.359395 -5.032405 0.553334 2.599959 4.420722 -1.498541 1.774358 -0.630768 5.060394 4.247960 -1.647390 -3.903127 4.221316 1.043047 3.618432 -7.288476 7.035179 3.383697 -4.308648 -3.388979 -0.822534 4.537206 -9.051326 -2.413773 0.494019 3.060056 -1.988603 6.070685 -2.190178 3.761579 3.072707 -2.368441 2.980766 -3.113643 0.274209 -2.487356 0.283618 -2.009685 -4.350010 -3.430186 4.660686 -3.773122 4.843747 3.990336 -3.593957 -2.587174 2.434546 -3.176858 2.021501 -1.418814 1.936645 -3.258249 0.091879 2.756997 -5.618220 0.345294 -5.174676 0.831781 0.558913 -2.129233 -1.333770 3.809389 -1.614210 -1.131038 1.171606 3.512955 -7.237441 1.502450 0.937046 0.895574 3.230085 7.781854 -0.508997 2.494188 2.008805 1.738892 -4.145298 -3.978504 4.022622 8.247235 2.259908 0.170044 0.624795 3.454117 2.660721 1.704877 6.183215 -4.882368 -5.923339 -4.971777 3.051797 -10.590731 -4.048590 1.561454 -0.665862 0.234999 0.413744 5.931062 2.562912 -2.879854 -7.346413 0.833128 2.664437 -0.497256 7.232857 -3.727668 -7.083734 -5.914587 -0.581603 1.294653 -2.353159 0.929522 -0.987040 -2.573216 3.264793 -2.888973 4.904148 3.525631 -1.787482 -0.990464 4.027760 -1.572030 -6.628910 1.409430 -1.650343 -1.308268 -3.732075 2.137209 -0.548347 4.675888 -1.015706 -3.210888 -2.858050 4.919232 -3.770477 1.775040 -1.344022 -3.199787 2.547897 -0.718436 4.636399 1.027699 1.067538 6.417000 -2.403948 -1.668218 0.561234 2.579065 4.680439 -6.444531 -2.302982 -2.036317 -1.801158 -4.239071 -1.636390 -1.352253 -0.863289 2.141629 7.199809 3.713252 3.538916 -1.945618 -1.572404 -1.874407 -2.326313 -5.036290 3.030727 -2.434997 1.270870 1.346643 1.486672 4.001625 0.546473 -4.502698 -1.444745 5.888696 -0.155653 -2.608476 2.931624 2.754244 -2.361852 0.428131 2.614052 7.230020 -6.636736 -2.568084 2.701653 2.076335 -3.249927 4.611673 -1.090863 -5.373019 -1.985145 0.619335 -2.283518 0.282244 -4.776558 -0.925719 -0.844621 -8.187245 0.688853 -5.253259 0.866881 -1.940505 6.109395 3.097188 -2.191281 11.242634 1.551782 1.563139 0.873063 2.834755 2.488790 -3.532053 -5.363379 2.900538 -0.501163 -0.055499 2.364661 -0.273215 5.459094 -8.100515 1.079241 5.302318 -6.033363 2.932604 -3.161519 0.612978 0.567283 0.214870 -1.919821 0.507944 -7.111538 1.840906 0.926349 0.970443 -4.123557 -0.795028 2.130041 6.803207 -1.993560 6.210384 -5.036028 -6.272856 1.920155 0.736690 -4.562996 0.950721 -4.032897 0.039519 -0.223723 -0.133304 2.344325 -0.904932 2.204178 -3.164263 -2.683087 7.730786 3.495688 -4.279241 -0.975907 -5.936646 -2.293299 -5.398360 2.562940 1.938932 -5.654032 1.289723 -1.336096 -3.510585 -3.434322 -3.703076 -3.256251 -0.575330 4.717103 -0.722266 2.315683 4.699655 -0.975339 1.644296 -1.886377 3.252743 2.293322 1.822242 -3.185482 2.426710 2.001205 -3.413303 -0.618113 -3.484736 -0.356720 -3.023787 -5.140767 3.381001 -0.001195 5.590608 -0.246808 -4.933855 -1.395709 3.226597 -0.158820 4.552924 -3.971049 -2.527089 -4.617649 -1.546180 0.717985 -2.676987 0.417820 3.179914 -1.909187 1.458600 -1.677186 -1.514537 -9.388886 -0.775279 -1.135030 -1.096685 4.323009 -1.145695 2.390107 2.064294 -0.853706 -0.909870 5.985867 -2.752693 -2.143381 -2.063281 -1.645378 3.565571 2.533903 7.510575 -3.569918 -2.426082 8.213709 -3.842335 -8.377429 -0.351621 1.853428 4.501835 -1.344286 -0.331474 -2.418577 -2.085931 3.135019 4.376982 -4.134387 -3.074468 5.248973 2.117097 -3.241976 2.032143 1.532735 -3.553721 -0.523850 -5.750248 -4.876346 0.451078 0.197365 -4.597625 -3.827572 9.749066 -1.734622 1.452050 -1.579002 1.249517 -1.592401 -6.973129 4.107395 -2.295408 3.411764 -7.051654 -3.144230 -2.651625 2.301751 -3.367879 1.981156 1.648842 -0.546412 2.351909 -0.703861 -0.751299 -3.655485 1.569412 -1.432390 -6.467712 4.756036 3.767215 -4.007963 4.400040 3.411569 3.335331 -7.655976 0.983111 -2.178272 0.212461 -0.065973 -2.664639 -1.902425 1.026348 6.069266 -2.504653 2.902928 2.397466 2.201705 4.442031 -1.662637 -1.229875 -1.417830 -6.528436 -0.525955 -1.230575 -3.421512 2.415663 2.146862 -5.060882 -1.582659 5.900130 -0.221295 -5.397485 0.318462 5.339491 2.065194 -3.260817 -7.719202 0.979339 0.262654 0.050438 -0.215584 -0.136481 0.545592 3.287819 0.202509 -5.068249 -2.165915 0.346977 -4.985064 0.706086 -2.214561 -1.440000 1.442030 3.755117 0.881473 3.199384 0.155384 5.416178 6.771996 -4.459707 -1.072763 -1.483508 -3.926339 -11.311625 -0.094277 2.126520 -0.516404 -4.929213 -1.031642 4.472732 3.620601 2.896171 -0.247723 -2.749689 -7.270096 3.670295 7.335337 0.816905 1.111391 1.458308 4.505187 1.182273 0.485778 -0.062497 -0.503582 2.194690 -5.694406 -2.115680 0.471487 -7.302647 4.165073 -4.641422 1.780811 -1.036831 -5.797921 0.618280 2.289107 7.123168 6.074428 5.412204 -2.122144 6.057843 2.194770 -6.201162 -0.895439 -1.546747 -3.591151 -2.970176 0.078372 -4.533194 -1.192595 -0.982566 6.957244 0.680207 1.017683 -1.337386 -3.600391 -0.667644 3.789917 -2.307408 0.743534 0.733699 -3.766025 2.112228 -1.261746 -1.076544 -1.249482 -3.731968 -2.794906 2.432976 -3.075987 5.279407 1.685340 -3.051975 -4.863113 3.110039 2.299914 -0.966340 -3.512990 4.937681 -0.780972 -5.376724 2.844934 -0.709750 -3.058090 -5.333654 0.494517 -4.672336 -1.568655 -1.422063 1.361405 1.200107 1.215905 -1.232958 1.491095 0.971386 -1.852600 3.174687 -2.737441 0.418238 0.173158 -4.970611 -1.585408 0.601119 -4.593169 -1.332005 -4.021788 -0.531362 1.902966 1.517731 1.584708 -6.308214 2.515961 -3.356563 4.492506 -4.364413 -3.713918 -0.488267 -0.601749 -0.357796 1.892734 -1.080662 -0.536381 4.483391 6.388557 -7.316191 4.003216 -2.219712 3.353951 2.305917 1.728159 1.920991 -0.947270 2.114449 1.645787 3.465045 5.441084 -0.491670 5.192799 -3.227482 -2.466879 -2.533253 -0.225614 2.201856 -0.825562 -2.610062 -1.637888 -1.222478 -3.498156 1.690562 3.606690 