23.844424 23.694093 23.544556 23.395813 23.247858 23.100689 22.954304 22.808699 22.663870 22.519816 22.376532 22.234017 22.092266 21.951276 21.811046 21.671570 21.532848 21.394875 21.257648 21.121165 20.985421 20.850416 20.716144 20.582603 20.449791 20.317703 20.186338 20.055691 19.925760 19.796542 19.668033 19.540232 19.413134 19.286736 19.161036 19.036030 18.911716 18.788089 18.665149 18.542890 18.421310 18.300407 18.180176 18.060616 17.941722 17.823492 17.705923 17.589012 17.472756 17.357151 17.242194 17.127883 17.014215 16.901185 16.788792 16.677033 16.565903 16.455401 16.345523 16.236266 16.127627 16.019602 15.912190 15.805386 15.699188 15.593593 15.488597 15.384198 15.280393 15.177178 15.074550 14.972507 14.871044 14.770160 14.669852 14.570115 14.470947 14.372346 14.274307 14.176828 14.079906 13.983538 13.887720 13.792450 13.697725 13.603541 13.509895 13.416785 13.324208 13.232159 13.140637 13.049638 12.959159 12.869197 12.779749 12.690812 12.602383 12.514459 12.427036 12.340113 12.253685 12.167749 12.082303 11.997343 11.912867 11.828871 11.745353 11.662309 11.579736 11.497631 11.415991 11.334813 11.254094 11.173831 11.094021 11.014660 10.935747 10.857277 10.779247 10.701655 10.624498 10.547772 10.471474 10.395602 10.320152 10.245121 10.170506 10.096305 10.022513 9.949128 9.876148 9.803568 9.731385 9.659598 9.588202 9.517195 9.446574 9.376335 9.306475 9.236992 9.167882 9.099142 9.030770 8.962762 8.895114 8.827825 8.760891 8.694309 8.628075 8.562188 8.496643 8.431438 8.366569 8.302034 8.237830 8.173953 8.110400 8.047169 7.984256 7.921658 7.859373 7.797396 7.735726 7.674358 7.613291 7.552520 7.492043 7.431857 7.371959 7.312345 7.253013 7.193959 7.135181 7.076675 7.018439 6.960469 6.902762 6.845315 6.788126 6.731190 6.674506 6.618069 6.561877 6.505927 6.450216 6.394741 6.339498 6.284485 6.229699 6.175136 6.120793 6.066668 6.012757 5.959057 5.905565 5.852279 5.799195 5.746309 5.693620 5.641123 5.588817 5.536697 5.484761 5.433005 5.381428 5.330024 5.278793 5.227729 5.176831 5.126096 5.075519 5.025099 4.974832 4.924715 4.874745 4.824919 4.775234 4.725687 4.676275 4.626994 4.577842 4.528816 4.479912 4.431128 4.382460 4.333906 4.285462 4.237125 4.188892 4.140761 4.092728 4.044789 3.996943 3.949186 3.901514 3.853926 3.806417 3.758985 3.711626 3.664338 3.617118 3.569962 3.522867 3.475831 3.428850 3.381921 3.335042 3.288208 3.241418 3.194667 3.147954 3.101274 3.054626 3.008005 2.961408 2.914834 2.868278 2.821737 2.775209 2.728699 2.682242 2.635882 2.589661 2.543624 2.497813 2.452271 2.407042 2.362169 2.317695 2.273663 2.230116 2.187098 2.144652 2.102821 2.061648 2.021176 1.981449 1.942510 1.904402 1.867168 1.830851 1.795495 1.761142 1.727837 1.695621 1.664539 1.634634 1.605948 1.578525 1.552408 1.527641 1.504266 1.482327 1.461862 1.442849 1.425211 1.408869 1.393744 1.379759 1.366836 1.354896 1.343861 1.333653 1.324193 1.315403 1.307205 1.299521 1.292273 1.285381 1.278769 1.272357 1.266067 1.259822 1.253543 1.247151 1.240580 1.233813 1.226855 1.219706 1.212368 1.204844 1.197136 1.189244 1.181173 1.172922 1.164495 1.155894 1.147119 1.138174 1.129061 1.119782 1.110339 1.100735 1.090971 1.081050 1.070974 1.060746 1.050367 1.039840 1.029167 1.018351 1.007393 0.996296 0.985062 0.973693 0.962192 0.950560 0.938800 0.926915 0.914906 0.902775 0.890526 0.878160 0.865679 0.853086 0.840382 0.827571 0.814654 0.801633 0.788511 0.775291 0.761973 0.748561 0.735057 0.721463 0.707781 0.694013 0.680162 0.666230 0.652219 0.638131 0.623969 0.609735 0.595431 0.581059 0.566622 0.552122 0.537560 0.522940 0.508263 0.493533 0.478749 0.463917 0.449036 0.434111 0.419142 0.404132 0.389084 0.373999 0.358880 0.343729 0.328548 0.313340 0.298107 0.282851 0.267574 0.252278 0.236967 0.221641 0.206303 0.190956 0.175601 0.160241 0.144879 0.129516 0.114154 0.098796 0.083444 0.068101 0.052768 0.037448 0.022143 0.006855 -0.008414 -0.023661 -0.038883 -0.054080 -0.069248 -0.084386 -0.099491 -0.114560 -0.129592 -0.144585 -0.159536 -0.174443 -0.189303 -0.204115 -0.218876 -0.233584 -0.248237 -0.262833 -0.277369 -0.291843 -0.306252 -0.320596 -0.334870 -0.349074 -0.363205 -0.377260 -0.391238 -0.405136 -0.418952 -0.432683 -0.446329 -0.459885 -0.473350 -0.486722 -0.499999 -0.513178 -0.526257 -0.539234 -0.552106 -0.564872 -0.577529 -0.590075 -0.602507 -0.614821 -0.627016 -0.639088 -0.651035 -0.662853 -0.674539 -0.686092 -0.697507 -0.708783 -0.719919 -0.730912 -0.741762 -0.752470 -0.763037 -0.773464 -0.783751 -0.793900 -0.803911 -0.813786 -0.823524 -0.833128 -0.842598 -0.851934 -0.861138 -0.870211 -0.879153 -0.887965 -0.896649 -0.905205 -0.913633 -0.921936 -0.930113 -0.938166 -0.946095 -0.953902 -0.961587 -0.969151 -0.976595 -0.983920 -0.991127 -0.998216 -1.005189 -1.012047 -1.018789 -1.025418 -1.031934 -1.038338 -1.044630 -1.050813 -1.056886 -1.062850 -1.068707 -1.074457 -1.080101 -1.085640 -1.091075 -1.096406 -1.101636 -1.106763 -1.111791 -1.116718 -1.121547 -1.126277 -1.130911 -1.135448 -1.139890 -1.144237 -1.148491 -1.152653 -1.156722 -1.160701 -1.164589 -1.168389 -1.172100 -1.175723 -1.179260 -1.182712 -1.186079 -1.189362 -1.192561 -1.195679 -1.198716 -1.201672 -1.204549 -1.207347 -1.210067 -1.212711 -1.215278 -1.217771 -1.220189 -1.222534 -1.224807 -1.227008 -1.229138 -1.231199 -1.233191 -1.235114 -1.236971 -1.238761 -1.240486 -1.242146 -1.243743 -1.245277 -1.246750 -1.248161 -1.249512 -1.250804 -1.252037 -1.253213 -1.254333 -1.255397 -1.256406 -1.257361 -1.258263 -1.259113 -1.259912 -1.260660 -1.261358 -1.262008 -1.262611 -1.263166 -1.263675 -1.264140 -1.264560 -1.264936 -1.265271 -1.265563 -1.265815 -1.266027 -1.266200 -1.266335 -1.266433 -1.266494 -1.266520 -1.266512 -1.266470 -1.266395 -1.266288 -1.266150 -1.265982 -1.265784 -1.265559 -1.265305 -1.265026 -1.264720 -1.264389 -1.264035 -1.263657 -1.263258 -1.262837 -1.262395 -1.261934 -1.261454 -1.260956 -1.260442 -1.259911 -1.259365 -1.258805 -1.258232 -1.257645 -1.257048 -1.256439 -1.255821 -1.255193 -1.254558 -1.253915 -1.253266 -1.252611 -1.251952 -1.251289 -1.250623 -1.249955 -1.249287 -1.248617 -1.247949 -1.247282 -1.246618 -1.245957 -1.245300 -1.244650 -1.244009 -1.243382 -1.242772 -1.242183 -1.241618 -1.241081 -1.240576 -1.240105 -1.239674 -1.239284 -1.238940 -1.238646 -1.238405 -1.238220 -1.238096 -1.238036 -1.238042 -1.238115 -1.238255 -1.238462 -1.238736 -1.239076 -1.239483 -1.239956 -1.240494 -1.241099 -1.241768 -1.242503 -1.243301 -1.244164 -1.245090 -1.246080 -1.247131 -1.248246 -1.249422 -1.250659 -1.251958 -1.253317 -1.254736 -1.256215 -1.257753 -1.259350 -1.261006 -1.262720 -1.264491 -1.266319 -1.268205 -1.270146 -1.272144 -1.274197 -1.276305 -1.278468 -1.280685 -1.282957 -1.285283 -1.287665 -1.290103 -1.292596 -1.295146 -1.297752 -1.300415 -1.303135 -1.305913 -1.308747 -1.311638 -1.314585 -1.317586 -1.320643 -1.323754 -1.326919 -1.330137 -1.333409 -1.336732 -1.340108 -1.343535 -1.347013 -1.350541 -1.354120 -1.357748 -1.361426 -1.365151 -1.368925 -1.372747 -1.376616 -1.380531 -1.384493 -1.388500 -1.392553 -1.396650 -1.400792 -1.404977 -1.409206 -1.413478 -1.417792 -1.422148 -1.426545 -1.430983 -1.435462 -1.439980 -1.444538 -1.449135 -1.453771 -1.458444 -1.463156 -1.467904 -1.472689 -1.477510 -1.482366 -1.487258 -1.492184 -1.497145 -1.502139 -1.507167 -1.512227 -1.517320 -1.522444 -1.527600 -1.532787 -1.538004 -1.543251 -1.548527 -1.553832 -1.559166 -1.564527 -1.569916 -1.575332 -1.580775 -1.586243 -1.591737 -1.597257 -1.602801 -1.608369 -1.613960 -1.619575 -1.625212 -1.630872 -1.636553 -1.642256 -1.647979 -1.653723 -1.659486 -1.665269 -1.671071 -1.676891 -1.682729 -1.688584 -1.694456 -1.700345 -1.706249 -1.712169 -1.718105 -1.724054 -1.730018 -1.735995 -1.741985 -1.747988 -1.754003 -1.760030 -1.766068 -1.772116 -1.778175 -1.784243 -1.790321 -1.796407 -1.802502 -1.808605 -1.814714 -1.820831 -1.826954 -1.833083 -1.839217 -1.845357 -1.851500 -1.857648 -1.863799 -1.869953 -1.876110 -1.882269 -1.888429 -1.894590 -1.900752 -1.906914 -1.913076 -1.919237 -1.925396 -1.931554 -1.937710 -1.943862 -1.950012 -1.956157 -1.962298 -1.968434 -1.974564 -1.980686 -1.986802 -1.992909 -1.999007 -2.005096 -2.011174 -2.017242 -2.023297 -2.029341 -2.035371 -2.041387 -2.047389 -2.053376 -2.059347 -2.065301 -2.071238 -2.077156 -2.083056 -2.088937 -2.094797 -2.100636 -2.106454 -2.112250 -2.118022 -2.123771 -2.129495 -2.135195 -2.140868 -2.146515 -2.152135 -2.157727 -2.163290 -2.168825 -2.174332 -2.179809 -2.185257 -2.190675 -2.196063 -2.201420 -2.206747 -2.212042 -2.217306 -2.222539 -2.227739 -2.232907 -2.238042 -2.243144 -2.248212 -2.253247 -2.258248 -2.263214 -2.268146 -2.273042 -2.277903 -2.282729 -2.287519 -2.292273 -2.296992 -2.301675 -2.306322 -2.310933 -2.315508 -2.320047 -2.324549 -2.329016 -2.333446 -2.337840 -2.342197 -2.346518 -2.350803 -2.355050 -2.359261 -2.363436 -2.367573 -2.371673 -2.375737 -2.379763 -2.383752 -2.387704 -2.391619 -2.395497 -2.399337 -2.403140 -2.406905 -2.410632 -2.414322 -2.417974 -2.421588 -2.425165 -2.428703 -2.432203 -2.435666 -2.439090 -2.442476 -2.445823 -2.449133 -2.452403 -2.455636 -2.458829 -2.461985 -2.465101 -2.468179 -2.471217 -2.474217 -2.477178 -2.480100 -2.482982 -2.485826 -2.488630 -2.491395 -2.494120 -2.496805 -2.499451 -2.502056 -2.504622 -2.507147 -2.509632 -2.512077 -2.514481 -2.516845 -2.519168 -2.521450 -2.523691 -2.525891 -2.528050 -2.530168 -2.532244 -2.534279 -2.536273 -2.538225 -2.540136 -2.542006 -2.543834 -2.545621 -2.547367 -2.549071 -2.550734 -2.552356 -2.553936 -2.555474 -2.556972 -2.558427 -2.559842 -2.561215 -2.562547 -2.563837 -2.565086 -2.566293 -2.567459 -2.568584 -2.569667 -2.570708 -2.571708 -2.572667 -2.573584 -2.574460 -2.575294 -2.576087 -2.576838 -2.577548 -2.578216 -2.578843 -2.579428 -2.579971 -2.580474 -2.580934 -2.581353 -2.581731 -2.582067 -2.582361 -2.582614 -2.582825 -2.582995 -2.583123 -2.583210 -2.583255 -2.583258 -2.583220 -2.583140 -2.583018 -2.582855 -2.582651 -2.582404 -2.582116 -2.581787 -2.581416 -2.581003 -2.580548 -2.580052 -2.579514 -2.578935 -2.578313 -2.577651 -2.576946 -2.576200 -2.575412 -2.574582 -2.573711 -2.572798 -2.571843 -2.570846 -2.569808 -2.568728 -2.567606 -2.566443 -2.565237 -2.563990 -2.562702 -2.561371 -2.559999 -2.558585 -2.557129 -2.555631 -2.554092 -2.552510 -2.550887 -2.549222 -2.547516 -2.545767 -2.543977 -2.542144 -2.540270 -2.538354 -2.536397 -2.534397 -2.532356 -2.530273 -2.528148 -2.525982 -2.523774 -2.521524 -2.519233 -2.516901 -2.514527 -2.512112 -2.509656 -2.507158 -2.504619 -2.502039 -2.499418 -2.496756 -2.494052 -2.491308 -2.488523 -2.485697 -2.482830 -2.479922 -2.476973 -2.473984 -2.470954 -2.467884 -2.464773 -2.461621 -2.458429 -2.455196 -2.451923 -2.448610 -2.445257 -2.441863 -2.438429 -2.434954 -2.431440 -2.427886 -2.424291 -2.420657 -2.416982 -2.413269 -2.409516 -2.405725 -2.401897 -2.398032 -2.394131 -2.390195 -2.386223 -2.382217 -2.378178 -2.374106 -2.370002 -2.365866 -2.361699 -2.357502 -2.353275 -2.349019 -2.344735 -2.340424 -2.336085 -2.331720 -2.327329 -2.322913 -2.318473 -2.314009 -2.309522 -2.305013 -2.300482 -2.295929 -2.291357 -2.286764 -2.282152 -2.277522 -2.272874 -2.268209 -2.263527 -2.258829 -2.254117 -2.249389 -2.244648 -2.239893 -2.235126 -2.230347 -2.225556 -2.220755 -2.215944 -2.211123 -2.206294 -2.201457 -2.196613 -2.191761 -2.186904 -2.182041 -2.177174 -2.172302 -2.167427 -2.162549 -2.157669 -2.152788 -2.147905 -2.143023 -2.138141 -2.133260 -2.128381 -2.123504 -2.118630 -2.113761 -2.108895 -2.104035 -2.099180 -2.094332 -2.089491 -2.084657 -2.079832 -2.075015 -2.070209 -2.065412 -2.060627 -2.055853 -2.051092 -2.046343 -2.041608 -2.036887 -2.032181 -2.027490 -2.022816 -2.018159 -2.013519 -2.008897 -2.004294 -1.999710 -1.995147 -1.990604 -1.986083 -1.981583 -1.977107 -1.972654 -1.968225 -1.963820 -1.959441 -1.955088 -1.950761 -1.946462 -1.942189 -1.937944 -1.933724 -1.929531 -1.925363 -1.921221 -1.917105 -1.913014 -1.908947 -1.904906 -1.900888 -1.896895 -1.892926 -1.888980 -1.885058 -1.881159 -1.877283 -1.873430 -1.869599 -1.865791 -1.862004 -1.858239 -1.854495 -1.850773 -1.847071 -1.843390 -1.839729 -1.836089 -1.832467 -1.828866 -1.825283 -1.821719 -1.818174 -1.814647 -1.811138 -1.807646 -1.804172 -1.800715 -1.797274 -1.793850 -1.790443 -1.787050 -1.783674 -1.780313 -1.776966 -1.773635 -1.770317 -1.767014 -1.763725 -1.760449 -1.757186 -1.753936 -1.750699 -1.747474 -1.744261 -1.741059 -1.737869 -1.734691 -1.731523 -1.728365 -1.725218 -1.722081 -1.718953 -1.715835 -1.712725 -1.709625 -1.706533 -1.703449 -1.700372 -1.697304 -1.694243 -1.691188 -1.688141 -1.685099 -1.682064 -1.679035 -1.676011 -1.672992 -1.669987 -1.667079 -1.664397 -1.662044 -1.660034 -1.658357 -1.657002 -1.655957 -1.655213 -1.654759 -1.654583 -1.654675 -1.655025 -1.655622 -1.656455 -1.657513 -1.658786 -1.660263 -1.661936 -1.663796 -1.665837 -1.668050 -1.670428 -1.672963 -1.675648 -1.678475 -1.681437 -1.684525 -1.687732 -1.691051 -1.694473 -1.697992 -1.701599 -1.705288 -1.709049 -1.712877 -1.716762 -1.720698 -1.724676 -1.728690 -1.732731 -1.736792 -1.740866 -1.744952 -1.749047 -1.753149 -1.757255 -1.761362 -1.765470 -1.769575 -1.773675 -1.777769 -1.781853 -1.785925 -1.789983 -1.794026 -1.798049 -1.802053 -1.806033 -1.809987 -1.813914 -1.817812 -1.821677 -1.825508 -1.829302 -1.833057 -1.836771 -1.840441 -1.844066 -1.847643 -1.851169 -1.854642 -1.858061 -1.861422 -1.864724 -1.867965 -1.871141 -1.874251 -1.877292 -1.880263 -1.883160 -1.885982 -1.888726 -1.891390 -1.893972 -1.896470 -1.898880 -1.901202 -1.903432 -1.905569 -1.907609 -1.909552 -1.911394 -1.913133 -1.914767 -1.916294 -1.917711 -1.919017 -1.920208 -1.921283 -1.922239 -1.923074 -1.923786 -1.924372 -1.924831 -1.925159 -1.925355 -1.925416 -1.925341 -1.925126 -1.924770 -1.924270 -1.923624 -1.922829 -1.921884 -1.920786 -1.919533 -1.918123 -1.916553 -1.914820 -1.912924 -1.910861 -1.908629 -1.906226 -1.903650 -1.900897 -1.897967 -1.894857 -1.891565 -1.888087 -1.884422 -1.880569 -1.876523 -1.872284 -1.867848 -1.863214 -1.858379 -1.853341 -1.848098 -1.842648 -1.836987 -1.831115 -1.825028 -1.818724 -1.812201 -1.805457 -1.798490 -1.791297 -1.783875 -1.776224 -1.768340 -1.760220 -1.751864 -1.743268 -1.734431 -1.725349 -1.716021 -1.706445 -1.696618 -1.686537 -1.676201 -1.665608 -1.654754 -1.643638 -1.632258 -1.620611 -1.608695 -1.596507 -1.584046 -1.571309 -1.558294 -1.544998 -1.531422 -1.517607 -1.503618 -1.489522 -1.475385 -1.461269 -1.447193 -1.433157 -1.419161 -1.405206 -1.391290 -1.377415 -1.363580 -1.349784 -1.336029 -1.322314 -1.308638 -1.295002 -1.281406 -1.267850 -1.254333 -1.240856 -1.227419 -1.214021 -1.200662 -1.187343 -1.174063 -1.160823 -1.147622 -1.134460 -1.121337 -1.108253 -1.095209 -1.082204 -1.069237 -1.056310 -1.043421 -1.030571 -1.017761 -1.004988 -0.992255 -0.979560 -0.966904 -0.954287 -0.941708 -0.929167 -0.916665 -0.904202 -0.891776 -0.879389 -0.867041 -0.854730 -0.842458 -0.830224 -0.818027 -0.805869 -0.793749 -0.781667 -0.769622 -0.757616 -0.745647 -0.733716 -0.721823 -0.709967 -0.698149 -0.686369 -0.674626 -0.662920 -0.651252 -0.639621 -0.628028 -0.616472 -0.604953 -0.593471 -0.582026 -0.570619 -0.559248 -0.547915 -0.536618 -0.525359 -0.514136 -0.502950 -0.491801 -0.480688 -0.469612 -0.458573 -0.447571 -0.436604 -0.425675 -0.414782 -0.403925 -0.393104 -0.382320 -0.371572 -0.360861 -0.350185 -0.339546 -0.328942 -0.318375 -0.307842 -0.297340 -0.286869 -0.276424 -0.266003 -0.255604 -0.245225 -0.234864 -0.224520 -0.214194 -0.203887 -0.193599 -0.183331 -0.173082 -0.162853 -0.152644 -0.142457 -0.132290 -0.122146 -0.112023 -0.101923 -0.091846 -0.081792 -0.071761 -0.061754 -0.051772 -0.041815 -0.031882 -0.021975 -0.012094 -0.002239 0.007589 0.017390 0.027163 0.036909 0.046626 0.056315 0.065975 0.075606 0.085207 0.094778 0.104318 0.113827 0.123305 0.132751 0.142165 0.151547 0.160896 0.170211 0.179493 0.188741 0.197955 0.207134 0.216277 0.225385 0.234457 0.243493 0.252492 0.261453 0.270378 0.279264 0.288112 0.296922 0.305692 0.314423 0.323114 0.331765 0.340375 0.348945 0.357472 0.365959 0.374402 0.382804 0.391162 0.399477 0.407749 0.415976 0.424159 0.432297 0.440390 0.448437 0.456438 0.464393 0.472303 0.480168 0.487987 0.495761 0.503491 0.511176 0.518816 0.526413 0.533965 0.541474 0.548939 0.556361 0.563740 0.571076 0.578369 0.585620 0.592828 0.599994 0.607119 0.614201 0.621242 0.628242 0.635201 0.642119 0.648996 0.655833 0.662629 0.669386 0.676102 0.682779 0.689416 0.696015 0.702574 0.709094 0.715576 0.722019 0.728424 0.734791 0.741120 0.747412 0.753666 0.759883 0.766063 0.772206 0.778313 0.784383 0.790417 0.796415 0.802378 0.808304 0.814196 0.820052 0.825873 0.831660 0.837412 0.843130 0.848813 0.854463 0.860079 0.865661 0.871210 0.876726 0.882209 0.887659 0.893077 0.898462 0.903816 0.909137 0.914427 0.919686 0.924913 0.930109 0.935274 0.940408 0.945512 0.950586 0.955630 0.960644 0.965628 0.970583 0.975509 0.980405 0.985273 0.990112 0.994923 0.999705 1.004460 1.009186 1.013885 1.018557 1.023201 1.027819 1.032409 1.036973 1.041510 1.046022 1.050507 1.054966 1.059399 1.063807 1.068190 1.072548 1.076881 1.081189 1.085473 1.089732 1.093967 1.098179 1.102366 1.106530 1.110671 1.114789 1.118884 1.122956 1.127006 1.131033 1.135038 1.139021 1.142983 1.146923 1.150841 1.154739 1.158615 1.162471 1.166306 1.170121 1.173915 1.177690 1.181445 1.185180 1.188896 1.192593 1.196271 1.199930 1.203570 1.207191 1.210793 1.214374 1.217935 1.221474 1.224992 1.228488 1.231960 1.235409 1.238834 1.242234 1.245610 1.248959 1.252281 1.255576 1.258842 1.262078 1.265282 1.268455 1.271596 1.274702 1.277773 1.280809 1.283807 1.286768 1.289689 1.292571 1.295412 1.298211 1.300967 1.303679 1.306346 1.308968 1.311542 1.314068 1.316546 1.318973 1.321350 1.323674 1.325946 1.328164 1.330327 1.332434 1.334484 1.336476 1.338409 1.340282 1.342094 1.343844 1.345531 1.347154 1.348712 1.350205 1.351630 1.352987 1.354276 1.355494 1.356641 1.357717 1.358719 1.359647 1.360501 1.361278 1.361979 1.362601 1.363145 1.363608 1.363990 1.364291 1.364508 1.364642 1.364690 1.364653 1.364528 1.364315 1.364014 1.363622 1.363139 1.362564 1.361897 1.361135 1.360278 1.359325 1.358275 1.357127 1.355880 1.354533 1.353085 1.351535 1.349881 1.348124 1.346259 1.344286 1.342202 1.340006 1.337695 1.335267 1.332720 1.330053 1.327264 1.324349 1.321308 1.318138 1.314838 1.311404 1.307836 1.304132 1.300288 1.296304 1.292177 1.287906 1.283487 1.278920 1.274202 1.269332 1.264309 1.259137 1.253815 1.248348 1.242735 1.236980 1.231085 1.225050 1.218879 1.212572 1.206133 1.199562 1.192862 1.186034 1.179081 1.172005 1.164806 1.157488 1.150053 1.142501 1.134835 1.127057 1.119169 1.111173 1.103070 1.094863 1.086553 1.078142 1.069633 1.061026 1.052325 1.043531 1.034646 1.025671 1.016609 1.007462 0.998231 0.988919 0.979527 0.970057 0.960511 0.950892 0.941200 0.931438 0.921608 0.911712 0.901751 0.891727 0.881644 0.871501 0.861301 0.851047 0.840740 0.830382 0.819974 0.809519 0.799019 0.788476 0.777891 0.767266 0.756604 0.745906 0.735174 0.724410 0.713617 0.702798 0.691954 0.681088 0.670202 0.659300 0.648383 0.637454 0.626516 0.615570 0.604619 0.593666 0.582714 0.571763 0.560818 0.549880 0.538952 0.528037 0.517136 0.506252 0.495388 0.484546 0.473729 0.462938 0.452177 0.441448 0.430753 0.420095 0.409476 0.398899 0.388366 0.377880 0.367442 0.357056 0.346723 0.336447 0.326230 0.316074 0.305982 0.295955 0.285997 0.276110 0.266297 0.256559 0.246900 0.237321 0.227826 0.218416 0.209094 0.199863 0.190725 0.181682 0.172737 0.163892 0.155150 0.146513 0.137984 0.129564 0.121258 0.113066 0.104991 0.097037 0.089205 0.081497 0.073917 0.066466 0.059147 0.051963 0.044915 0.038007 0.031241 0.024619 0.018144 0.011818 0.005644 -0.000377 -0.006241 -0.011946 -0.017490 -0.022869 -0.028083 -0.033128 -0.038003 -0.042714 -0.047265 -0.051661 -0.055909 -0.060013 -0.063978 -0.067811 -0.071516 -0.075099 -0.078564 -0.081919 -0.085166 -0.088314 -0.091365 -0.094326 -0.097203 -0.099999 -0.102722 -0.105376 -0.107966 -0.110498 -0.112977 -0.115409 -0.117799 -0.120151 -0.122473 -0.124768 -0.127042 -0.129301 -0.131550 -0.133794 -0.136039 -0.138289 -0.140551 -0.142830 -0.145130 -0.147458 -0.149818 -0.152216 -0.154658 -0.157148 -0.159692 -0.162296 -0.164964 -0.167703 -0.170516 -0.173411 -0.176391 -0.179463 -0.182631 -0.185902 -0.189280 -0.192771 -0.196380 -0.200112 -0.203973 -0.207968 -0.212103 -0.216382 -0.220812 -0.225397 -0.230143 -0.235055 -0.240139 -0.245399 -0.250842 -0.256472 -0.262295 -0.268317 -0.274541 -0.280975 -0.287623 -0.294491 -0.301583 -0.308906 -0.316465 -0.324264 -0.332310 -0.340607 -0.349161 -0.357978 -0.367062 -0.376419 -0.386055 -0.395974 -0.406183 -0.416685 -0.427488 -0.438595 -0.450010 -0.461720 -0.473709 -0.485961 -0.498461 -0.511193 -0.524140 -0.537288 -0.550619 -0.564118 -0.577769 -0.591557 -0.605465 -0.619477 -0.633578 -0.647752 -0.661983 -0.676255 -0.690552 -0.704859 -0.719159 -0.733437 -0.747676 -0.761862 -0.775978 -0.790008 -0.803937 -0.817749 -0.831427 -0.844956 -0.858324 -0.871531 -0.884574 -0.897455 -0.910173 -0.922727 -0.935117 -0.947343 -0.959404 -0.971300 -0.983032 -0.994598 -1.005998 -1.017232 -1.028300 -1.039201 -1.049935 -1.060501 -1.070900 -1.081131 -1.091194 -1.101087 -1.110813 -1.120368 -1.129754 -1.138971 -1.148018 -1.156897 -1.165608 -1.174150 -1.182525 -1.190734 -1.198776 -1.206652 -1.214363 -1.221909 -1.229290 -1.236508 -1.243561 -1.250452 -1.257180 -1.263746 -1.270151 -1.276394 -1.282477 -1.288399 -1.294161 -1.299765 -1.305209 -1.310495 -1.315623 -1.320594 -1.325408 -1.330066 -1.334567 -1.338913 -1.343104 -1.347140 -1.351022 -1.354750 -1.358325 -1.361748 -1.365017 -1.368135 -1.371101 -1.373917 -1.376581 -1.379096 -1.381461 -1.383676 -1.385743 -1.387662 -1.389432 -1.391055 -1.392532 -1.393861 -1.395045 -1.396082 -1.396975 -1.397723 -1.398327 -1.398786 -1.399103 -1.399276 -1.399307 -1.399195 -1.398943 -1.398549 -1.398014 -1.397339 -1.396524 -1.395570 -1.394477 -1.393246 -1.391876 -1.390369 -1.388725 -1.386944 -1.385027 -1.382974 -1.380786 -1.378463 -1.376006 -1.373414 -1.370689 -1.367831 -1.364841 -1.361718 -1.358463 -1.355078 -1.351561 -1.347914 -1.344137 -1.340231 -1.336195 -1.332031 -1.327739 -1.323319 -1.318772 -1.314098 -1.309298 -1.304372 -1.299321 -1.294144 -1.288843 -1.283418 -1.277870 -1.272198 -1.266403 -1.260486 -1.254448 -1.248287 -1.242006 -1.235605 -1.229083 -1.222442 -1.215682 -1.208803 -1.201805 -1.194690 -1.187458 -1.180109 -1.172643 -1.165061 -1.157364 -1.149551 -1.141624 -1.133583 -1.125428 -1.117160 -1.108779 -1.100285 -1.091679 -1.082962 -1.074134 -1.065196 -1.056147 -1.046988 -1.037720 -1.028344 -1.018859 -1.009266 -0.999566 -0.989758 -0.979844 -0.969824 -0.959699 -0.949468 -0.939132 -0.928692 -0.918148 -0.907501 -0.896751 -0.885898 -0.874943 -0.863887 -0.852730 -0.841474 -0.830122 -0.818678 -0.807144 -0.795522 -0.783817 -0.772029 -0.760163 -0.748221 -0.736206 -0.724121 -0.711968 -0.699751 -0.687472 -0.675134 -0.662740 -0.650293 -0.637795 -0.625250 -0.612660 -0.600028 -0.587357 -0.574649 -0.561908 -0.549137 -0.536338 -0.523513 -0.510667 -0.497801 -0.484919 -0.472023 -0.459116 -0.446201 -0.433281 -0.420359 -0.407437 -0.394519 -0.381606 -0.368703 -0.355811 -0.342934 -0.330074 -0.317233 -0.304416 -0.291623 -0.278858 -0.266123 -0.253421 -0.240755 -0.228127 -0.215539 -0.202995 -0.190497 -0.178048 -0.165650 -0.153305 -0.141018 -0.128789 -0.116622 -0.104520 -0.092484 -0.080519 -0.068625 -0.056806 -0.045065 -0.033404 -0.021825 -0.010332 0.001073 0.012387 0.023609 0.034734 0.045761 0.056687 0.067509 0.078225 0.088832 0.099327 0.109708 0.119972 0.130117 0.140140 0.150038 0.159809 0.169450 0.178958 0.188331 0.197567 0.206662 0.215614 0.224420 0.233078 0.241585 0.249938 0.258136 0.266174 0.274051 0.281765 0.289313 0.296710 0.303978 0.311138 0.318211 0.325221 0.332187 0.339137 0.346095 0.353088 0.360141 0.367282 0.374536 0.381930 0.389489 0.397240 0.405208 0.413420 0.421903 0.430681 0.439780 0.449200 0.458926 0.468943 0.479235 0.489787 0.500585 0.511612 0.522854 0.534295 0.545920 0.557713 0.569660 0.581746 0.593954 0.606270 0.618679 0.631165 0.643713 0.656308 0.668934 0.681577 0.694220 0.706850 0.719450 0.732005 0.744500 0.756920 0.769249 0.781479 0.793605 0.805623 0.817532 0.829328 0.841008 0.852569 0.864007 0.875320 0.886504 0.897557 0.908475 0.919256 0.929897 0.940396 0.950751 0.960960 0.971019 0.980928 0.990683 1.000282 1.009723 1.019004 1.028122 1.037074 1.045860 1.054475 1.062919 1.071188 1.079280 1.087194 1.094926 1.102475 1.109837 1.117011 1.123995 1.130785 1.137381 1.143779 1.149977 1.155972 1.161763 1.167348 1.172723 1.177887 1.182842 1.187595 1.192152 1.196518 1.200700 1.204704 1.208535 1.212201 1.215706 1.219057 1.222261 1.225322 1.228248 1.231043 1.233715 1.236270 1.238713 1.241050 1.243290 1.245444 1.247526 1.249548 1.251524 1.253467 1.255389 1.257303 1.259222 1.261149 1.263085 1.265031 1.266987 1.268953 1.270931 1.272920 1.274920 1.276934 1.278960 1.281000 1.283053 1.285121 1.287204 1.289302 1.291416 1.293546 1.295693 1.297857 1.300039 1.302239 1.304458 1.306696 1.308952 1.311225 1.313516 1.315824 1.318147 1.320486 1.322840 1.325208 1.327589 1.329983 1.332390 1.334808 1.337237 1.339677 1.342126 1.344585 1.347053 1.349528 1.352011 1.354501 1.356996 1.359498 1.362004 1.364514 1.367028 1.369545 1.372064 1.374585 1.377107 1.379629 1.382152 1.384673 1.387193 1.389711 1.392227 1.394739 1.397247 1.399751 1.402249 1.404742 1.407228 1.409707 1.412179 1.414642 1.417096 1.419541 1.421976 1.424399 1.426812 1.429212 1.431599 1.433973 1.436334 1.438679 1.441010 1.443324 1.445622 1.447903 1.450167 1.452412 1.454638 1.456844 1.459030 1.461195 1.463339 1.465461 1.467560 1.469636 1.471687 1.473714 1.475716 1.477692 1.479642 1.481564 1.483458 1.485325 1.487162 1.488969 1.490747 1.492493 1.494208 1.495891 1.497541 1.499157 1.500740 1.502288 1.503800 1.505277 1.506717 1.508122 1.509489 1.510821 1.512117 1.513377 1.514601 1.515790 1.516943 1.518061 1.519143 1.520190 1.521202 1.522180 1.523122 1.524029 1.524902 1.525741 1.526545 1.527314 1.528050 1.528751 1.529419 1.530052 1.530652 1.531219 1.531751 1.532251 1.532717 1.533149 1.533549 1.533916 1.534250 1.534551 1.534820 1.535056 1.535260 1.535431 1.535570 1.535677 1.535752 1.535796 1.535807 1.535787 1.535736 1.535653 1.535538 1.535393 1.535217 1.535009 1.534771 1.534502 1.534202 1.533872 1.533511 1.533121 1.532699 1.532248 1.531767 1.531256 1.530716 1.530146 1.529546 1.528917 1.528258 1.527571 1.526854 1.526108 1.525334 1.524531 1.523699 1.522839 1.521950 1.521033 1.520088 1.519115 1.518114 1.517085 1.516028 1.514943 1.513832 1.512692 1.511526 1.510332 1.509111 1.507864 1.506589 1.505288 1.503960 1.502606 1.501225 1.499818 1.498385 1.496926 1.495440 1.493929 1.492393 1.490830 1.489243 1.487629 1.485991 1.484327 1.482638 1.480925 1.479186 1.477423 1.475635 1.473823 1.471986 1.470125 1.468240 1.466331 1.464398 1.462441 1.460460 1.458456 1.456428 1.454377 1.452303 1.450205 1.448085 1.445941 1.443775 1.441586 1.439374 1.437140 1.434883 1.432605 1.430304 1.427981 1.425636 1.423269 1.420880 1.418470 1.416039 1.413586 1.411112 1.408616 1.406100 1.403563 1.401005 1.398426 1.395826 1.393206 1.390566 1.387905 1.385225 1.382524 1.379803 1.377063 1.374303 1.371523 1.368724 1.365905 1.363067 1.360210 1.357334 1.354439 1.351525 1.348593 1.345641 1.342672 1.339684 1.336678 1.333653 1.330611 1.327551 1.324472 1.321377 1.318263 1.315132 1.311984 1.308818 1.305636 1.302436 1.299219 1.295986 1.292736 1.289469 1.286186 1.282887 1.279571 1.276239 1.272891 1.269527 1.266147 1.262752 1.259341 1.255915 1.252473 1.249016 1.245544 1.242056 1.238554 1.235037 1.231506 1.227959 1.224399 1.220824 1.217235 1.213631 1.210014 1.206382 1.202737 1.199078 1.195406 1.191720 1.188021 1.184308 1.180583 1.176844 1.173093 1.169328 1.165551 1.161762 1.157960 1.154145 1.150319 1.146480 1.142629 1.138766 1.134892 1.131006 1.127108 1.123199 1.119278 1.115346 1.111403 1.107450 1.103485 1.099509 1.095523 1.091526 1.087518 1.083501 1.079473 1.075435 1.071387 1.067329 1.063261 1.059184 1.055097 1.051000 1.046894 1.042779 1.038655 1.034522 1.030380 1.026229 1.022069 1.017901 1.013725 1.009540 1.005347 1.001145 0.996936 0.992719 0.988494 0.984261 0.980021 0.975774 0.971519 0.967257 0.962987 0.958711 0.954428 0.950138 0.945841 0.941538 0.937228 0.932912 0.928590 0.924262 0.919927 0.915587 0.911241 0.906889 0.902532 0.898169 0.893801 0.889428 0.885050 0.880666 0.876278 0.871885 0.867487 0.863085 0.858679 0.854268 0.849852 0.845433 0.841010 0.836582 0.832151 0.827717 0.823279 0.818837 0.814392 0.809944 0.805492 0.801038 0.796581 0.792121 0.787658 0.783193 0.778726 0.774256 0.769783 0.765309 0.760833 0.756355 0.751875 0.747393 0.742910 0.738426 0.733940 0.729453 0.724965 0.720475 0.715985 0.711495 0.707003 0.702511 0.698019 0.693526 0.689033 0.684540 0.680047 0.675554 0.671061 0.666569 0.662077 0.657586 0.653095 0.648605 0.644116 0.639628 0.635142 0.630656 0.626172 0.621689 0.617208 0.612728 0.608251 0.603775 0.599301 0.594830 0.590360 0.585893 0.581428 0.576966 0.572507 0.568051 0.563597 0.559146 0.554699 0.550255 0.545814 0.541377 0.536943 0.532513 0.528086 0.523664 0.519245 0.514831 0.510421 0.506016 0.501614 0.497218 0.492826 0.488439 0.484057 0.479679 0.475307 0.470941 0.466579 0.462223 0.457873 0.453528 0.449189 0.444856 0.440529 0.436208 0.431893 0.427585 0.423282 0.418986 0.414697 0.410414 0.406138 0.401869 0.397607 0.393351 0.389103 0.384862 0.380628 0.376401 0.372182 0.367971 0.363767 0.359571 0.355382 0.351202 0.347029 0.342865 0.338709 0.334561 0.330421 0.326290 0.322168 0.318054 0.313949 0.309853 0.305765 0.301687 0.297618 0.293558 0.289507 0.285466 0.281434 0.277412 0.273399 0.269397 0.265404 0.261421 0.257448 0.253485 0.249532 0.245590 0.241658 0.237737 0.233826 0.229926 0.226037 0.222159 0.218291 0.214435 0.210590 0.206756 0.202933 0.199122 0.195323 0.191535 0.187758 0.183994 0.180241 0.176501 0.172772 0.169056 0.165352 0.161660 0.157981 0.154314 0.150660 0.147019 0.143391 0.139775 0.136173 0.132583 0.129007 0.125444 0.121894 0.118358 0.114836 0.111327 0.107832 0.104351 0.100883 0.097430 0.093991 0.090566 0.087155 0.083759 0.080377 0.077010 0.073658 0.070320 0.066997 0.063689 0.060397 0.057119 0.053857 0.050610 0.047378 0.044162 0.040961 0.037776 0.034607 0.031454 0.028317 0.025196 0.022091 0.019003 0.015930 0.012874 0.009835 0.006812 0.003806 0.000817 -0.002155 -0.005110 -0.008049 -0.010970 -0.013874 -0.016760 -0.019629 -0.022481 -0.025315 -0.028131 -0.030930 -0.033710 -0.036473 -0.039218 -0.041944 -0.044652 -0.047342 -0.050014 -0.052667 -0.055301 -0.057917 -0.060514 -0.063092 -0.065651 -0.068192 -0.070713 -0.073214 -0.075697 -0.078160 -0.080604 -0.083028 -0.085432 -0.087817 -0.090182 -0.092527 -0.094851 -0.097156 -0.099441 -0.101705 -0.103949 -0.106172 -0.108375 -0.110558 -0.112719 -0.114860 -0.116980 -0.119078 -0.121156 -0.123212 -0.125247 -0.127261 -0.129253 -0.131224 -0.133172 -0.135099 -0.137004 -0.138887 -0.140747 -0.142585 -0.144401 -0.146195 -0.147965 -0.149713 -0.151438 -0.153140 -0.154819 -0.156475 -0.158108 -0.159717 -0.161303 -0.162865 -0.164403 -0.165918 -0.167408 -0.168875 -0.170317 -0.171735 -0.173129 -0.174498 -0.175843 -0.177163 -0.178458 -0.179728 -0.180974 -0.182194 -0.183389 -0.184558 -0.185703 -0.186821 -0.187914 -0.188981 -0.190022 -0.191038 -0.192027 -0.192990 -0.193926 -0.194836 -0.195720 -0.196577 -0.197407 -0.198211 -0.198987 -0.199736 -0.200458 -0.201153 -0.201821 -0.202461 -0.203073 -0.203658 -0.204214 -0.204743 -0.205244 -0.205716 -0.206161 -0.206577 -0.206964 -0.207323 -0.207653 -0.207954 -0.208227 -0.208470 -0.208685 -0.208873 -0.209035 -0.209171 -0.209281 -0.209368 -0.209432 -0.209473 -0.209493 -0.209493 -0.209472 -0.209433 -0.209375 -0.209301 -0.209209 -0.209102 -0.208981 -0.208845 -0.208697 -0.208536 -0.208364 -0.208182 -0.207989 -0.207788 -0.207579 -0.207363 -0.207140 -0.206912 -0.206679 -0.206442 -0.206203 -0.205961 -0.205718 -0.205475 -0.205232 -0.204990 -0.204750 -0.204514 -0.204281 -0.204052 -0.203829 -0.203613 -0.203403 -0.203202 -0.203009 -0.202826 -0.202654 -0.202493 -0.202344 -0.202208 -0.202086 -0.201978 -0.201887 -0.201811 -0.201753 -0.201713 -0.201692 -0.201690 -0.201710 -0.201750 -0.201813 -0.201899 -0.202009 -0.202144 -0.202305 -0.202492 -0.202706 -0.202949 -0.203220 -0.203521 -0.203854 -0.204217 -0.204613 -0.205042 -0.205506 -0.206004 -0.206538 -0.207108 -0.207717 -0.208363 -0.209049 -0.209775 -0.210544 -0.211354 -0.212205 -0.213096 -0.214027 -0.214996 -0.216003 -0.217048 -0.218128 -0.219245 -0.220395 -0.221580 -0.222798 -0.224048 -0.225329 -0.226641 -0.227983 -0.229354 -0.230754 -0.232180 -0.233634 -0.235113 -0.236617 -0.238146 -0.239698 -0.241273 -0.242869 -0.244487 -0.246124 -0.247782 -0.249457 -0.251151 -0.252862 -0.254589 -0.256331 -0.258088 -0.259859 -0.261643 -0.263439 -0.265246 -0.267065 -0.268893 -0.270730 -0.272575 -0.274427 -0.276287 -0.278152 -0.280022 -0.281896 -0.283774 -0.285654 -0.287536 -0.289419 -0.291303 -0.293185 -0.295067 -0.296946 -0.298822 -0.300694 -0.302562 -0.304424 -0.306280 -0.308129 -0.309971 -0.311803 -0.313626 -0.315439 -0.317241 -0.319032 -0.320809 -0.322573 -0.324323 -0.326058 -0.327777 -0.329480 -0.331165 -0.332832 -0.334479 -0.336107 -0.337715 -0.339300 -0.340864 -0.342405 -0.343921 -0.345414 -0.346880 -0.348321 -0.349734 -0.351120 -0.352476 -0.353804 -0.355101 -0.356367 -0.357601 -0.358803 -0.359971 -0.361105 -0.362204 -0.363267 -0.364293 -0.365282 -0.366233 -0.367144 -0.368016 -0.368847 -0.369636 -0.370384 -0.371090 -0.371755 -0.372378 -0.372960 -0.373501 -0.374002 -0.374461 -0.374880 -0.375258 -0.375596 -0.375894 -0.376152 -0.376370 -0.376548 -0.376687 -0.376786 -0.376845 -0.376866 -0.376847 -0.376790 -0.376694 -0.376559 -0.376385 -0.376174 -0.375924 -0.375636 -0.375310 -0.374946 -0.374545 -0.374106 -0.373629 -0.373116 -0.372566 -0.371978 -0.371354 -0.370693 -0.369996 -0.369262 -0.368492 -0.367686 -0.366844 -0.365966 -0.365053 -0.364104 -0.363119 -0.362100 -0.361045 -0.359956 -0.358831 -0.357672 -0.356479 -0.355251 -0.353988 -0.352692 -0.351362 -0.349998 -0.348600 -0.347169 -0.345704 -0.344206 -0.342675 -0.341111 -0.339515 -0.337885 -0.336223 -0.334529 -0.332802 -0.331044 -0.329253 -0.327430 -0.325576 -0.323690 -0.321773 -0.319825 -0.317845 -0.315835 -0.313793 -0.311721 -0.309619 -0.307486 -0.305323 -0.303129 -0.300906 -0.298653 -0.296370 -0.294057 -0.291715 -0.289344 -0.286944 -0.284515 -0.282056 -0.279570 -0.277054 -0.274510 -0.271938 -0.269338 -0.266710 -0.264054 -0.261370 -0.258658 -0.255920 -0.253153 -0.250360 -0.247540 -0.244693 -0.241819 -0.238919 -0.235992 -0.233038 -0.230059 -0.227054 -0.224023 -0.220966 -0.217883 -0.214775 -0.211642 -0.208483 -0.205300 -0.202092 -0.198859 -0.195601 -0.192319 -0.189012 -0.185682 -0.182327 -0.178949 -0.175546 -0.172120 -0.168671 -0.165198 -0.161703 -0.158184 -0.154642 -0.151077 -0.147490 -0.143881 -0.140249 -0.136595 -0.132919 -0.129221 -0.125501 -0.121759 -0.117996 -0.114212 -0.110407 -0.106580 -0.102733 -0.098865 -0.094976 -0.091067 -0.087137 -0.083187 -0.079217 -0.075226 -0.071216 -0.067185 -0.063135 -0.059064 -0.054974 -0.050864 -0.046734 -0.042585 -0.038416 -0.034228 -0.030020 -0.025793 -0.021547 -0.017282 -0.012998 -0.008694 -0.004372 -0.000031 0.004329 0.008708 0.013105 0.017521 0.021956 0.026409 0.030880 0.035369 0.039877 0.044403 0.048947 0.053509 0.058088 0.062686 0.067301 0.071934 0.076585 0.081253 0.085939 0.090642 0.095362 0.100100 0.104855 0.109627 0.114416 0.119221 0.124044 0.128884 0.133740 0.138613 0.143503 0.148409 0.153331 0.158270 0.163225 0.168197 0.173184 0.178188 0.183208 0.188243 0.193295 0.198362 0.203445 0.208543 0.213658 0.218787 0.223932 0.229093 0.234268 0.239459 0.244665 0.249886 0.255122 0.260373 0.265639 0.270919 0.276214 0.281524 0.286848 0.292187 0.297540 0.302908 0.308289 0.313685 0.319095 0.324519 0.329957 0.335409 0.340874 0.346354 0.351847 0.357353 0.362873 0.368407 0.373954 0.379514 0.385087 0.390674 0.396273 0.401886 0.407512 0.413150 0.418801 0.424465 0.430141 0.435830 0.441532 0.447246 0.452972 0.458710 0.464461 0.470224 0.475999 0.481786 0.487584 0.493395 0.499217 0.505051 0.510897 0.516754 0.522623 0.528504 0.534395 0.540299 0.546213 0.552139 0.558076 0.564024 0.569983 0.575953 0.581934 0.587926 0.593929 0.599942 0.605966 0.612001 0.618047 0.624102 0.630169 0.636246 0.642333 0.648430 0.654538 0.660655 0.666783 0.672921 0.679069 0.685226 0.691394 0.697571 0.703757 0.709949 0.716147 0.722348 0.728553 0.734758 0.740962 0.747165 0.753363 0.759557 0.765745 0.771924 0.778094 0.784252 0.790399 0.796531 0.802648 0.808747 0.814829 0.820890 0.826930 0.832947 0.838940 0.844906 0.850846 0.856756 0.862636 0.868484 0.874299 0.880079 0.885822 0.891528 0.897194 0.902820 0.908403 0.913942 0.919436 0.924884 0.930283 0.935632 0.940930 0.946175 0.951366 0.956501 0.961579 0.966598 0.971557 0.976454 0.981289 0.986058 0.990761 0.995397 0.999963 1.004459 1.008883 1.013233 1.017507 1.021706 1.025826 1.029866 1.033826 1.037703 1.041495 1.045203 1.048823 1.052354 1.055796 1.059146 1.062403 1.065565 1.068632 1.071601 1.074471 1.077240 1.079908 1.082472 1.084931 1.087284 1.089529 1.091664 1.093689 1.095601 1.097399 1.099082 1.100647 1.102095 1.103423 1.104629 1.105712 1.106671 1.107505 1.108211 1.108788 1.109235 1.109550 1.109732 1.109779 1.109689 1.109462 1.109096 1.108589 1.107940 1.107147 1.106209 1.105124 1.103891 1.102508 1.100974 1.099287 1.097448 1.095458 1.093318 1.091031 1.088598 1.086021 1.083302 1.080441 1.077442 1.074306 1.071034 1.067628 1.064090 1.060422 1.056625 1.052701 1.048652 1.044479 1.040185 1.035771 1.031238 1.026589 1.021825 1.016947 1.011958 1.006860 1.001654 0.996341 0.990924 0.985403 0.979782 0.974062 0.968243 0.962329 0.956321 0.950220 0.944028 0.937747 0.931379 0.924925 0.918388 0.911768 0.905068 0.898289 0.891433 0.884501 0.877496 0.870420 0.863273 0.856058 0.848776 0.841429 0.834019 0.826547 0.819016 0.811426 0.803780 0.796080 0.788326 0.780522 0.772668 0.764766 0.756818 0.748826 0.740791 0.732715 0.724601 0.716448 0.708260 0.700039 0.691784 0.683500 0.675186 0.666846 0.658480 0.650090 0.641679 0.633247 0.624797 0.616330 0.607848 0.599352 0.590845 0.582329 0.573804 0.565272 0.556736 0.548197 0.539656 0.531116 0.522579 0.514045 0.505516 0.496995 0.488484 0.479982 0.471494 0.463019 0.454561 0.446120 0.437698 0.429298 0.420921 0.412568 0.404241 0.395942 0.387673 0.379435 0.371231 0.363061 0.354928 0.346834 0.338779 0.330766 0.322797 0.314873 0.306995 0.299167 0.291388 0.283662 0.275990 0.268373 0.260813 0.253313 0.245873 0.238495 0.231182 0.223934 0.216754 0.209644 0.202604 0.195637 0.188745 0.181928 0.175190 0.168531 0.161954 0.155460 0.149050 0.142727 0.136492 0.130347 0.124294 0.118334 0.112469 0.106697 0.101018 0.095433 0.089939 0.084538 0.079228 0.074009 0.068881 0.063843 0.058894 0.054035 0.049264 0.044582 0.039987 0.035480 0.031060 0.026726 0.022478 0.018316 0.014238 0.010246 0.006337 0.002513 -0.001229 -0.004888 -0.008464 -0.011959 -0.015372 -0.018704 -0.021956 -0.025128 -0.028220 -0.031233 -0.034167 -0.037023 -0.039801 -0.042503 -0.045127 -0.047675 -0.050147 -0.052543 -0.054865 -0.057112 -0.059285 -0.061384 -0.063410 -0.065363 -0.067244 -0.069054 -0.070792 -0.072459 -0.074056 -0.075583 -0.077040 -0.078429 -0.079750 -0.081004 -0.082191 -0.083312 -0.084367 -0.085358 -0.086284 -0.087146 -0.087945 -0.088682 -0.089357 -0.089971 -0.090524 -0.091018 -0.091451 -0.091826 -0.092143 -0.092403 -0.092605 -0.092751 -0.092842 -0.092877 -0.092858 -0.092785 -0.092659 -0.092480 -0.092249 -0.091967 -0.091634 -0.091251 -0.090818 -0.090337 -0.089807 -0.089229 -0.088604 -0.087933 -0.087216 -0.086454 -0.085647 -0.084796 -0.083902 -0.082965 -0.081985 -0.080965 -0.079903 -0.078801 -0.077659 -0.076478 -0.075259 -0.074001 -0.072707 -0.071376 -0.070009 -0.068606 -0.067169 -0.065697 -0.064192 -0.062654 -0.061084 -0.059481 -0.057848 -0.056185 -0.054491 -0.052768 -0.051017 -0.049237 -0.047430 -0.045597 -0.043737 -0.041851 -0.039941 -0.038006 -0.036047 -0.034066 -0.032062 -0.030036 -0.027990 -0.025923 -0.023838 -0.021733 -0.019611 -0.017472 -0.015316 -0.013145 -0.010960 -0.008760 -0.006547 -0.004322 -0.002085 0.000163 0.002422 0.004689 0.006965 0.009250 0.011541 0.013838 0.016141 0.018449 0.020762 0.023077 0.025395 0.027715 0.030035 0.032356 0.034677 0.036996 0.039313 0.041627 0.043938 0.046245 0.048546 0.050841 0.053130 0.055411 0.057684 0.059947 0.062201 0.064444 0.066675 0.068894 0.071100 0.073293 0.075470 0.077632 0.079778 0.081906 0.084017 0.086109 0.088182 0.090235 0.092266 0.094276 0.096263 0.098226 0.100165 0.102080 0.103968 0.105830 0.107665 0.109471 0.111249 0.112996 0.114713 0.116399 0.118053 0.119673 0.121260 0.122813 0.124330 0.125811 0.127255 0.128661 0.130029 0.131358 0.132646 0.133894 0.135099 0.136263 0.137383 0.138459 0.139491 0.140476 0.141415 0.142307 0.143151 0.143947 0.144692 0.145387 0.146031 0.146623 0.147162 0.147648 0.148079 0.148455 0.148775 0.149039 0.149244 0.149392 0.149480 0.149508 0.149476 0.149382 0.149226 0.149007 0.148724 0.148376 0.147962 0.147483 0.146936 0.146322 0.145638 0.144886 0.144063 0.143169 0.142203 0.141165 0.140053 0.138867 0.137605 0.136269 0.134855 0.133364 0.131795 0.130147 0.128419 0.126611 0.124721 0.122749 0.120694 0.118556 0.116333 0.114024 0.111630 0.109148 0.106579 0.103921 0.101174 0.098337 0.095409 0.092390 0.089277 0.086072 0.082773 0.079378 0.075888 0.072303 0.068624 0.064851 0.060985 0.057028 0.052979 0.048841 0.044614 0.040298 0.035896 0.031407 0.026834 0.022177 0.017437 0.012616 0.007714 0.002734 -0.002325 -0.007460 -0.012671 -0.017956 -0.023315 -0.028747 -0.034249 -0.039821 -0.045462 -0.051171 -0.056946 -0.062787 -0.068692 -0.074660 -0.080689 -0.086780 -0.092930 -0.099139 -0.105405 -0.111727 -0.118105 -0.124536 -0.131020 -0.137556 -0.144142 -0.150777 -0.157461 -0.164191 -0.170968 -0.177789 -0.184654 -0.191561 -0.198509 -0.205498 -0.212526 -0.219591 -0.226693 -0.233831 -0.241003 -0.248209 -0.255446 -0.262715 -0.270013 -0.277340 -0.284695 -0.292075 -0.299482 -0.306912 -0.314365 -0.321840 -0.329336 -0.336851 -0.344385 -0.351935 -0.359502 -0.367084 -0.374679 -0.382287 -0.389907 -0.397537 -0.405176 -0.412823 -0.420477 -0.428137 -0.435802 -0.443470 -0.451140 -0.458811 -0.466483 -0.474153 -0.481821 -0.489485 -0.497145 -0.504800 -0.512447 -0.520086 -0.527717 -0.535336 -0.542945 -0.550541 -0.558123 -0.565690 -0.573241 -0.580775 -0.588291 -0.595786 -0.603257 -0.610702 -0.618117 -0.625501 -0.632849 -0.640160 -0.647430 -0.654657 -0.661838 -0.668969 -0.676048 -0.683073 -0.690040 -0.696947 -0.703791 -0.710568 -0.717277 -0.723914 -0.730476 -0.736961 -0.743365 -0.749687 -0.755923 -0.762070 -0.768125 -0.774086 -0.779950 -0.785713 -0.791374 -0.796929 -0.802376 -0.807711 -0.812932 -0.818036 -0.823020 -0.827881 -0.832617 -0.837224 -0.841700 -0.846042 -0.850248 -0.854313 -0.858236 -0.862014 -0.865654 -0.869223 -0.872800 -0.876470 -0.880312 -0.884410 -0.888846 -0.893701 -0.899058 -0.904997 -0.911603 -0.918955 -0.927137 -0.936230 -0.946317 -0.957478 -0.969798 -0.983356 -0.998235 -1.014518 -1.032286 -1.051621 -1.072605 -1.095320 -1.119849 