0.000000 0.000000 0.000000 0.000000 0.000000 0.000000 0.000000 0.000000 0.087544 -0.047660 -1.318536 -1.645041 -1.025490 0.137744 0.435905 -1.687784 -3.005984 -1.899570 -1.816281 -1.669398 -0.400718 -0.842559 -2.071238 -2.134985 -2.048008 -0.810868 0.436151 0.817139 0.156238 -1.576631 -2.549031 -1.657568 -1.557245 -1.462903 -0.777640 -0.101290 -0.761166 -3.248772 -3.521536 -4.037213 -3.761845 -2.205808 -2.648481 -2.758287 -2.997428 -3.831726 -4.662814 -5.117705 -4.051731 -3.505195 -1.630008 -0.775417 -1.266039 -2.019464 -1.658905 -2.051828 -1.835243 -0.554084 0.387747 -0.732270 -1.161193 -1.723239 -2.878124 -3.134491 -2.331422 -2.266804 -2.350725 -1.807684 -1.542481 -1.190213 -2.002859 -2.451444 -3.432049 -3.299993 -2.641885 -2.729300 -3.363748 -3.532465 -3.995882 -4.284269 -5.713485 -6.154791 -5.200931 -4.764533 -3.459680 -2.956951 -3.861265 -5.203977 -6.790666 -6.683578 -5.362919 -3.773991 -3.122759 -3.886597 -5.530758 -6.430655 -5.666194 -4.611747 -3.515907 -3.293990 -3.580458 -2.589495 -3.761191 -2.469105 -2.138949 -1.626811 -1.312855 -2.317589 -1.186505 -0.968442 -1.614048 -1.373807 -2.158907 -2.053284 -0.975640 -0.982542 -1.513036 -0.644843 0.373480 0.222216 -2.388658 -1.448653 -0.799107 -1.333014 0.602011 1.048596 -0.230642 -0.335878 0.720475 0.763189 -0.112514 1.810309 2.474764 2.646233 2.251524 1.294389 1.757923 2.050836 2.527533 3.225465 3.428585 2.325051 2.790825 3.112381 2.486355 2.864180 4.348030 3.681245 2.853595 3.546079 6.300829 6.728742 5.624158 5.586575 4.520264 3.103232 3.505772 5.163055 5.753907 4.282926 3.046017 2.366357 1.738905 1.832415 2.583990 3.064959 2.421863 2.785266 2.589475 3.219837 4.119804 5.202241 4.909783 4.607356 4.503797 4.888153 5.370584 4.530434 3.950789 3.247259 2.696782 2.835101 3.991027 4.044176 2.483033 0.188112 0.041743 -0.201650 -0.234088 -0.282325 0.040918 0.190850 -0.901013 -1.879906 -2.828895 -3.883135 -2.663063 -1.433128 -0.409623 0.219212 -0.273958 -1.170338 -0.651995 0.511976 1.099007 1.723427 2.098350 1.185232 1.344414 0.145752 -0.355069 -0.161878 0.189301 0.789297 -0.012144 0.048853 -1.240299 -3.362358 -3.000582 -3.294449 -2.495626 -2.268706 -2.903931 -3.445711 -3.953074 -4.313437 -3.940427 -2.426668 -2.014757 -2.340671 -0.911498 -4.521836 -4.715333 -4.258310 -2.913176 -2.124057 -3.010662 -4.580392 -4.442808 -4.699795 -4.144197 -4.109001 -4.519190 -3.796003 -4.895990 -4.140968 -4.531007 -4.268195 -3.783360 -4.342035 -3.738584 -3.491171 -3.203125 -4.349931 -3.938182 -3.839933 -4.276601 -4.757763 -4.525705 -5.438067 -6.162038 -6.109309 -5.069069 -5.698858 -6.811735 -6.339459 -7.119489 -6.055955 -5.605192 -5.452817 -6.424935 -6.779442 -6.427743 -7.042033 -6.097886 -5.566863 -5.985065 -7.063527 -7.743023 -8.405033 -9.837226 -9.605917 -8.258203 -8.439872 -9.040247 -10.279564 -10.608303 -11.936160 -11.735562 -11.065557 -10.838065 -10.624132 -12.135173 -12.839371 -13.085993 -12.933409 -13.093996 -12.330479 -12.799200 -12.495235 -11.662285 -11.581013 -12.324959 -12.928267 -13.707532 -13.495051 -11.877632 -10.390973 -10.907292 -13.077266 -14.517111 -13.736644 -13.627660 -12.827786 -12.781087 -13.686191 -13.206995 -12.741470 -12.847188 -13.446502 -13.596910 -12.830586 -11.097075 -10.638991 -11.631423 -11.685061 -11.648440 -11.761959 -11.474296 -12.262378 -11.626686 -10.528249 -10.975223 -9.550301 -10.335880 -12.122892 -12.895807 -13.316822 -10.682021 -8.892119 -9.867167 -10.871569 -12.245602 -12.684980 -11.664645 -9.889328 -8.422834 -8.865380 -8.356101 -9.420321 -10.176834 -9.794311 -9.237030 -8.707099 -8.497398 -8.415868 -8.876222 -10.415274 -10.804940 -9.480617 -7.772260 -8.242614 -6.896360 -6.850852 -7.133614 -8.007206 -7.194287 -5.580379 -4.953915 -3.509001 -4.206472 -5.916811 -5.230578 -5.545786 -4.526310 -3.471884 -3.983148 -4.121600 -3.681855 -4.904958 -4.694612 -4.223361 -3.551508 -2.848357 -2.547211 -2.160419 -2.599712 -2.702852 -1.827869 -0.602599 -0.589142 -2.013506 -1.834278 -1.851313 -1.363565 -0.550731 -0.956154 -1.540100 -2.105915 -1.708833 -2.017578 -2.783223 -2.216340 -1.524031 -1.618728 -1.609160 -1.423204 -0.925397 -0.052513 0.877446 0.783644 1.311644 1.587526 1.643894 0.651517 0.976956 0.620411 0.508133 1.912508 2.332571 2.528905 1.814974 1.323050 1.582284 0.539486 1.242732 2.377212 1.489419 2.550545 0.502295 -0.889156 -1.783448 -2.813040 -1.945377 -1.358587 -2.911545 -3.406381 -4.076063 -4.858506 -5.203110 -4.397966 -5.443751 -4.910038 -4.785504 -5.375193 -6.614357 -6.814567 -6.823722 -6.601220 -7.222864 -6.734244 -8.173697 -9.957407 -10.404637 -10.355816 -10.388959 -8.811967 -8.204138 -9.696565 -11.018147 -10.853518 -11.146838 -10.463975 -10.892377 -10.093606 -10.509301 -11.295509 -10.978437 -11.267653 -11.709298 -11.051638 -10.341419 -9.765206 -10.090971 -9.665803 -10.330932 -9.850955 -10.256960 -10.320987 -9.308004 -10.252254 -9.828515 -9.026629 -9.192334 -8.781020 -9.391434 -9.569925 -9.252516 -8.935044 -7.769065 -7.145306 -8.385882 -9.160089 -9.945224 -10.587058 -10.219684 -8.192675 -5.742796 -6.231113 -6.527390 -7.634925 -8.526762 -8.998763 -7.074861 -5.396468 -6.743604 -5.600784 -5.998710 -6.616743 -7.335226 -6.270475 -5.597458 -6.009541 -5.953724 -7.356905 -7.313581 -7.252394 -6.674374 -5.290710 -5.929008 -5.326315 -5.919763 -6.451269 -5.732433 -3.976983 -1.417990 -1.153157 -2.300553 -4.171535 -3.828885 -2.774536 -1.837204 -0.993423 -1.663863 -2.561181 -2.001854 -2.922230 -1.794360 -1.309749 -1.006695 -0.843703 -0.513230 0.612323 0.007243 -0.395214 -1.995566 -1.675026 -0.890208 0.574939 0.018772 -2.686821 -3.427142 -3.035124 -1.752350 -1.657163 -1.916506 -1.985914 -1.086435 -0.874338 -2.799095 -3.968677 -3.984143 -3.403280 -1.413239 -1.410984 -1.714233 -3.690289 -5.487105 -4.651981 -4.477851 -3.077524 -2.367518 -2.705911 -2.894684 -3.018713 -2.203552 -1.871775 -2.076076 -2.025171 -1.671987 -0.575898 -1.444843 -2.626544 -2.384986 -2.578655 -3.129617 -2.035843 -2.319384 -1.765842 -1.349413 -2.467936 -2.342582 -2.069674 -2.147893 -3.070368 -3.215896 -1.826014 -1.125770 0.311488 0.792870 -1.192259 -0.389579 -0.753565 0.274152 2.429108 2.391814 1.422800 0.492656 -0.996078 -1.647233 -1.258348 -1.278079 -0.833942 0.351178 -0.880050 -1.342629 -1.716292 -1.206241 -0.926348 0.456778 2.467136 1.966563 1.545367 0.189700 -1.118422 0.113969 1.508561 1.457746 1.176768 0.530450 1.057950 1.979909 1.411789 0.392498 0.357573 0.169910 1.286247 2.500399 2.443609 2.631776 0.756403 0.301653 1.676158 1.708489 2.794611 2.759517 2.981843 3.816382 2.652469 2.834015 2.792922 2.132087 3.164938 4.431003 4.691644 4.227663 4.010197 3.122987 2.366548 6.161092 7.756394 8.030500 7.891981 5.242070 5.683517 6.484447 6.790466 6.742504 7.041124 6.588988 8.341386 8.654642 6.232727 4.629572 4.276346 6.361524 7.534046 8.598334 8.063840 6.574837 6.557189 6.722827 8.395907 9.952897 9.434690 8.964439 8.578306 8.256467 8.546077 6.844727 9.686545 8.427736 9.513757 8.039907 5.766885 5.517809 4.700082 8.359830 10.169984 8.962417 7.182384 3.695915 4.110423 4.948496 6.313059 7.169981 5.823951 5.089869 3.616981 2.301745 4.007605 4.328030 5.079447 5.233653 4.374390 3.747512 2.748560 2.762101 2.458841 2.114545 3.196085 2.356897 1.392620 1.701832 0.183030 0.525797 1.062249 0.147476 0.696314 1.333359 0.775282 0.780560 -0.746154 0.194833 1.607722 2.665904 2.190008 0.930443 -0.843020 -1.089119 0.410752 1.832767 1.112513 0.893192 -1.389515 -2.912251 -2.346853 -1.928863 -1.287376 -0.640014 -0.595006 -0.905599 -0.857756 -0.993476 -2.094155 -0.897097 -0.225970 -0.543039 -1.278853 -1.534702 -1.067062 -0.970831 -2.928919 -3.893428 -3.457550 -4.511342 -3.440621 -2.705409 -3.956369 -5.355167 -6.371288 -5.959665 -4.359843 -4.287575 -3.539157 -3.914703 -4.796855 -4.334863 -6.375338 -6.104006 -3.762455 -2.155710 -2.858804 -3.394997 -5.256965 -5.584703 -4.250438 -3.070695 -2.914819 -2.412608 -3.375514 -4.131812 -4.251744 -2.838293 -2.509891 -2.794272 -3.174910 -3.106481 -1.906992 0.297765 -0.145738 -2.447573 -3.626833 -3.074626 -0.847269 0.440309 -0.126610 -0.920697 -2.386894 -2.357660 -2.530452 -2.536099 -2.120928 -1.723409 -1.304813 -0.619203 -1.053772 0.659150 0.432911 1.547298 1.852374 2.484271 3.692915 3.087427 2.027127 0.711965 1.701843 2.635853 1.873152 2.473807 3.753517 2.879997 2.021748 2.461821 1.807727 2.254637 3.138027 2.696263 2.598046 0.949764 1.615115 1.208682 1.577127 1.954762 3.309213 3.223197 4.487682 4.337012 3.636934 4.012651 4.924156 4.478573 5.126290 3.868006 3.412592 2.616511 1.683725 1.779880 0.887316 3.251308 3.258959 3.693207 4.579642 2.025605 1.373587 0.395953 2.167077 3.352636 3.749656 3.937351 2.146930 1.534473 0.315518 -0.582420 0.679477 2.270907 3.786417 4.145585 2.592201 0.959686 -0.138333 -0.155225 0.269850 2.101170 2.371362 1.543709 0.615901 0.691720 0.535156 -1.298312 -1.235626 -0.319238 0.039299 1.290613 1.115468 -0.584281 -1.824389 -2.683928 -1.036811 0.381779 -0.163710 0.707835 1.086430 0.441015 -0.236908 -0.937074 -0.211718 0.130669 0.648424 0.843433 0.921031 0.121901 -0.562395 -0.716055 -1.284790 -1.745627 -0.526415 1.289274 1.787360 -0.121403 -1.369455 -1.032193 -0.084525 1.122008 1.461478 0.670280 0.750156 0.075693 1.038409 -0.201587 -1.148242 -0.825535 -1.196594 0.182129 1.122046 -1.105998 -2.471694 -3.602171 -3.309381 -1.090212 0.407029 0.358689 -0.002723 -0.248345 -0.341742 -1.032696 -1.062201 0.053364 0.364446 1.123978 -0.079515 -1.103589 -1.709194 -1.921810 -0.440680 0.458440 0.600980 0.767037 0.376752 -0.388765 -2.307829 -0.873397 -0.976271 -0.965261 -1.321918 -0.991299 -0.885119 -2.362508 -1.772379 -2.776910 -3.315440 -1.434225 0.535718 -0.200086 -0.689730 -0.322817 -0.570265 -2.598429 -1.503672 0.218556 -0.896572 0.325755 -0.529052 -0.827537 -2.782508 -2.259893 -1.074898 -0.534484 0.619400 0.499643 0.265865 -0.180723 -0.213273 1.333356 2.243850 1.845138 1.567884 0.460771 0.279848 2.165075 2.165212 2.508321 2.385903 1.316046 0.868112 0.432453 0.756978 0.097916 -0.127588 -1.519909 -2.121494 -1.391620 -1.494240 -0.608049 -1.621813 -2.250825 -2.767744 -2.469548 -2.494305 -1.866775 -0.828298 -1.183798 -1.540892 -2.158102 -2.847626 -3.133094 -2.449376 -1.409988 -1.183857 -2.275841 -3.906627 -4.209263 -3.210069 -2.480863 -2.902867 -2.365236 -2.073480 -1.450551 -0.818511 -1.880362 -3.169799 -4.000860 -3.114203 -1.669305 -2.104605 -2.704339 -3.246484 -3.669973 -3.868993 -4.007260 -4.054349 -3.232157 -3.386852 -1.586840 -1.989568 -3.349673 -2.966549 -4.271443 -3.402029 -3.214233 -3.607670 -2.313994 -1.568720 -2.098061 -1.474286 -1.273170 -0.619678 -1.313280 -1.692288 -0.433585 -0.929567 0.708928 0.634787 -1.403175 -2.385190 -1.894482 -3.755144 -4.755618 -5.381305 -5.266600 -4.805463 -4.696817 -4.996218 -5.080144 -6.677788 -7.075458 -6.802256 -6.483517 -6.078907 -6.611141 -6.301448 -5.547559 -6.547016 -7.439745 -8.276066 -8.304236 -7.535267 -6.877223 -5.923393 -7.038206 -8.527419 -8.108059 -8.655485 -9.129775 -9.402844 -7.823847 -7.226721 -6.601305 -6.939778 -7.114871 -8.485275 -8.848600 -7.842109 -8.189436 -5.867121 -6.286974 -6.322732 -7.478438 -8.485975 -7.827080 -8.382068 -7.429277 -7.843773 -6.591254 -6.149963 -7.087774 -7.093424 -7.175539 -8.723913 -8.624429 -8.274231 -6.591324 -4.817325 -5.705806 -7.050730 -8.242931 -7.766788 -6.661355 -6.346377 -5.216314 -5.286482 -5.175733 -4.473918 -3.977545 -4.282610 -4.314023 -5.978362 -3.872352 -2.398422 -2.228557 -2.022329 -3.310758 -5.372850 -4.826288 -4.636289 -3.917681 -3.775466 -2.980567 -2.990059 -3.457780 -3.336219 -4.173196 -3.438196 -1.951507 -1.026674 -1.496058 -2.023416 -2.071437 -1.842176 -0.444120 0.177866 0.747987 0.549066 0.845107 1.849126 1.615237 1.433049 0.746162 1.385022 2.626800 2.548004 1.834577 1.552046 1.609083 2.057076 3.551060 3.107811 2.143296 1.276887 2.595536 4.339049 4.755265 4.192901 1.903949 0.556282 2.595345 3.380093 4.676489 4.664082 0.609480 0.187243 0.897331 2.911277 2.511214 1.975690 2.258244 2.010277 2.802574 3.752883 2.876526 2.760588 2.324488 2.344163 4.587650 3.909298 2.477217 2.266214 2.470849 3.664210 4.414248 4.016481 1.927710 0.608520 -0.176443 0.997315 1.257173 0.580760 2.718548 2.016154 2.153855 0.893416 1.734135 0.801980 0.487503 2.205602 2.859478 2.945753 1.981001 0.609385 0.437262 0.239003 1.942942 2.756678 2.405830 2.956229 1.754076 0.489751 0.113173 1.410734 2.579873 2.841140 3.093766 0.962067 -0.628148 0.591570 1.740400 1.916664 3.134422 4.986400 4.205173 5.064948 4.409399 3.093305 3.556868 5.259639 6.482218 6.106957 4.390114 2.887142 3.081362 4.293348 5.667002 4.736332 3.202149 3.283552 2.450061 1.354077 1.880693 2.021367 1.352066 0.830229 0.868881 0.011543 -0.667529 0.486726 0.134444 0.038904 0.296830 -0.030743 0.045188 -0.849004 0.379140 -0.424655 -0.517114 -1.300440 -2.645331 -1.983397 -2.300693 -2.959924 -3.496246 -4.013699 -3.888721 -2.820192 -3.132904 -3.950555 -4.995848 -3.839650 -2.055110 -2.412982 -2.797110 -2.173422 -3.477855 -1.926396 -1.286473 -2.003833 -1.521431 -1.127538 -0.895810 -1.847087 -2.580117 -2.439485 -2.601083 -1.373271 -0.067314 0.535502 -0.033889 -1.067900 -2.279395 -1.445293 -0.146610 1.006597 -0.381076 -0.680326 -2.228017 -2.631859 -0.837689 -1.174171 -2.252418 -2.044765 -2.780936 -2.997782 -3.032974 -3.059878 -2.914788 -2.714022 -2.083610 -4.052694 -3.820069 -3.646044 -3.416577 -1.520141 -0.470829 -1.396610 -1.520739 -2.219577 -1.198277 -0.509946 -0.460685 0.801444 1.096674 -0.763491 -0.169737 -0.141412 0.732287 0.288192 -0.559259 -1.428777 -1.273155 -1.835100 -0.150959 0.136873 -0.617467 -1.889040 -1.561868 -0.549497 1.056642 0.164396 -0.308352 0.021941 -0.132570 1.385270 2.616475 0.988659 0.299646 -0.071775 -0.017310 0.431665 1.042613 2.554765 0.943547 -1.111972 -1.826952 -1.525872 -0.399704 0.334524 1.278983 -0.570068 -1.994110 -1.750588 -1.793295 -2.004701 -2.407485 -1.463508 -2.601378 -3.031147 -3.601602 -4.407092 -4.159956 -3.537392 -2.083176 -2.431244 -0.928132 -1.820720 -1.943567 -3.199957 -3.748883 -3.616408 -4.067082 -1.806476 -2.605051 -3.427417 -4.749685 -6.162792 -5.186907 -3.334685 -1.972025 -1.344804 -1.839319 -2.081795 -3.365243 -3.865728 -4.100709 -3.675174 -2.134157 -2.606022 -2.551858 -2.300647 -2.882374 -4.033289 -4.723708 -3.803279 -2.105722 -0.380299 -0.844171 -3.122728 -4.683268 -4.068167 -2.758965 -1.007832 -0.730418 0.153682 0.572416 -0.356523 -1.022181 -0.178718 0.908435 2.316332 1.990809 0.120350 0.402686 0.605401 2.062410 1.742764 0.930797 0.598170 -0.575635 1.257052 3.026677 3.380620 3.941381 3.441538 3.123594 3.142694 4.606809 6.013905 7.205641 8.372594 6.143228 4.527427 4.975163 5.026203 7.317408 8.505752 8.646298 7.469868 7.011400 6.808590 7.022698 7.513312 8.954736 10.031256 8.401468 6.975913 7.660984 7.165590 7.711400 7.661552 7.159072 6.872143 6.425333 7.743950 7.641282 7.454915 6.481872 6.597423 7.710959 6.676048 6.827088 6.516289 7.175699 6.964775 7.435992 6.250276 5.168475 4.686225 3.976243 4.277868 3.513871 2.529316 2.206339 1.540085 2.162808 0.750261 -0.102205 -1.020457 -1.354219 -0.230581 0.003535 -0.141174 -1.283917 -3.140187 -4.879219 -4.364695 -4.766756 -2.585506 -2.358862 -2.517997 -3.197248 -4.119898 -4.029867 -3.982203 -3.189041 -2.563650 -1.762993 -0.132051 -2.191279 -4.380449 -4.565141 -4.870074 -3.040906 -1.288991 -0.830025 -1.740195 -3.390147 -4.009662 -3.669695 -3.127311 -2.321851 -1.178659 -0.240721 -0.552082 -3.293012 -5.203511 -3.730177 -3.443499 -1.919183 -0.971304 -2.631245 -3.680055 -3.599724 -3.852538 -4.844603 -3.499502 -2.082032 -2.246073 -1.536906 -2.112891 -3.894815 -4.433411 -1.861707 -1.685811 -1.899165 -0.957115 -1.507060 -3.205387 -2.490631 -1.264519 -0.816255 1.349399 0.267706 -1.286967 -2.843583 -2.021215 0.204346 0.873857 0.263727 -0.215333 -1.687806 -2.359128 -0.855128 0.727904 2.250769 1.658451 0.423166 -0.944477 -0.616346 0.964673 2.316116 3.292118 1.974161 -0.531747 -1.517063 -0.652528 0.147370 1.161077 1.904928 0.369235 0.105191 -0.101879 -0.507045 -0.390266 0.192165 1.186815 1.298858 2.084695 1.855976 0.974118 1.824277 1.514952 1.821451 2.344632 3.826461 3.680389 2.373864 0.402388 -0.454970 -0.573083 0.021828 2.138194 1.016463 -0.029807 0.043750 -0.462715 -1.218288 -1.551003 -0.354362 -0.965177 -1.751812 -1.197290 -1.166095 -1.931634 -2.745681 -4.360466 -3.997466 -0.004278 0.847070 -0.304068 -1.757217 -2.672404 -2.262566 -1.843925 0.849236 1.286038 0.678952 -0.058353 -0.959193 -1.470504 -1.057641 1.348423 2.224702 1.892090 1.398946 1.374663 1.226011 -0.219611 0.851580 2.015451 1.198182 2.671762 2.540295 0.355332 0.663684 0.300476 1.709546 2.650208 2.590283 2.126537 2.758797 2.905311 0.810321 1.654172 2.522267 3.801541 4.680184 5.653379 4.730260 3.385934 3.117473 3.710828 3.116840 3.031437 4.432890 4.507015 3.477167 2.865702 2.802202 2.478941 4.121810 6.205721 7.121168 6.935700 5.392624 4.793675 4.626505 4.876238 7.098058 8.267426 6.832227 5.756515 4.634686 3.479142 4.214409 6.765405 7.378921 6.061864 4.458955 4.124668 4.011601 6.600583 6.801999 5.645675 6.434684 6.449877 6.072627 6.205105 6.533252 9.341324 8.819218 7.643055 5.825416 5.935350 7.365434 8.113191 7.648708 5.438712 4.982869 5.144303 5.131870 6.134426 6.522280 4.996817 3.647475 3.884710 3.702570 3.127499 4.360528 4.883615 3.965369 2.169919 0.456851 1.257713 3.063098 3.558103 3.364863 3.245217 1.693525 0.452868 1.435608 0.966931 -0.261987 -0.308620 -0.359696 -1.316345 -1.242940 -1.184996 -1.689240 -2.052148 -2.955091 -3.075755 -1.719861 -1.171168 -0.640735 -1.935480 -3.657310 -4.262172 -3.711607 -1.962770 -2.196835 -2.760993 -2.838874 -3.361313 -2.726159 -2.631429 -2.185513 0.387880 0.681180 0.835671 -1.073228 -1.093121 -1.087051 -0.904066 0.064511 -0.806800 -0.565532 -0.963394 -0.881207 0.191840 -1.271531 -2.281596 -1.806263 -0.996783 -0.227691 -0.128568 -0.040166 -1.187515 -2.987456 -2.245270 -1.503967 -0.770116 -0.917887 0.480483 -0.276859 -1.501383 -1.441981 0.534730 1.773557 2.048931 2.017814 0.111310 -0.983941 -0.190754 -0.381198 0.154159 -0.133445 0.133970 -1.867854 -2.734181 -1.745902 -1.202390 -1.383110 -1.239511 -1.459403 -3.032159 -2.641467 -3.069166 -3.946970 -2.981158 -3.172780 -2.458939 -2.336176 -2.858284 -2.003329 -0.448599 0.343590 2.412415 2.669650 2.077667 2.567062 4.015808 4.111217 3.646401 1.977711 2.425064 3.166638 3.555696 3.651230 2.068482 2.606660 1.919833 3.356356 3.762555 4.171191 4.073434 3.701148 4.291906 3.856092 4.826616 5.313732 4.423526 5.267968 4.530135 2.283865 3.636588 3.030990 3.610582 4.528989 3.447004 2.812590 2.140346 1.328240 1.122300 1.844727 2.336417 2.452315 2.475213 1.792975 1.111940 1.271125 0.482976 -0.329701 -1.384366 -1.100483 0.119898 -0.711064 -2.044200 -3.521275 -4.435649 -2.425755 -0.455497 -0.109722 -2.637232 -3.635673 -3.169249 -3.269408 -0.978965 -0.967321 -0.397551 -1.575129 -1.456315 -1.509317 -2.041330 -2.322756 -2.723152 -1.788663 -1.314909 -2.256140 -2.919381 -4.155534 -4.007244 -3.523661 -2.744178 -2.089397 -2.161086 -2.137812 -2.250697 -1.947497 -2.387148 -2.810056 -2.787405 -4.258942 -3.364293 -2.593644 -3.159339 -2.770111 -4.148007 -4.466906 -4.762749 -3.580608 -2.892902 -2.763611 -3.401461 -3.614409 -1.733538 -0.586319 -1.544453 -1.310538 -1.407751 -1.033403 -0.485143 1.368836 1.509366 -0.448385 -0.148511 -1.816934 -1.217334 1.358078 0.741362 1.341275 0.525795 -0.773292 -0.509609 -0.116345 0.439433 2.183572 2.232738 1.311175 0.047390 -1.260575 -1.679913 -1.763477 -0.093673 0.113993 -0.276248 -0.273526 -0.983411 -1.863650 -3.573285 -2.289830 -1.950744 -0.519473 1.407079 -0.425506 -2.370604 -2.690509 -2.164256 -0.579609 0.338367 0.778192 -0.450044 -0.504096 -0.809178 -1.524373 -1.319156 0.003088 -0.085949 -0.179051 -0.405607 -0.151475 -0.424761 -1.015218 -1.886570 -1.367553 -0.936988 0.852416 1.133152 -0.472646 -1.532530 -2.383324 -1.352841 0.174720 1.224075 0.747179 1.225277 -0.650413 0.472545 1.377420 1.698000 1.993807 2.394970 1.900604 2.382373 2.442188 1.498854 0.964417 -0.094855 0.429711 1.472471 2.753020 3.446599 1.691920 0.700044 0.780101 -0.178002 1.800880 3.236102 4.067826 4.237091 1.702885 1.351341 0.609414 1.674862 4.461699 4.929249 5.319901 4.924193 4.341744 4.166360 6.007703 8.687560 8.112939 7.394369 7.681118 7.600557 7.852648 8.040232 7.939293 8.173402 9.041033 8.761635 7.265387 6.260538 6.901987 8.818918 8.913934 9.225399 9.093448 7.236470 7.713078 9.097151 9.726440 8.276474 7.479167 7.038752 7.024373 8.756458 9.601492 10.081190 9.834650 8.509475 8.028374 8.934278 8.159268 7.410663 7.961022 7.361716 7.159429 5.971374 5.178137 4.817538 3.170929 4.863802 6.057214 5.171633 4.738832 3.063425 3.128878 3.502924 4.908577 7.113740 6.278742 3.946856 4.200311 4.352692 4.627882 4.336268 2.997630 2.804049 1.971475 4.326654 3.521783 1.827846 0.650801 -0.270029 1.745832 2.870770 2.853103 1.519330 -0.286586 -0.927070 -0.932554 -1.318889 -0.989203 -0.337623 -0.180505 -0.304484 -0.301605 -1.461682 -3.086119 -1.740809 -0.938228 -0.919577 -0.228592 -0.010432 -1.274421 -1.958962 -2.340468 -2.095427 -0.959869 -0.228494 -0.439875 -1.691079 -2.853626 -2.882962 -3.101847 -3.415137 -2.975019 -2.719480 -1.525739 -0.924427 -1.550058 -2.509382 -1.814536 -1.010788 -0.822245 0.402121 -0.303505 -0.634168 -0.541238 -0.523196 -1.473098 -2.356010 -1.334200 -0.945754 -0.552149 -0.589245 -2.676449 -3.629359 -2.223738 -2.218143 -0.438954 1.099249 -0.215227 -1.335132 -3.097752 -1.944391 -1.794900 -0.448400 1.072266 -0.480268 -1.931880 -3.102768 -3.944588 -4.027931 -4.751342 -3.458633 -2.065063 -1.536389 -4.110450 -5.530818 -5.783344 -4.176864 -3.633875 -3.066096 -3.101954 -5.055783 -4.329136 -4.111121 -4.159968 -4.304345 -3.970091 -2.239162 -1.312548 -0.220248 -0.520025 -2.268511 -0.383632 -0.861056 -1.713037 -1.762033 -1.187690 -0.606072 0.648567 -0.188435 -1.748289 -2.274181 -2.513130 -1.066135 0.306509 1.495367 0.264324 -1.263943 -1.131715 -1.884845 -2.520349 -0.262667 0.398072 1.349586 0.040565 -0.324248 -1.526200 -1.512100 0.770961 2.797909 2.071848 2.753090 2.238870 1.785542 2.528578 2.830948 3.916814 3.812334 3.751059 5.130291 4.250292 2.631733 2.872212 3.806056 4.569497 4.963287 4.021267 2.634257 2.672071 5.124723 6.030513 4.408258 2.951035 3.668301 3.798851 4.346861 4.856654 4.377594 4.071949 2.767289 3.869293 3.787457 4.038211 2.394689 2.686855 2.804254 0.322007 0.906618 1.338105 2.793962 2.380553 1.356851 0.803999 -0.071005 0.212709 0.456962 1.048104 1.953074 1.953061 0.674930 -0.883312 -1.071641 -1.058340 -0.008921 0.568073 0.880854 -0.576080 -2.158340 -1.772967 -1.278527 -0.149538 0.480799 0.812550 0.103706 -0.422745 0.143387 0.301475 1.163106 1.175158 2.881845 2.654319 2.314500 1.557874 0.519890 1.594324 3.602343 5.386243 4.439652 2.529604 0.681259 1.285220 2.325326 3.216558 2.500400 0.679179 -0.455042 -0.963127 -1.736489 -1.722544 -1.764187 -1.092443 -1.407100 -1.127849 -2.519808 -3.029211 -1.702257 -1.658231 -2.346604 -1.979987 -0.875621 -1.230942 -1.395583 -2.692472 -4.910735 -3.860631 -2.209339 -1.270755 -1.536190 -2.499307 -4.542732 -4.862273 -3.873262 -1.439808 -1.612442 -3.346873 -3.389453 -4.468653 -3.583364 -2.132999 -1.486819 -2.472226 -2.055749 -2.723729 -4.088429 -2.498719 -2.308493 -2.663957 -2.602557 -2.694015 -3.057753 -2.926823 -1.291163 -0.896076 -0.014626 0.144491 -0.731571 -1.135306 0.356477 -1.374566 -1.195479 0.945788 0.849202 -0.383473 -1.339952 -1.475318 -1.953903 -0.939545 -0.925705 -1.686737 -2.626799 -3.361808 -3.620209 -3.682538 -3.714593 -4.406951 -4.094440 -3.567170 -2.769527 -3.621319 -2.694479 -2.854051 -2.878155 -2.773315 -2.182218 -3.209972 -2.869429 -3.019471 -2.578951 -2.499207 -2.356897 -3.362359 -3.258418 -2.930085 -1.446538 -1.015626 -2.589570 -3.489999 -4.409050 -3.143302 -1.451676 -2.166031 -2.313764 -4.476615 -3.417088 -3.305686 -3.017651 -2.308357 -3.840176 -2.672465 -2.515835 -2.140907 -1.981361 -3.022878 -3.513246 -3.150565 -2.231395 -1.271757 -1.656881 -1.835602 -1.575655 -3.438022 -2.482813 -1.392645 -0.601116 -0.035284 -0.333256 -0.856434 -0.767015 -0.257993 0.467870 2.294247 2.015341 0.893916 0.887185 1.083153 2.089853 1.722226 0.418747 1.986948 2.295604 2.451291 1.998329 1.108848 1.079435 2.029456 3.488287 3.289590 3.450697 3.119641 2.489680 2.115763 3.535783 4.552847 4.110940 4.846310 3.896046 3.308175 3.888375 5.217476 6.118157 5.436534 6.046194 5.209188 4.619961 4.484385 5.900836 4.381322 4.375513 4.356516 4.442278 4.267643 3.075274 2.235027 3.000841 4.101796 4.294650 3.038992 3.521956 3.610052 2.894120 3.564501 3.034358 2.775561 2.249576 2.379263 1.732107 1.606999 0.495989 0.711116 1.279774 1.778073 1.832682 2.495699 3.113039 3.245125 1.859211 1.504371 2.465912 3.079498 3.845323 3.286709 2.253819 1.219511 1.003100 1.841691 1.078527 2.022153 4.549750 4.675520 5.802692 4.468004 2.864613 2.971569 4.396864 6.078781 5.036640 3.819403 3.705170 2.372045 1.907468 2.198575 0.368543 0.154822 1.887243 2.183114 1.727291 1.127453 0.674157 0.516676 1.366778 2.983009 1.711176 1.776113 0.722094 0.341951 -0.663473 -1.206303 -0.998063 -0.355224 0.007181 0.876872 0.425069 -0.917102 -0.866168 -0.191140 2.021330 2.264864 1.778023 0.394054 -1.850780 -1.407422 -0.769677 0.938311 1.041427 0.036621 -0.237602 -0.793606 -0.093718 -0.968317 -1.401770 -0.687590 -0.810745 0.396605 0.589856 -0.625713 -1.123746 -2.205907 -2.615482 -1.912401 -1.911589 -1.120491 -0.835415 -2.387214 -2.598702 -2.607126 -2.077878 -2.714867 -1.887854 -0.361208 -0.019018 -0.713582 -1.058915 -2.415529 -2.169664 -0.708088 0.297954 0.718459 -0.779429 -1.770325 -1.457977 0.152442 1.194132 0.732691 0.913428 1.339763 0.772081 -0.500419 -1.082523 -1.061142 -0.973438 0.690415 2.338791 2.008201 1.056450 0.157346 -0.190687 0.031420 0.607836 2.341829 3.195603 3.106484 2.251423 0.175807 0.403052 0.468087 1.782824 2.603619 2.915135 1.964106 1.823831 2.649868 2.105883 1.728123 0.982103 0.270764 1.347314 2.308267 2.628131 2.593964 2.122993 0.964459 0.193602 0.579269 1.610632 3.520450 3.035564 2.239772 0.938602 0.402043 -0.100711 0.665613 2.144358 1.072092 0.921385 0.821516 0.017020 -0.547907 -2.677546 -2.710761 -2.134568 -0.984333 0.244108 0.059532 -2.428565 -3.305461 -2.781037 -1.823033 -1.837152 -2.600182 -2.467414 -1.638559 -0.583496 -2.022370 -3.721452 -3.549069 -3.371075 -1.969383 -1.625049 -2.148929 -3.197454 -3.532721 -2.446673 -1.698032 -1.702814 -1.153548 -2.080239 -2.526578 -2.460606 -0.809048 -0.783505 -0.693426 0.438492 -0.778271 -1.172136 -0.845066 -2.255759 -3.000687 -1.976710 -1.517963 -2.251896 -2.488398 -2.278538 -2.088737 -2.909861 -3.120755 -3.182710 -3.608405 -2.630183 -3.031908 -2.818431 -3.099931 -4.268817 -4.225396 -4.456129 -4.439586 -2.788281 -2.234887 -3.039269 -2.926578 -2.267718 -1.275743 -0.482791 -0.662217 -1.281485 -0.469220 0.804021 0.828945 -0.502601 -0.103435 0.430589 0.417511 2.138862 2.177093 0.836093 1.392485 0.674288 -0.104230 0.352467 -0.208945 1.182030 1.514363 2.239260 2.853060 1.958702 2.383332 2.372015 4.260331 4.888201 3.772265 4.406643 3.221675 2.816639 3.321122 3.844040 4.351474 4.825218 5.827373 4.876508 4.547869 3.870205 3.666579 3.636060 4.012315 5.094004 4.694610 4.417302 2.922637 2.641045 2.495694 4.544017 5.953751 6.965636 7.319211 5.261499 4.618609 5.433190 6.080368 7.021117 6.943978 6.129172 4.077420 4.109329 3.834020 2.418477 2.381050 3.631630 3.394680 3.435356 2.663611 1.754436 2.347774 2.219708 2.059643 3.594281 4.396089 3.349265 4.515619 3.550825 1.158073 1.934838 3.266650 3.950316 4.263981 4.778297 4.470052 3.578736 3.806033 3.841808 2.707162 2.782676 3.500177 2.709749 0.941082 1.183483 0.489589 1.117200 2.826264 3.341483 3.412682 2.659785 1.843444 1.009484 0.551110 2.127279 2.053304 2.552163 2.462401 0.967512 0.725241 -1.280250 -0.892351 0.782889 1.397811 1.021392 -0.702145 -0.603445 -0.203906 -0.858716 0.319222 0.070000 1.008338 1.295541 0.527794 -0.397736 -0.226849 -0.600461 0.953118 1.976271 1.578648 0.563522 0.364701 0.963877 1.338619 0.491227 1.078549 1.860904 1.020798 0.074991 -0.301196 -0.731503 -0.586010 0.673245 0.035149 -0.075838 0.194300 0.954296 0.653515 0.688091 1.896921 1.835305 2.746026 2.707041 1.577413 0.632315 0.845293 -0.227877 0.868411 1.180254 2.041902 2.052575 0.685842 0.999632 0.714912 -0.559681 -1.093017 -1.834094 -0.604268 0.525466 -0.440636 -1.197922 -3.267786 -3.315114 -2.140875 -1.249038 -0.380852 -1.902687 -1.367773 -1.839969 -1.703140 -2.031256 -0.538013 -0.651112 -0.808598 -1.278603 -1.510666 -1.117318 -1.542277 -2.084839 -2.022458 -2.292216 -2.093777 -2.595161 -3.129283 -3.307635 -3.038679 -2.654622 -2.423492 -2.468228 -2.261304 -1.295244 -2.529560 -2.069578 -4.116744 -4.644569 -2.696162 -1.807392 0.105207 -1.610240 -3.623313 -4.329115 -2.967504 -1.271400 -1.364205 -0.354129 -1.558220 -1.989768 -0.919589 -1.783587 -2.167692 -1.678806 0.082854 -0.176206 -1.081936 -1.084854 -2.505099 -1.236516 -0.852394 -1.041438 -1.317144 -2.264783 -1.694435 -1.037180 -1.743674 -2.046762 -3.451482 -2.559079 -1.193180 -1.792773 -2.696264 -3.078440 -3.219995 -3.808416 -3.299621 -1.733221 -1.875496 -3.620427 -3.695580 -2.664980 -4.311966 -4.852923 -3.198039 -1.401620 -1.749981 -1.999681 -2.155545 -3.261103 -3.797047 -3.533693 -2.491872 -3.563277 -3.045605 -2.409992 -3.447397 -3.948343 -3.700397 -5.052177 -6.052531 -5.533062 -4.421110 -4.279778 -4.844542 -4.187956 -4.213170 -4.129276 -4.081172 -4.245808 -3.284131 -2.590466 -2.428903 -1.483216 -2.194864 -1.963101 -3.143452 -2.044490 -0.464193 -0.435743 -0.986916 -1.711427 -2.563431 -3.280238 -2.741215 -2.049769 -1.628218 -0.810124 -2.251848 -3.554829 -4.115770 -3.475787 -1.456764 -1.079295 -0.887137 -1.827784 -1.671837 -0.421224 1.122281 0.799314 0.707782 -0.004031 1.101929 2.588511 2.115137 1.354644 -0.645626 -0.188874 0.559428 1.734266 1.962853 0.995560 2.506375 1.268491 1.137352 1.529977 1.550855 1.744230 1.243212 1.768141 0.405602 0.846525 0.872757 0.976989 0.412449 -1.368953 -2.084657 -0.016518 2.393778 3.276722 3.570837 2.152987 0.592006 0.692440 3.242927 5.944261 5.759046 4.032742 2.733557 0.060539 0.013908 1.711571 2.895332 3.719761 1.467788 1.315393 0.453352 0.477155 2.466271 2.945849 3.793587 3.817076 3.767295 4.314566 2.389350 3.723368 4.879663 5.689381 6.333749 4.966419 3.554956 3.722946 5.019118 5.969913 6.616977 5.998530 2.738009 1.984195 2.605772 3.338800 3.404963 2.949578 1.800903 1.642621 3.137619 1.842073 0.525810 -0.014074 0.554626 1.532426 1.874742 2.118172 0.794231 -0.793090 -0.263128 0.518829 2.013929 2.150272 0.610397 0.080972 -0.549552 -1.654321 -0.246987 -0.060747 -0.313736 -0.979136 -1.296802 -1.345034 -2.993753 -2.905034 -1.592482 0.300352 1.449625 0.329203 -0.768710 -2.852933 -1.546370 -1.581383 -0.517845 0.281854 -0.268225 -2.118142 -2.508824 -1.683062 -2.398498 -2.413985 -1.356750 -0.033386 -0.810874 -1.246498 -2.255103 -3.491771 -3.894650 -3.935115 -3.567317 -3.283471 -3.331184 -2.683373 -4.286182 -3.471728 -3.980594 -4.599176 -3.792809 -3.809280 -2.869383 -1.724496 -3.490105 -3.730749 -5.068767 -6.116218 -6.444452 -5.633310 -4.432309 -5.300460 -6.068733 -7.227820 -6.945575 -6.936331 -6.608463 -7.236724 -6.183731 -5.863733 -7.279988 -7.019043 -8.328597 -8.972087 -8.198257 -7.638908 -7.179827 -7.782798 -7.076430 -7.182210 -7.307483 -7.583171 -6.448679 -7.172069 -4.673503 -3.543033 -4.856383 -5.781747 -7.206113 -6.075127 -5.951066 -5.591783 -5.492810 -6.530167 -5.885973 -4.734648 -4.436583 -6.339553 -7.887613 -8.125601 -6.818898 -3.451544 -3.390344 -6.166712 -7.171736 -7.461183 -7.235372 -6.440518 -5.925653 -6.106777 -5.389000 -4.967744 -4.640009 -4.908509 -5.589108 -4.938627 -4.774429 -3.474874 -2.818340 -3.958010 -4.068767 -3.191029 -2.949832 -2.840447 -3.333829 -2.239595 -1.550914 -2.094393 -1.089293 -0.848026 -0.695982 -0.124310 -0.647645 0.045534 0.796068 1.330967 0.004796 0.661234 -0.676855 -0.607714 -0.140681 0.065410 0.037905 -0.326285 -0.685405 -0.853318 -1.272411 -0.704661 -0.130329 1.121537 1.301884 1.467570 1.804501 0.048721 1.659078 2.727026 2.524495 2.766682 2.654527 2.477454 1.990120 1.702434 2.196248 1.395845 0.354976 2.175961 3.903056 2.578049 1.630314 0.941446 0.203684 0.631946 1.784177 3.858778 4.505181 3.844455 3.016973 2.081475 3.007892 4.581293 5.789782 6.479658 6.338591 5.892136 3.254132 3.780212 4.451712 5.751803 6.226376 6.843299 5.185759 3.481431 3.934191 4.788311 6.188670 6.243003 5.359099 5.433866 4.878934 3.875291 4.420784 3.207978 2.772593 4.207694 3.708463 3.862634 2.432697 2.241246 1.845877 1.411827 4.215685 5.196499 5.085144 3.575263 2.861428 2.263105 1.513532 4.772676 5.689118 5.333619 3.590872 1.641962 1.362851 1.835651 4.235564 4.045167 3.189117 2.428646 1.255096 1.805440 1.858394 -0.073447 1.243330 2.159286 1.674214 0.480528 -0.254309 0.631720 0.263404 1.341137 1.043113 0.638272 0.105715 0.042664 1.352828 1.213498 0.121264 -0.374974 -1.229699 -2.004342 -1.401960 -0.069114 -0.092511 -0.662582 -0.526263 -0.510340 -1.936391 -1.828967 -0.361499 0.155704 0.244849 -0.022735 -1.521738 -2.261825 -1.168404 0.063547 -0.177090 -2.017328 -2.827136 -1.231182 -1.295720 -1.140817 -1.937879 -3.776553 -3.843570 -2.305986 1.170225 0.655520 -0.901255 -2.228048 -2.467382 -1.736579 -0.844034 -0.760545 0.239748 -0.017169 -0.447490 -0.502974 -0.646674 -0.554954 1.149221 1.263431 1.394159 2.359000 1.673567 1.222044 0.830131 0.154363 -0.635157 -0.918687 0.207299 -0.364950 -0.846181 -2.721045 -3.156131 -3.779196 -2.458822 -1.152211 -1.456179 -1.835805 -2.871900 -2.731092 -2.949284 -1.643457 0.321944 -0.469455 -1.895326 -2.470586 -4.051010 -3.950138 -2.701458 -1.346263 -2.048759 -3.402298 -3.895349 -3.555656 -3.474258 -1.273871 -1.333064 -0.509663 -0.730352 -0.685772 -0.567935 -0.933317 -0.525038 -0.024849 0.322104 -0.262553 0.163109 -0.446645 -0.808373 0.059085 0.545117 -0.181397 1.140303 -0.449562 -0.838187 -0.980451 -0.737522 0.736563 1.222085 0.425845 -0.110915 -1.387633 0.906225 3.107505 3.089255 2.816687 1.970509 1.909630 1.308107 2.254515 1.675617 1.261828 -0.277358 -1.023725 -1.172078 -1.737672 -1.217396 -1.886156 -2.563366 -2.475752 -1.797942 -1.013969 -1.754667 -2.070108 -1.423937 -0.699633 -0.977631 -0.422982 0.027717 -0.221088 0.311129 -0.292563 -0.111783 -1.026326 1.128502 3.110582 3.766734 2.424294 -0.051484 0.415040 1.415026 1.536490 1.206482 0.376980 -1.238336 -0.754669 -0.567564 -1.026290 -2.484134 -3.517673 -1.979530 -1.358948 -0.604765 -1.295032 -2.189869 -2.614665 -3.286325 -3.502931 -1.591841 -1.457442 -1.230859 -1.963887 -2.144179 -2.160772 -2.455468 -1.406820 0.621517 -0.391081 -0.567512 -1.491294 -2.484588 -1.448517 -0.162371 -0.078898 1.070111 0.259054 -0.751648 -2.216835 -2.351375 -2.251952 -2.916827 -1.419882 -0.305471 -2.214316 -2.589068 -3.948173 -3.305139 -1.331075 -1.459963 -0.575393 -0.910834 -0.763842 -1.414365 -1.467545 -1.520674 -3.006426 -2.686903 -1.290770 -0.533871 -0.872775 -3.114101 -3.379153 -2.868248 -0.752034 -0.916188 -2.295284 -1.059023 -1.509991 0.052445 0.391262 -0.041590 -1.284522 -3.184179 -0.985231 0.059055 1.319440 0.637587 -0.604295 -1.866006 -2.730879 -2.518504 -1.846756 -0.587305 0.607836 -1.674972 -2.204919 -2.352228 -1.465192 -0.941233 -0.958361 0.206826 -0.210802 -1.016994 -1.314132 -1.624275 -0.857727 -1.322628 -0.091622 1.066193 1.944303 0.965419 0.019003 -0.067125 -0.449698 1.275986 2.994543 3.613194 2.076933 0.955675 0.763474 1.720015 3.122193 4.226772 5.745248 4.240779 2.643878 3.024141 3.932970 4.167582 4.801840 5.477473 4.371362 3.861370 3.330062 2.829804 2.604040 2.261275 2.401456 3.212902 1.975227 2.419327 2.171023 1.656215 1.167015 0.336503 0.956181 1.661927 1.055767 0.869776 0.262886 0.768375 -0.749877 -1.609701 -1.072401 -0.575745 0.466901 1.125730 -0.699192 -1.766302 -2.031039 -0.644123 0.186156 0.613437 0.478911 0.097655 1.062679 -0.349334 -2.123135 -0.916079 -0.186772 1.900966 2.129913 0.529016 -0.391074 -1.613252 -0.830387 0.657804 1.266455 2.182354 0.942891 0.017097 -0.780711 -0.424963 1.159093 1.833344 1.867879 1.279734 0.397954 -0.550205 0.519276 2.030435 2.367497 3.013281 1.783659 1.337584 1.248902 2.516151 3.560666 3.793354 4.530504 3.983423 3.569873 3.447401 3.791863 4.032816 2.972020 2.493734 4.263368 4.317987 3.173443 3.567067 2.662742 2.278221 2.701698 4.517700 4.329508 3.636970 2.655355 2.476183 2.145285 1.069310 4.177532 3.054200 3.282574 1.751095 0.710458 0.780024 -0.134307 -0.461132 -1.053015 -0.642980 0.234697 0.258233 -0.288214 -1.386675 -3.016033 -3.213181 -1.960136 -1.184200 -1.156471 -1.232934 -2.190345 -2.441856 -3.634926 -3.904497 -2.580874 -0.013582 -0.328767 -0.050990 -1.431118 -2.753515 -0.782407 -0.551321 0.908099 3.072353 1.323427 0.173339 -0.758689 -1.383297 -2.223237 -2.250491 -1.152387 -1.123618 -0.730390 -0.428601 -2.138217 -2.610151 -2.297646 -1.519261 -0.698818 1.870356 2.032324 -0.047780 -0.275496 -0.499335 -1.023836 0.009886 1.250105 1.805141 0.713203 0.143452 0.564669 1.212316 1.799426 2.498512 2.149794 2.020009 2.145774 1.585167 0.875791 0.309857 1.378984 2.753158 4.048548 3.323558 3.426313 2.926822 3.042164 3.743717 2.013475 2.391121 4.072184 4.199167 4.985912 4.168439 3.215973 1.783958 3.099230 4.225065 3.496292 5.125894 3.724731 3.549240 3.570423 3.697485 4.836003 5.985206 5.918473 6.124230 4.904239 5.063519 5.916425 5.596317 7.115858 7.827383 7.115039 5.883874 5.121086 6.932078 7.781257 8.029086 7.694830 6.985947 8.574439 8.940373 7.483593 7.184662 7.212677 7.493802 7.747972 8.522426 7.317835 5.850893 6.782758 7.945868 7.563636 8.166555 8.917490 7.121528 6.347746 6.839304 6.603197 5.421036 6.411870 7.580748 6.436625 5.343353 5.451718 5.569571 5.362651 5.212097 5.887476 7.066196 5.408605 4.915025 5.376266 4.595933 4.910651 6.122176 6.729923 6.202051 6.163794 5.858347 5.322675 4.361626 3.809158 3.352576 4.990166 4.744157 4.862682 2.855720 2.925656 1.374918 1.291750 1.875703 3.759728 4.156591 3.692122 3.719338 2.806189 2.071475 1.367558 3.183953 4.529954 4.894024 4.178882 3.605833 2.471034 1.547309 2.381805 3.532532 2.813055 2.507408 2.097738 1.120467 1.108741 0.536365 2.448779 3.306933 3.831305 3.392725 3.040156 1.992037 0.754825 1.480324 1.570638 2.515112 2.922645 2.073814 2.770908 2.023571 1.545384 0.870893 0.816361 2.868980 2.620619 1.936001 1.195649 -0.007313 -0.765575 -0.260824 -0.973101 -0.230438 0.384939 1.073178 0.315435 -0.319503 -0.149775 -1.435207 0.590079 2.006776 1.444840 0.856356 -0.197541 -0.295593 -0.081810 0.636832 0.412977 0.369330 0.222888 0.325474 -0.091021 -0.410291 -0.674547 -0.998421 0.531256 1.443197 2.366969 1.864746 0.968716 -0.665091 -0.633836 0.649160 1.906143 2.323743 2.467831 0.417471 -0.077072 0.557288 -0.194650 0.836022 2.485680 2.668178 2.723978 1.559841 1.503612 1.285660 1.295217 2.457289 2.935387 2.762979 2.679022 2.386146 2.710588 2.141271 1.899002 2.524232 3.048832 4.480910 4.361789 3.941262 1.692094 0.728507 1.209163 1.175490 2.371449 1.376871 1.143790 0.404091 0.813326 0.629815 0.103889 -0.529242 0.557351 2.201665 2.162319 1.227270 0.686969 0.165026 0.475503 2.340389 3.720162 3.158725 2.524310 2.563977 3.524218 2.145277 2.785014 4.018316 4.436285 3.436215 3.020903 2.603697 1.895570 1.881672 1.945663 3.549001 4.912126 4.623601 4.799016 3.617001 2.724330 4.609973 6.201712 6.598592 6.281555 4.247162 5.366319 5.270252 5.676544 6.363422 5.547570 5.890600 5.205732 4.759779 4.661296 4.523364 3.636737 3.865958 3.280513 2.918093 3.245149 4.528287 5.285021 4.426506 4.395457 3.387227 2.573183 3.479926 3.714275 4.010051 4.511860 4.222532 3.540148 2.556852 1.659900 1.914321 2.316522 3.870204 3.727253 2.436387 1.137723 1.411499 0.466106 0.923869 1.270963 0.756415 1.020606 2.435761 2.023229 1.564074 0.837979 0.232415 0.943423 1.731151 0.977758 0.865641 0.537271 0.828253 1.193342 0.770821 1.741840 3.001487 3.499559 2.726387 1.590486 0.695565 0.839347 1.033165 2.420363 4.270224 3.376008 2.346024 1.639819 1.024470 1.547348 2.130540 