-7.301631 -7.159041 -7.018607 -6.880314 -6.744147 -6.610091 -6.478131 -6.348251 -6.220437 -6.094674 -5.970946 -5.849238 -5.729536 -5.611823 -5.496086 -5.382310 -5.270478 -5.160576 -5.052588 -4.946501 -4.842298 -4.739965 -4.639487 -4.540848 -4.444033 -4.349028 -4.255817 -4.164385 -4.074717 -3.986799 -3.900614 -3.816148 -3.733386 -3.652313 -3.572913 -3.495172 -3.419074 -3.344605 -3.271749 -3.200492 -3.130817 -3.062711 -2.996158 -2.931142 -2.867650 -2.805666 -2.745174 -2.686160 -2.628608 -2.572504 -2.517833 -2.464579 -2.412727 -2.362262 -2.313170 -2.265434 -2.219041 -2.173974 -2.130220 -2.087762 -2.046586 -2.006676 -1.968018 -1.930597 -1.894397 -1.859403 -1.825600 -1.792974 -1.761509 -1.731189 -1.702001 -1.673929 -1.646957 -1.621071 -1.596256 -1.572496 -1.549777 -1.528083 -1.507399 -1.487711 -1.469003 -1.451260 -1.434467 -1.418610 -1.403672 -1.389638 -1.376495 -1.364226 -1.352817 -1.342253 -1.332517 -1.323596 -1.315475 -1.308138 -1.301569 -1.295755 -1.290680 -1.286329 -1.282687 -1.279738 -1.277468 -1.275862 -1.274904 -1.274580 -1.274874 -1.275771 -1.277257 -1.279316 -1.281933 -1.285093 -1.288781 -1.292981 -1.297680 -1.302861 -1.308512 -1.314626 -1.321193 -1.328211 -1.335674 -1.343579 -1.351920 -1.360693 -1.369895 -1.379520 -1.389565 -1.400025 -1.410895 -1.422171 -1.433850 -1.445926 -1.458395 -1.471253 -1.484496 -1.498118 -1.512116 -1.526486 -1.541223 -1.556322 -1.571779 -1.587591 -1.603752 -1.620258 -1.637105 -1.654289 -1.671805 -1.689648 -1.707815 -1.726301 -1.745101 -1.764212 -1.783629 -1.803347 -1.823363 -1.843671 -1.864268 -1.885149 -1.906310 -1.927746 -1.949454 -1.971428 -1.993664 -2.016159 -2.038906 -2.061904 -2.085146 -2.108628 -2.132347 -2.156298 -2.180476 -2.204877 -2.229497 -2.254331 -2.279375 -2.304625 -2.330076 -2.355724 -2.381564 -2.407593 -2.433806 -2.460198 -2.486765 -2.513503 -2.540407 -2.567473 -2.594697 -2.622074 -2.649600 -2.677271 -2.705082 -2.733029 -2.761107 -2.789313 -2.817641 -2.846087 -2.874648 -2.903318 -2.932094 -2.960970 -2.989943 -3.019009 -3.048162 -3.077399 -3.106715 -3.136106 -3.165567 -3.195094 -3.224683 -3.254329 -3.284028 -3.313776 -3.343568 -3.373400 -3.403268 -3.433167 -3.463092 -3.493040 -3.523006 -3.552986 -3.582975 -3.612970 -3.642965 -3.672956 -3.702939 -3.732909 -3.762863 -3.792796 -3.822703 -3.852580 -3.882423 -3.912228 -3.941989 -3.971703 -4.001365 -4.030972 -4.060517 -4.089997 -4.119407 -4.148740 -4.177992 -4.207157 -4.236232 -4.265210 -4.294088 -4.322859 -4.351521 -4.380067 -4.408493 -4.436795 -4.464967 -4.493004 -4.520903 -4.548657 -4.576263 -4.603715 -4.631009 -4.658139 -4.685099 -4.711886 -4.738493 -4.764915 -4.791148 -4.817185 -4.843022 -4.868653 -4.894074 -4.919279 -4.944262 -4.969019 -4.993545 -5.017833 -5.041880 -5.065679 -5.089226 -5.112515 -5.135541 -5.158299 -5.180784 -5.202990 -5.224913 -5.246546 -5.267886 -5.288925 -5.309661 -5.330086 -5.350196 -5.369987 -5.389451 -5.408585 -5.427383 -5.445840 -5.463950 -5.481709 -5.499111 -5.516152 -5.532826 -5.549137 -5.565091 -5.580693 -5.595949 -5.610863 -5.625443 -5.639692 -5.653618 -5.667224 -5.680518 -5.693503 -5.706187 -5.718574 -5.730669 -5.742479 -5.754009 -5.765264 -5.776250 -5.786973 -5.797437 -5.807650 -5.817615 -5.827338 -5.836826 -5.846083 -5.855115 -5.863927 -5.872521 -5.880898 -5.889060 -5.897009 -5.904746 -5.912273 -5.919592 -5.926704 -5.933611 -5.940315 -5.946817 -5.953119 -5.959222 -5.965128 -5.970840 -5.976358 -5.981684 -5.986820 -5.991767 -5.996527 -6.001103 -6.005494 -6.009704 -6.013733 -6.017584 -6.021258 -6.024756 -6.028081 -6.031234 -6.034216 -6.037030 -6.039676 -6.042157 -6.044475 -6.046630 -6.048625 -6.050461 -6.052139 -6.053663 -6.055032 -6.056249 -6.057316 -6.058233 -6.059004 -6.059629 -6.060109 -6.060448 -6.060646 -6.060705 -6.060626 -6.060412 -6.060064 -6.059583 -6.058972 -6.058231 -6.057363 -6.056369 -6.055251 -6.054011 -6.052650 -6.051169 -6.049571 -6.047857 -6.046029 -6.044089 -6.042037 -6.039876 -6.037607 -6.035233 -6.032754 -6.030172 -6.027490 -6.024708 -6.021828 -6.018852 -6.015782 -6.012619 -6.009365 -6.006021 -6.002590 -5.999072 -5.995470 -5.991785 -5.988019 -5.984173 -5.980249 -5.976249 -5.972175 -5.968027 -5.963808 -5.959520 -5.955163 -5.950740 -5.946253 -5.941702 -5.937090 -5.932418 -5.927688 -5.922902 -5.918060 -5.913166 -5.908220 -5.903225 -5.898181 -5.893090 -5.887955 -5.882776 -5.877556 -5.872296 -5.866998 -5.861663 -5.856293 -5.850889 -5.845454 -5.839989 -5.834496 -5.828976 -5.823430 -5.817862 -5.812271 -5.806661 -5.801031 -5.795386 -5.789724 -5.784050 -5.778363 -5.772667 -5.766961 -5.761249 -5.755532 -5.749811 -5.744088 -5.738364 -5.732642 -5.726923 -5.721209 -5.715501 -5.709800 -5.704110 -5.698431 -5.692764 -5.687112 -5.681476 -5.675859 -5.670260 -5.664683 -5.659129 -5.653598 -5.648085 -5.642583 -5.637086 -5.631587 -5.626078 -5.620554 -5.615008 -5.609432 -5.603819 -5.598164 -5.592460 -5.586698 -5.580874 -5.574979 -5.569007 -5.562952 -5.556806 -5.550563 -5.544216 -5.537758 -5.531183 -5.524483 -5.517652 -5.510683 -5.503569 -5.496304 -5.488880 -5.481292 -5.473531 -5.465592 -5.457467 -5.449150 -5.440633 -5.431911 -5.422977 -5.413823 -5.404442 -5.394829 -5.384976 -5.374876 -5.364523 -5.353910 -5.343030 -5.331876 -5.320442 -5.308720 -5.296704 -5.284388 -5.271763 -5.258825 -5.245565 -5.231977 -5.218054 -5.203789 -5.189176 -5.174208 -5.158878 -5.143180 -5.127105 -5.110649 -5.093803 -5.076561 -5.058917 -5.040863 -5.022393 -5.003500 -4.984177 -4.964417 -4.944214 -4.923561 -4.902450 -4.880876 -4.858832 -4.836310 -4.813303 -4.789806 -4.765812 -4.741312 -4.716302 -4.690773 -4.664719 -4.638134 -4.611010 -4.583341 -4.555120 -4.526340 -4.496995 -4.467077 -4.436580 -4.405501 -4.373839 -4.341592 -4.308757 -4.275334 -4.241321 -4.206716 -4.171517 -4.135722 -4.099329 -4.062338 -4.024745 -3.986550 -3.947750 -3.908343 -3.868328 -3.827704 -3.786468 -3.744618 -3.702153 -3.659071 -3.615370 -3.571049 -3.526105 -3.480537 -3.434343 -3.387521 -3.340070 -3.291987 -3.243272 -3.193921 -3.143934 -3.093309 -3.042044 -2.990136 -2.937585 -2.884425 -2.830893 -2.777292 -2.723928 -2.671103 -2.619115 -2.568109 -2.518080 -2.469021 -2.420922 -2.373776 -2.327573 -2.282305 -2.237963 -2.194538 -2.152022 -2.110406 -2.069681 -2.029839 -1.990871 -1.952768 -1.915521 -1.879123 -1.843564 -1.808835 -1.774928 -1.741834 -1.709545 -1.678052 -1.647345 -1.617417 -1.588259 -1.559862 -1.532217 -1.505316 -1.479150 -1.453711 -1.428989 -1.404976 -1.381663 -1.359042 -1.337103 -1.315839 -1.295239 -1.275297 -1.256002 -1.237346 -1.219321 -1.201917 -1.185127 -1.168940 -1.153349 -1.138344 -1.123918 -1.110061 -1.096764 -1.084019 -1.071817 -1.060149 -1.049007 -1.038382 -1.028265 -1.018647 -1.009520 -1.000875 -0.992703 -0.984996 -0.977744 -0.970939 -0.964573 -0.958636 -0.953119 -0.948015 -0.943314 -0.939008 -0.935088 -0.931544 -0.928370 -0.925554 -0.923090 -0.920968 -0.919179 -0.917715 -0.916567 -0.915727 -0.915185 -0.914937 -0.914985 -0.915333 -0.915984 -0.916941 -0.918206 -0.919783 -0.921676 -0.923886 -0.926418 -0.929274 -0.932457 -0.935971 -0.939818 -0.944003 -0.948527 -0.953393 -0.958606 -0.964168 -0.970082 -0.976351 -0.982978 -0.989967 -0.997320 -1.005039 -1.013121 -1.021563 -1.030361 -1.039511 -1.049010 -1.058854 -1.069041 -1.079565 -1.090425 -1.101615 -1.113133 -1.124966 -1.137098 -1.149512 -1.162191 -1.175116 -1.188267 -1.201625 -1.215170 -1.228883 -1.242744 -1.256734 -1.270834 -1.285029 -1.299313 -1.313678 -1.328119 -1.342629 -1.357201 -1.371829 -1.386506 -1.401226 -1.415982 -1.430768 -1.445577 -1.460402 -1.475238 -1.490077 -1.504913 -1.519739 -1.534549 -1.549337 -1.564096 -1.578819 -1.593499 -1.608131 -1.622708 -1.637223 -1.651669 -1.666041 -1.680331 -1.694534 -1.708642 -1.722649 -1.736548 -1.750333 -1.763998 -1.777536 -1.790939 -1.804203 -1.817320 -1.830284 -1.843088 -1.855725 -1.868190 -1.880476 -1.892575 -1.904482 -1.916195 -1.927710 -1.939026 -1.950142 -1.961055 -1.971764 -1.982267 -1.992561 -2.002646 -2.012519 -2.022178 -2.031622 -2.040849 -2.049856 -2.058643 -2.067206 -2.075546 -2.083658 -2.091542 -2.099196 -2.106618 -2.113807 -2.120759 -2.127474 -2.133950 -2.140184 -2.146175 -2.151921 -2.157421 -2.162673 -2.167677 -2.172430 -2.176932 -2.181182 -2.185178 -2.188918 -2.192403 -2.195631 -2.198600 -2.201309 -2.203757 -2.205943 -2.207866 -2.209524 -2.210916 -2.212041 -2.212898 -2.213486 -2.213803 -2.213848 -2.213620 -2.213117 -2.212340 -2.211285 -2.209953 -2.208341 -2.206450 -2.204276 -2.201820 -2.199080 -2.196055 -2.192743 -2.189144 -2.185256 -2.181082 -2.176624 -2.171886 -2.166871 -2.161582 -2.156024 -2.150198 -2.144109 -2.137761 -2.131155 -2.124296 -2.117187 -2.109831 -2.102231 -2.094392 -2.086316 -2.078007 -2.069467 -2.060701 -2.051712 -2.042503 -2.033077 -2.023437 -2.013588 -2.003532 -1.993273 -1.982814 -1.972159 -1.961310 -1.950271 -1.939046 -1.927637 -1.916049 -1.904284 -1.892346 -1.880238 -1.867964 -1.855526 -1.842929 -1.830175 -1.817268 -1.804212 -1.791009 -1.777663 -1.764179 -1.750565 -1.736826 -1.722968 -1.708997 -1.694920 -1.680743 -1.666472 -1.652112 -1.637671 -1.623155 -1.608569 -1.593920 -1.579214 -1.564458 -1.549656 -1.534817 -1.519944 -1.505046 -1.490128 -1.475196 -1.460257 -1.445316 -1.430380 -1.415455 -1.400548 -1.385663 -1.370808 -1.355989 -1.341212 -1.326482 -1.311809 -1.297200 -1.282664 -1.268209 -1.253843 -1.239575 -1.225413 -1.211365 -1.197440 -1.183646 -1.169991 -1.156484 -1.143134 -1.129948 -1.116938 -1.104117 -1.091498 -1.079096 -1.066922 -1.054989 -1.043312 -1.031903 -1.020776 -1.009943 -0.999418 -0.989214 -0.979344 -0.969826 -0.960676 -0.951912 -0.943553 -0.935614 -0.928115 -0.921071 -0.914503 -0.908432 -0.902883 -0.897882 -0.893454 -0.889624 -0.886417 -0.883857 -0.881971 -0.880783 -0.880318 -0.880602 -0.881659 -0.883514 -0.886193 -0.889721 -0.894122 -0.899423 -0.905647 -0.912820 -0.920967 -0.930114 -0.940285 -0.951505 -0.963800 -0.977194 -0.991713 -1.007381 -1.024224 -1.042267 -1.061535 -1.082053 -1.103847 -1.126940 -1.151359 -1.177128 -1.204272 -1.232817 -1.262788 -1.294209 -1.327106 -1.361504 -1.397428 -1.434903 -1.473954 -1.514606 -1.556885 -1.600815 -1.646422 -1.693730 -1.742764 -1.793551 -1.846114 -1.900479 -1.956671 -2.014715 -2.074636 -2.136460 -2.200210 -2.265914 -2.333594 -2.403277 -2.474988 -2.548752 -2.624593 -2.702538 -2.782610 -2.864835 -2.949239 -3.035845 -3.124681 -3.215769 -3.309136 -3.404806 -3.502806 -3.603159 -3.705890 -3.811026 -3.918591 -4.028610 -4.141107 -4.256110 -4.373641 -4.493727 -4.616393 -4.741663 -4.869562 -5.000117 -5.133351 -5.269290 -5.407959 -5.549384 -5.693588 -5.840598 -5.990438 -6.143134 -6.298710 -6.457192 -6.618604 -6.782972 -6.950321 -7.120676 -7.294062 -7.470504 -7.649989 -7.832267 -8.017000 -8.203850 -8.392478 -8.582546 -8.773716 -8.965650 -9.158008 -9.350452 -9.542645 -9.734248 -9.924922 -10.114328 -10.302130 -10.487988 -10.671563 -10.852519 -11.030515 -11.205214 -11.376277 -11.543367 -11.706144 -11.864270 -12.017407 -12.165216 -12.307360 -12.443500 -12.573296 -12.696412 -12.812509 -12.921247 -13.022290 -13.115298 -13.199933 -13.275856 -13.342734 -13.400407 -13.448988 -13.488610 -13.519406 -13.541509 -13.555054 -13.560174 -13.557002 -13.545672 -13.526317 -13.499071 -13.464067 -13.421439 -13.371320 -13.313844 -13.249144 -13.177354 -13.098607 -13.013036 -12.920776 -12.821960 -12.716720 -12.605192 -12.487507 -12.363800 -12.234204 -12.098853 -11.957879 -11.811418 -11.659601 -11.502563 -11.340437 -11.173357 -11.001456 -10.824867 -10.643724 -10.458161 -10.268311 -10.074307 -9.876283 -9.674373 -9.468710 -9.259427 -9.046658 -8.830537 -8.611196 -8.388770 -8.163392 -7.935195 -7.704313 -7.470880 -7.235028 -6.996892 -6.756605 -6.514300 -6.270110 -6.024171 -5.776614 -5.527573 -5.277182 -5.025574 -4.772883 -4.519243 -4.264786 -4.009647 -3.753958 -3.497853 -3.241466 -2.984931 -2.728380 -2.471947 -2.215766 -1.959971 -1.704693 -1.450068 -1.196229 -0.943309 -0.691442 -0.440760 -0.191398 0.056510 0.302832 0.547434 0.790183 1.030944 1.269585 1.505971 1.739970 1.971449 2.200272 2.426308 2.649422 2.869481 3.086351 3.299900 3.509993 3.716497 3.919279 4.117662 4.309209 4.493520 4.670705 4.840871 5.004125 5.160576 5.310331 5.453497 5.590183 5.720497 5.844546 5.962437 6.074279 6.180179 6.280245 6.374585 6.463306 6.546516 6.624324 6.696836 6.764160 6.826404 6.883676 6.936084 6.983735 7.026737 7.065197 7.099224 7.128926 7.154409 7.175782 7.193152 7.206627 7.216316 7.222325 7.224762 7.223735 7.219352 7.211720 7.200948 7.187143 7.170412 7.150864 7.128606 7.103746 7.076391 7.046650 7.014630 6.980438 6.944184 6.905973 6.865915 6.824116 6.780664 6.735619 6.689035 6.640968 6.591473 6.540606 6.488422 6.434977 6.380326 6.324524 6.267627 6.209691 6.150770 6.090921 6.030199 5.968658 5.906356 5.843346 5.779685 5.715428 5.650630 5.585347 5.519635 5.453548 5.387143 5.320474 5.253597 5.186568 5.119442 5.052274 4.985121 4.918036 4.851077 4.784296 4.717727 4.651374 4.585242 4.519335 4.453657 4.388213 4.323006 4.258042 4.193324 4.128856 4.064643 4.000689 3.936998 3.873575 3.810423 3.747548 3.684953 3.622642 3.560620 3.498891 3.437459 3.376329 3.315505 3.254990 3.194790 3.134908 3.075349 3.016117 2.957216 2.898639 2.840369 2.782390 2.724685 2.667239 2.610033 2.553052 2.496278 2.439704 2.383327 2.327147 2.271164 2.215378 2.159786 2.104390 2.049189 1.994182 1.939368 1.884748 1.830321 1.776085 1.722041 1.668189 1.614527 1.561056 1.507774 1.454681 1.401777 1.349062 1.296534 1.244193 1.192039 1.140071 1.088289 1.036693 0.985281 0.934053 0.883009 0.832149 0.781471 0.730975 0.680661 0.630529 0.580577 0.530806 0.481214 0.431802 0.382568 0.333513 0.284636 0.235936 0.187413 0.139066 0.090895 0.042899 -0.004922 -0.052568 -0.100041 -0.147340 -0.194467 -0.241421 -0.288203 -0.334813 -0.381236 -0.427453 -0.473440 -0.519178 -0.564645 -0.609818 -0.654678 -0.699203 -0.743376 -0.787178 -0.830592 -0.873601 -0.916186 -0.958330 -1.000014 -1.041223 -1.081936 -1.122138 -1.161809 -1.200933 -1.239491 -1.277467 -1.314841 -1.351597 -1.387716 -1.423182 -1.457976 -1.492080 -1.525476 -1.558148 -1.590077 -1.621246 -1.651636 -1.681231 -1.710012 -1.737961 -1.765061 -1.791294 -1.816643 -1.841106 -1.864703 -1.887459 -1.909395 -1.930535 -1.950901 -1.970518 -1.989407 -2.007592 -2.025095 -2.041941 -2.058151 -2.073741 -2.088716 -2.103076 -2.116823 -2.129958 -2.142482 -2.154398 -2.165706 -2.176409 -2.186507 -2.196001 -2.204895 -2.213188 -2.220882 -2.227980 -2.234481 -2.240389 -2.245703 -2.250426 -2.254559 -2.258104 -2.261062 -2.263434 -2.265222 -2.266427 -2.267051 -2.267103 -2.266590 -2.265519 -2.263899 -2.261736 -2.259038 -2.255813 -2.252069 -2.247812 -2.243051 -2.237793 -2.232045 -2.225816 -2.219113 -2.211943 -2.204314 -2.196327 -2.188243 -2.180104 -2.171911 -2.163665 -2.155365 -2.147014 -2.138610 -2.130156 -2.121651 -2.113095 -2.104491 -2.095837 -2.087136 -2.078386 -2.069589 -2.060746 -2.051857 -2.042922 -2.033942 -2.024918 -2.015851 -2.006740 -1.997587 -1.988391 -1.979155 -1.969877 -1.960559 -1.951202 -1.941805 -1.932370 -1.922897 -1.913386 -1.903839 -1.894255 -1.884636 -1.874981 -1.865292 -1.855569 -1.845813 -1.836024 -1.826203 -1.816350 -1.806466 -1.796551 -1.786607 -1.776633 -1.766630 -1.756600 -1.746541 -1.736456 -1.726344 -1.716206 -1.706043 -1.695855 -1.685642 -1.675407 -1.665148 -1.654867 -1.644563 -1.634239 -1.623894 -1.613528 -1.603143 -1.592739 -1.582317 -1.571877 -1.561419 -1.550945 -1.540454 -1.529948 -1.519427 -1.508892 -1.498342 -1.487780 -1.477205 -1.466617 -1.456018 -1.445408 -1.434788 -1.424158 -1.413518 -1.402870 -1.392214 -1.381550 -1.370880 -1.360203 -1.349520 -1.338832 -1.328139 -1.317442 -1.306742 -1.296039 -1.285333 -1.274626 -1.263917 -1.253208 -1.242498 -1.231790 -1.221082 -1.210376 -1.199672 -1.188971 -1.178273 -1.167580 -1.156891 -1.146206 -1.135528 -1.124856 -1.114190 -1.103524 -1.092845 -1.082138 -1.071391 -1.060590 -1.049721 -1.038771 -1.027726 -1.016573 -1.005298 -0.993888 -0.982329 -0.970617 -0.958757 -0.946755 -0.934615 -0.922344 -0.909946 -0.897428 -0.884794 -0.872050 -0.859202 -0.846254 -0.833213 -0.820083 -0.806862 -0.793539 -0.780107 -0.766556 -0.752875 -0.739056 -0.725089 -0.710965 -0.696674 -0.682207 -0.667554 -0.652706 -0.637654 -0.622388 -0.606898 -0.591176 -0.575212 -0.558996 -0.542518 -0.525771 -0.508743 -0.491426 -0.473810 -0.455885 -0.437643 -0.419074 -0.400168 -0.380917 -0.361310 -0.341338 -0.320991 -0.300261 -0.279138 -0.257613 -0.235676 -0.213317 -0.190528 -0.167298 -0.143620 -0.119482 -0.094875 -0.069792 -0.044220 -0.018153 0.008421 0.035510 0.063124 0.091272 0.119964 0.149209 0.179016 0.209395 0.240356 0.271907 0.304058 0.336819 0.370199 0.404207 0.438853 0.474146 0.510095 0.546711 0.584002 0.621978 0.660648 0.700021 0.740108 0.780917 0.822458 0.864705 0.907541 0.950834 0.994452 1.038263 1.082135 1.125937 1.169540 1.212811 1.255622 1.297840 1.339336 1.379979 1.419638 1.458183 1.495483 1.531408 1.565826 1.598607 1.629622 1.658738 1.685856 1.711092 1.734658 1.756768 1.777633 1.797467 1.816481 1.834890 1.852905 1.870739 1.888533 1.906295 1.924017 1.941689 1.959304 1.976853 1.994328 2.011721 2.029024 2.046228 2.063328 2.080317 2.097187 2.113931 2.130542 2.147014 2.163339 2.179510 2.195520 2.211362 2.227029 2.242514 2.257810 2.272909 2.287806 2.302493 2.316962 2.331207 2.345221 2.358996 2.372526 2.385804 2.398822 2.411574 2.424052 2.436250 2.448160 2.459775 2.471089 2.482094 2.492783 2.503149 2.513186 2.522886 2.532244 2.541255 2.549914 2.558216 2.566156 2.573729 2.580929 2.587753 2.594193 2.600247 2.605908 2.611171 2.616032 2.620486 2.624526 2.628149 2.631350 2.634122 2.636461 2.638363 2.639822 2.640832 2.641390 2.641489 2.641125 2.640293 2.638988 2.637204 2.634937 2.632181 2.628932 2.625184 2.620933 2.616173 2.610900 2.605107 2.598791 2.591946 2.584567 2.576649 2.568186 2.559175 2.549610 2.539485 2.528797 2.517538 2.505706 2.493294 2.480298 2.466712 2.452532 2.437751 2.422367 2.406372 2.389763 2.372549 2.354768 2.336461 2.317670 2.298435 2.278799 2.258801 2.238483 2.217887 2.197054 2.176012 2.154768 2.133327 2.111695 2.089876 2.067875 2.045698 2.023349 2.000833 1.978155 1.955321 1.932334 1.909201 1.885926 1.862514 1.838971 1.815300 1.791507 1.767598 1.743576 1.719448 1.695218 1.670890 1.646471 1.621964 1.597376 1.572710 1.547972 1.523167 1.498300 1.473376 1.448400 1.423375 1.398307 1.373200 1.348059 1.322886 1.297689 1.272469 1.247232 1.221983 1.196725 1.171464 1.146202 1.120946 1.095698 1.070465 1.045249 1.020056 0.994889 0.969754 0.944654 0.919594 0.894578 0.869611 0.844697 0.819841 0.795047 0.770319 0.745661 0.721079 0.696576 0.672157 0.647826 0.623588 0.599447 0.575407 0.551473 0.527649 0.503940 0.480350 0.456883 0.433544 0.410337 0.387267 0.364338 0.341554 0.318919 0.296439 0.274117 0.251958 0.229967 0.208147 0.186503 0.165040 0.143761 0.122672 0.101776 0.081079 0.060583 0.040295 0.020218 0.000356 -0.019286 -0.038703 -0.057892 -0.076847 -0.095565 -0.114041 -0.132270 -0.150249 -0.167973 -0.185437 -0.202638 -0.219570 -0.236229 -0.252612 -0.268713 -0.284528 -0.300053 -0.315283 -0.330214 -0.344842 -0.359162 -0.373170 -0.386861 -0.400231 -0.413276 -0.425992 -0.438373 -0.450415 -0.462115 -0.473467 -0.484467 -0.495112 -0.505396 -0.515315 -0.524864 -0.534041 -0.542839 -0.551254 -0.559283 -0.566921 -0.574162 -0.581004 -0.587446 -0.593488 -0.599132 -0.604381 -0.609235 -0.613697 -0.617768 -0.621450 -0.624744 -0.627652 -0.630176 -0.632317 -0.634078 -0.635459 -0.636462 -0.637090 -0.637343 -0.637223 -0.636733 -0.635873 -0.634646 -0.633052 -0.631095 -0.628774 -0.626093 -0.623052 -0.619654 -0.615899 -0.611790 -0.607329 -0.602516 -0.597354 -0.591844 -0.585988 -0.579789 -0.573247 -0.566366 -0.559147 -0.551592 -0.543703 -0.535484 -0.526934 -0.518058 -0.508856 -0.499331 -0.489487 -0.479327 -0.468854 -0.458073 -0.446987 -0.435600 -0.423915 -0.411936 -0.399666 -0.387110 -0.374271 -0.361153 -0.347758 -0.334092 -0.320157 -0.305957 -0.291497 -0.276778 -0.261806 -0.246584 -0.231115 -0.215404 -0.199453 -0.183266 -0.166848 -0.150201 -0.133330 -0.116238 -0.098940 -0.081469 -0.063855 -0.046134 -0.028336 -0.010496 0.007354 0.025182 0.042955 0.060639 0.078202 0.095611 0.112834 0.129837 0.146587 0.163053 0.179201 0.194998 0.210412 0.225409 0.239957 0.254024 0.267576 0.280580 0.293004 0.304815 0.315991 0.326548 0.336506 0.345888 0.354717 0.363013 0.370800 0.378099 0.384933 0.391323 0.397292 0.402861 0.408053 0.412889 0.417392 0.421584 0.425487 0.429123 0.432514 0.435682 0.438649 0.441437 0.444069 0.446565 0.448940 0.451194 0.453327 0.455336 0.457223 0.458986 0.460624 0.462138 0.463526 0.464787 0.465922 0.466930 0.467809 0.468560 0.469187 0.469691 0.470077 0.470347 0.470505 0.470553 0.470494 0.470333 0.470071 0.469712 0.469260 0.468716 0.468085 0.467370 0.466573 0.465698 0.464747 0.463725 0.462633 0.461476 0.460256 0.458977 0.457641 0.456251 0.454812 0.453325 0.451795 0.450223 0.448614 0.446970 0.445294 0.443590 0.441861 0.440110 0.438339 0.436553 0.434754 0.432945 0.431129 0.429310 0.427491 0.425675 0.423864 0.422062 0.420273 0.418498 0.416742 0.415008 0.413298 0.411616 0.409964 0.408347 0.406766 0.405226 0.403726 0.402268 0.400852 0.399478 0.398148 0.396862 0.395621 0.394425 0.393275 0.392171 0.391114 0.390106 0.389145 0.388233 0.387371 0.386560 0.385799 0.385090 0.384432 0.383828 0.383276 0.382779 0.382337 0.381949 0.381617 0.381342 0.381124 0.380964 0.380862 0.380819 0.380835 0.380912 0.381049 0.381248 0.381510 0.381835 0.382224 0.382680 0.383203 0.383794 0.384454 0.385186 0.385988 0.386864 0.387815 0.388840 0.389942 0.391122 0.392380 0.393719 0.395139 0.396641 0.398227 0.399897 0.401653 0.403494 0.405421 0.407436 0.409538 0.411727 0.414003 0.416367 0.418816 0.421352 0.423974 0.426681 0.429474 0.432352 0.435314 0.438360 0.441491 0.444706 0.448004 0.451385 0.454849 0.458395 0.462024 0.465735 0.469527 0.473401 0.477356 0.481391 0.485507 0.489703 0.493979 0.498335 0.502769 0.507283 0.511875 0.516546 0.521295 0.526121 0.531025 0.536006 0.541064 0.546198 0.551409 0.556695 0.562057 0.567495 0.573007 0.578594 0.584256 0.589991 0.595801 0.601684 0.607640 0.613669 0.619771 0.625945 0.632191 0.638509 0.644898 0.651358 0.657889 0.664490 0.671162 0.677903 0.684714 0.691595 0.698544 0.705562 0.712649 0.719803 0.727025 0.734315 0.741672 0.749096 0.756586 0.764143 0.771765 0.779453 0.787207 0.795026 0.802909 0.810857 0.818869 0.826945 0.835084 0.843287 0.851552 0.859880 0.868271 0.876724 0.885238 0.893814 0.902451 0.911148 0.919907 0.928725 0.937604 0.946542 0.955539 0.964596 0.973711 0.982884 0.992116 1.001405 1.010752 1.020156 1.029618 1.039135 1.048709 1.058339 1.068025 1.077766 1.087562 1.097413 1.107319 1.117279 1.127292 1.137360 1.147480 1.157653 1.167880 1.178158 1.188489 1.198871 1.209305 1.219791 1.230327 1.240914 1.251551 1.262239 1.272977 1.283764 1.294601 1.305487 1.316421 1.327405 1.338436 1.349516 1.360643 1.371818 1.383040 1.394309 1.405625 1.416987 1.428395 1.439849 1.451349 1.462894 1.474484 1.486119 1.497798 1.509522 1.521290 1.533101 1.544956 1.556854 1.568795 1.580778 1.592804 1.604872 1.616982 1.629133 1.641326 1.653559 1.665834 1.678148 1.690503 1.702898 1.715333 1.727807 1.740320 1.752871 1.765462 1.778090 1.790757 1.803462 1.816204 1.828983 1.841799 1.854652 1.867541 1.880466 1.893428 1.906424 1.919456 1.932524 1.945626 1.958762 1.971933 1.985137 1.998376 2.011647 2.024952 2.038290 2.051661 2.065063 2.078498 2.091965 2.105463 2.118993 2.132553 2.146144 2.159766 2.173418 2.187099 2.200811 2.214551 2.228321 2.242120 2.255947 2.269803 2.283686 2.297598 2.311537 2.325504 2.339497 2.353518 2.367565 2.381639 2.395738 2.409864 2.424015 2.438191 2.452393 2.466619 2.480870 2.495146 2.509445 2.523768 2.538115 2.552486 2.566879 2.581296 2.595735 2.610196 2.624680 2.639185 2.653712 2.668261 2.682830 2.697421 2.712032 2.726663 2.741315 2.755987 2.770678 2.785388 2.800118 2.814867 2.829634 2.844419 2.859223 2.874045 2.888884 2.903741 2.918615 2.933506 2.948413 2.963337 2.978277 2.993233 3.008205 3.023192 3.038194 3.053211 3.068243 3.083289 3.098349 3.113423 3.128511 3.143613 3.158727 3.173855 3.188995 3.204147 3.219312 3.234489 3.249677 3.264877 3.280088 3.295309 3.310542 3.325785 3.341038 3.356301 3.371573 3.386854 3.402145 3.417443 3.432750 3.448065 3.463389 3.478721 3.494061 3.509410 3.524767 3.540134 3.555509 3.570892 3.586285 3.601687 3.617098 3.632517 3.647946 3.663384 3.678832 3.694289 3.709755 3.725231 3.740716 3.756211 3.771715 3.787230 3.802754 3.818288 3.833832 3.849386 3.864950 3.880525 3.896109 3.911704 3.927309 3.942925 3.958551 3.974188 3.989835 4.005493 4.021162 4.036842 4.052533 4.068234 4.083947 4.099670 4.115405 4.131151 4.146909 4.162678 4.178458 4.194250 4.210053 4.225868 4.241695 4.257533 4.273383 4.289246 4.305120 4.321006 4.336903 4.352811 4.368731 4.384661 4.400601 4.416551 4.432512 4.448481 4.464460 4.480448 4.496445 4.512450 4.528463 4.544484 4.560513 4.576549 4.592593 4.608643 4.624699 4.640762 4.656831 4.672905 4.688985 4.705071 4.721161 4.737255 4.753355 4.769458 4.785565 4.801675 4.817789 4.833906 4.850025 4.866147 4.882272 4.898398 4.914525 4.930654 4.946785 4.962916 4.979047 4.995179 5.011311 5.027443 5.043574 5.059704 5.075833 5.091961 5.108087 5.124212 5.140334 5.156454 5.172571 5.188685 5.204795 5.220903 5.237006 5.253106 5.269201 5.285291 5.301377 5.317457 5.333532 5.349601 5.365665 5.381722 5.397774 5.413819 5.429859 5.445891 5.461917 5.477937 5.493950 5.509956 5.525955 5.541946 5.557931 5.573908 5.589878 5.605839 5.621792 5.637734 5.653665 5.669584 5.685490 5.701381 5.717257 5.733116 5.748958 5.764782 5.780585 5.796369 5.812131 5.827870 5.843585 5.859275 5.874940 5.890578 5.906188 5.921770 5.937321 5.952841 5.968329 5.983784 5.999205 6.014591 6.029941 6.045253 6.060527 6.075762 6.090957 6.106110 6.121220 6.136287 6.151310 6.166287 6.181217 6.196100 6.210934 6.225718 6.240452 6.255133 6.269762 6.284337 6.298857 6.313321 6.327728 6.342077 6.356366 6.370596 6.384765 6.398871 6.412914 6.426892 6.440806 6.454653 6.468433 6.482145 6.495789 6.509364 6.522869 6.536303 6.549666 6.562957 6.576175 6.589320 6.602391 6.615386 6.628306 6.641149 6.653915 6.666604 6.679216 6.691751 6.704209 6.716592 6.728899 6.741130 6.753286 6.765368 6.777375 6.789308 6.801167 6.812953 6.824665 6.836305 6.847872 6.859366 6.870789 6.882141 6.893421 6.904630 6.915769 6.926838 6.937836 6.948765 6.959625 6.970415 6.981137 6.991791 7.002377 7.012895 7.023346 7.033729 7.044046 7.054297 7.064482 7.074601 7.084654 7.094642 7.104565 7.114423 7.124216 7.133943 7.143604 7.153200 7.162729 7.172192 7.181588 7.190918 7.200181 7.209378 7.218507 7.227569 7.236563 7.245490 7.254350 7.263141 7.271864 7.280519 7.289106 7.297624 7.306073 7.314453 7.322765 7.331007 7.339179 7.347282 7.355316 7.363279 7.371173 7.378996 7.386748 7.394431 7.402042 7.409583 7.417052 7.424450 7.431777 7.439032 7.446216 7.453328 7.460367 7.467335 7.474229 7.481052 7.487802 7.494478 7.501082 7.507613 7.514070 7.520453 7.526763 7.532999 7.539161 7.545249 7.551263 7.557205 7.563073 7.568869 7.574594 7.580247 7.585830 7.591342 7.596784 7.602156 7.607460 7.612695 7.617862 7.622961 7.627993 7.632959 7.637858 7.642691 7.647459 7.652162 7.656801 7.661376 7.665887 7.670335 7.674721 7.679044 7.683307 7.687508 7.691649 7.695731 7.699753 7.703716 7.707621 7.711468 7.715258 7.718992 7.722669 7.726291 7.729858 7.733370 7.736828 7.740232 7.743584 7.746883 7.750130 7.753326 7.756471 7.759565 7.762610 7.765606 7.768552 7.771451 7.774302 7.777105 7.779862 7.782573 7.785238 7.787858 7.790434 7.792965 7.795454 7.797899 7.800301 7.802662 7.804981 7.807260 7.809498 7.811696 7.813855 7.815976 7.818058 7.820102 7.822109 7.824080 7.826014 7.827913 7.829777 7.831606 7.833401 7.835163 7.836891 7.838588 7.840252 7.841885 7.843487 7.845059 7.846601 7.848114 7.849598 7.851054 7.852482 7.853882 7.855257 7.856605 7.857927 7.859225 7.860498 7.861747 7.862972 7.864174 7.865355 7.866513 7.867649 7.868765 7.869861 7.870937 7.871993 7.873031 7.874050 7.875052 7.876037 7.877005 7.877957 7.878893 7.879815 7.880721 7.881614 7.882493 7.883360 7.884214 7.885056 7.885886 7.886706 7.887515 7.888315 7.889106 7.889887 7.890661 7.891426 7.892185 7.892937 7.893683 7.894423 7.895158 7.895889 7.896616 7.897339 7.898059 7.898777 7.899493 7.900208 7.900922 7.901635 7.902349 7.903063 7.903779 7.904496 7.905216 7.905936 7.906659 7.907382 7.908105 7.908829 7.909553 7.910275 7.910994 7.911709 7.912420 7.913124 7.913822 7.914511 7.915191 7.915863 7.916528 7.917186 7.917837 7.918483 7.919125 7.919761 7.920395 7.921025 7.921652 7.922278 7.922903 7.923532 7.924166 7.924810 7.925465 7.926136 7.926824 7.927530 7.928256 7.929005 7.929778 7.930577 7.931404 7.932260 7.933148 7.934069 7.935025 7.936017 7.937048 7.938120 7.939234 7.940392 7.941596 7.942848 7.944149 7.945501 7.946907 7.948368 7.949885 7.951461 7.953098 7.954796 7.956559 7.958388 7.960284 7.962250 7.964287 7.966397 7.968582 7.970844 7.973185 7.975605 7.978109 7.980696 7.983369 7.986129 7.988979 7.991921 7.994955 7.998085 8.001311 8.004635 8.008060 8.011588 8.015219 8.018956 8.022801 8.026755 8.030820 8.034998 8.039292 8.043702 8.048230 8.052879 8.057650 8.062545 8.067566 8.072714 8.077992 8.083401 8.088943 8.094620 8.100434 8.106386 8.112478 8.118713 8.125091 8.131615 8.138287 8.145108 8.152081 8.159206 8.166486 8.173923 8.181518 8.189274 8.197192 8.205273 8.213521 8.221936 8.230520 8.239275 8.248204 8.257307 8.266587 8.276045 8.285683 8.295504 8.305509 8.315699 8.326076 8.336643 8.347402 8.358353 8.369499 8.380841 8.392375 8.404061 8.415850 8.427692 8.439539 8.451342 8.463050 8.474615 8.485988 8.497120 8.507961 8.518462 8.528574 8.538248 8.547434 8.556084 8.564147 8.571576 8.578320 8.584331 8.589559 8.593955 8.597466 8.600017 8.601529 8.601925 8.601124 8.599049 8.595620 8.590758 8.584386 8.576423 8.566791 8.555411 8.542204 8.527092 8.509996 8.490837 8.469536 8.446014 8.420192 8.391992 8.361335 8.328141 8.292333 8.253831 8.212556 8.168430 8.121373 8.071179 8.017306 7.959165 7.896163 7.827710 7.753213 7.672080 7.583721 7.487544 7.382957 7.269369 7.146187 7.012821 6.868680 6.713170 6.545808 6.366825 6.176752 5.976123 5.765469 5.545321 5.316213 5.078676 4.833241 4.580443 4.320811 4.054879 3.783179 3.506207 3.224341 2.937933 2.647333 2.352894 2.054967 1.753902 1.450052 1.143768 0.835402 0.525304 0.213827 -0.098678 -0.411860 -0.725368 -1.038849 -1.351953 -1.664328 -1.975623 -2.285485 -2.593564 -2.899509 -3.202967 -3.503588 -3.801019 -4.094911 -4.384910 -4.670665 -4.951826 -5.228041 -5.498958 -5.764226 -6.023493 -6.276408 -6.522619 -6.761776 -6.993526 -7.217519 -7.433402 -7.640825 -7.839435 -8.028875 -8.208661 -8.378202 -8.536905 -8.684174 -8.819417 -8.942038 -9.051444 -9.147040 -9.228233 -9.294427 -9.345030 -9.379449 -9.397493 -9.399758 -9.386933 -9.359707 -9.318770 -9.264810 -9.198517 -9.120579 -9.031686 -8.932526 -8.823790 -8.706165 -8.580342 -8.447009 -8.306854 -8.160569 -8.008840 -7.852358 -7.691812 -7.527879 -7.360961 -7.191191 -7.018684 -6.843559 -6.665934 -6.485927 -6.303656 -6.119237 -5.932791 -5.744433 -5.554282 -5.362456 -5.169073 -4.974251 -4.778107 -4.580759 -4.382326 -4.182925 -3.982673 -3.781690 -3.580092 -3.377997 -3.175524 -2.972790 -2.769914 -2.567012 -2.364201 -2.161562 -1.959148 -1.757009 -1.555199 -1.353767 -1.152767 -0.952250 -0.752267 -0.552870 -0.354110 -0.156041 0.041288 0.237824 0.433515 0.628311 0.822159 1.015007 1.206804 1.397498 1.587038 1.775372 1.962448 2.148215 2.332620 2.515613 2.697141 2.877153 3.055598 3.232423 3.407577 3.581008 3.752664 3.922495 4.090447 4.256471 4.420513 4.582522 4.742447 4.900236 5.055837 5.209199 5.360269 5.508997 5.655330 5.799217 5.940607 6.079446 6.215685 6.349271 6.480152 6.608278 6.733595 6.856053 6.975598 7.092036 7.204948 7.313896 7.418442 7.518146 7.612569 7.701274 7.783821 7.859772 7.928688 7.990131 8.043661 8.088841 8.125230 8.152392 8.169886 8.177540 8.176685 8.169183 8.156897 8.141687 8.124929 8.106880 8.087642 8.067314 8.045999 8.023797 8.000808 7.977133 7.952874 7.928130 7.903003 7.877593 7.851953 7.826096 7.800031 7.773767 7.747313 7.720679 7.693873 7.666906 7.639786 7.612522 7.585124 7.557601 7.529962 7.502217 7.474373 7.446435 7.418404 7.390282 7.362071 7.333774 7.305393 7.276929 7.248385 7.219762 7.191063 7.162290 7.133445 7.104529 7.075545 7.046496 7.017382 6.988206 6.958971 6.929677 6.900328 6.870925 6.841471 6.811966 6.782414 6.752817 6.723176 6.693494 6.663772 6.634013 6.604219 6.574392 6.544533 6.514645 6.484730 6.454790 6.424828 6.394845 6.364844 6.334827 6.304796 6.274754 6.244703 6.214645 6.184582 6.154517 6.124452 6.094389 6.064330 6.034279 6.004236 5.974204 5.944186 5.914183 5.884199 5.854234 5.824293 5.794376 5.764486 5.734625 5.704796 5.675000 5.645241 5.615520 5.585840 5.556202 5.526610 5.497065 5.467569 5.438126 5.408736 5.379403 5.350129 5.320916 5.291765 5.262680 5.233663 5.204716 5.175841 5.147041 5.118317 5.089672 5.061109 5.032629 5.004235 4.975929 4.947713 4.919590 4.891561 4.863630 4.835798 4.808067 4.780441 4.752920 4.725508 4.698204 4.671009 4.643923 4.616945 4.590075 4.563314 4.536661 4.510116 4.483679 4.457350 4.431129 4.405015 4.379010 4.353112 4.327321 4.301638 4.276063 4.250594 4.225233 4.199979 4.174832 4.149793 4.124860 4.100033 4.075314 4.050701 4.026195 4.001796 3.977502 3.953315 3.929235 3.905260 3.881392 3.857630 3.833973 3.810423 3.786978 3.763639 3.740405 3.717277 3.694255 3.671337 3.648525 3.625819 3.603217 3.580721 3.558329 3.536042 3.513860 3.491783 3.469810 3.447942 3.426179 3.404519 3.382965 3.361514 3.340167 3.318925 3.297786 3.276752 3.255821 3.234994 3.214271 3.193651 3.173134 3.152722 3.132412 3.112206 3.092102 3.072102 3.052205 3.032411 3.012720 2.993131 2.973645 2.954262 2.934981 2.915803 2.896727 2.877754 2.858882 2.840113 2.821445 2.802880 2.784416 2.766055 2.747795 2.729636 2.711579 2.693624 2.675770 2.658017 2.640366 2.622815 2.605366 2.588018 2.570770 2.553624 2.536578 2.519633 2.502788 2.486044 2.469400 2.452856 2.436413 2.420070 2.403827 2.387684 2.371641 2.355698 2.339855 2.324111 2.308467 2.292922 2.277477 2.262131 2.246884 2.231737 2.216688 2.201739 2.186889 2.172137 2.157484 2.142930 2.128475 2.114118 2.099860 2.085700 2.071638 2.057675 2.043809 2.030042 2.016372 2.002801 1.989327 1.975951 1.962673 1.949492 1.936409 1.923423 1.910535 1.897743 1.885049 1.872452 1.859952 1.847549 1.835243 1.823033 1.810920 1.798904 1.786984 1.775161 1.763434 1.751803 1.740268 1.728830 1.717487 1.706241 1.695090 1.684035 1.673076 1.662212 1.651444 1.640772 1.630194 1.619712 1.609326 1.599034 1.588838 1.578736 1.568729 1.558817 1.549000 1.539278 1.529650 1.520116 1.510677 1.501332 1.492082 1.482925 1.473863 1.464894 1.456020 1.447239 1.438552 1.429959 1.421460 1.413053 1.404741 1.396521 1.388395 1.380362 1.372422 1.364576 1.356822 1.349161 1.341592 1.334117 1.326734 1.319443 1.312245 1.305140 1.298126 1.291205 1.284376 1.277639 1.270994 1.264441 1.257980 1.251610 1.245332 1.239145 1.233050 1.227047 1.221135 1.215314 1.209584 1.203945 1.198397 1.192940 1.187574 1.182298 1.177114 1.172019 1.167016 1.162103 1.157280 1.152547 1.147904 1.143352 1.138890 1.134517 1.130235 1.126042 1.121939 1.117925 1.114001 1.110166 1.106421 1.102765 1.099198 1.095721 1.092332 1.089032 1.085822 1.082700 1.079666 1.076722 1.073866 1.071098 1.068419 1.065828 1.063325 1.060910 1.058584 1.056345 1.054195 1.052132 1.050157 1.048269 1.046469 1.044757 1.043132 1.041594 1.040144 1.038781 1.037505 1.036315 1.035213 1.034198 1.033269 1.032427 1.031672 1.031003 1.030421 1.029925 1.029515 1.029191 1.028954 1.028802 1.028737 1.028757 1.028863 1.029055 1.029332 1.029692 1.030134 1.030655 1.031254 1.031930 1.032681 1.033505 1.034399 1.035364 1.036396 1.037495 1.038658 1.039883 1.041170 1.042516 1.043919 1.045379 1.046892 1.048458 1.050075 1.051741 1.053454 1.055213 1.057016 1.058860 1.060746 1.062670 1.064631 1.066628 1.068658 1.070720 1.072812 1.074933 1.077080 1.079253 1.081449 1.083667 1.085905 1.088161 1.090439 1.092754 1.095120 1.097552 1.100066 1.102675 1.105395 1.108241 1.111227 1.114369 1.117681 1.121178 1.124875 1.128787 1.132929 1.137315 1.141961 1.146881 1.152091 1.157604 1.163437 1.169603 1.176119 1.182998 1.190257 1.197910 1.205973 1.214461 1.223389 1.232772 1.242626 1.252966 1.263807 1.275164 1.287052 1.299487 1.312484 1.326058 1.340224 1.354997 1.370394 1.386428 1.403115 1.420470 1.438501 1.457150 1.476325 1.495939 1.515900 1.536119 1.556506 1.576970 1.597422 1.617772 1.637929 1.657804 1.677307 1.696348 1.714837 1.732689 1.749875 1.766404 1.782287 1.797532 1.812150 1.826150 1.839541 1.852332 1.864535 1.876157 1.887209 1.897700 1.907640 1.917038 1.925904 1.934247 1.942077 1.949404 1.956237 1.962586 1.968459 1.973868 1.978821 1.983328 1.987398 1.991041 1.994267 1.997085 1.999504 2.001535 2.003187 2.004469 2.005390 2.005962 2.006192 2.006091 2.005667 2.004931 2.003892 2.002558 2.000940 1.999048 1.996889 1.994475 1.991813 1.988915 1.985789 1.982444 1.978890 1.975137 1.971194 1.967070 1.962775 1.958319 1.953709 1.948957 1.944072 1.939063 1.933939 1.928709 1.923384 1.917973 1.912485 1.906930 1.901317 1.895655 1.889954 1.884223 1.878472 1.872711 1.866948 1.861193 1.855456 1.849745 1.844071 1.838443 1.832871 1.827363 1.821929 1.816578 1.811321 1.806166 1.801123 1.796201 1.791411 1.786760 1.782259 1.777917 1.773744 1.769748 1.765940 1.762329 1.758924 1.755735 1.752770 1.750041 1.747555 1.745323 1.743354 1.741657 1.740242 1.739118 1.738295 1.737781 1.737587 1.737723 1.738196 1.739017 1.740196 1.741741 1.743663 1.745970 1.748672 1.751777 1.755293 1.759223 1.763574 1.768348 1.773544 1.779162 1.785200 1.791655 1.798527 1.805814 1.813513 1.821625 1.830148 1.839079 1.848419 1.858166 1.868319 1.878875 1.889835 1.901196 1.912958 1.925119 1.937677 1.950632 1.963983 1.977727 1.991864 2.006392 2.021311 2.036614 2.052292 2.068332 2.084724 2.101456 2.118517 2.135895 2.153579 2.171558 2.189820 2.208354 2.227149 2.246194 2.265476 2.284984 2.304708 2.324636 2.344756 2.365058 2.385529 2.406159 2.426936 2.447848 2.468885 2.490035 2.511287 2.532629 2.554049 2.575538 2.597083 2.618672 2.640296 2.661941 2.683597 2.705253 2.726897 2.748519 2.770111 2.791664 2.813169 2.834618 2.856003 2.877314 2.898544 2.919684 2.940725 2.961658 2.982476 3.003169 3.023729 3.044147 3.064416 3.084526 3.104469 3.124236 3.143818 3.163200 3.182368 3.201304 3.219991 3.238415 3.256557 3.274402 3.291934 3.309136 3.325992 3.342486 3.358600 3.374320 3.389628 3.404508 3.418943 3.432919 3.446417 3.459422 3.471918 3.483888 3.495315 3.506184 3.516478 3.526180 3.535275 3.543746 3.551577 3.558751 3.565252 3.571064 3.576170 3.580555 3.584200 3.587091 3.589211 3.590544 3.591073 3.590782 3.589654 3.587674 3.584825 3.581090 3.576453 3.570898 3.564409 3.556969 3.548562 3.539172 3.528781 3.517375 3.504936 3.491448 3.476894 3.461260 3.444527 3.426681 3.407703 3.387579 3.366292 3.343825 3.320162 3.295286 3.269182 3.241834 3.213224 3.183336 3.152154 3.119662 3.085843 3.050682 3.014161 2.976264 2.936975 2.896278 2.854156 2.810593 2.765573 2.719079 2.671095 2.621604 2.570591 2.518038 2.463931 2.408251 2.350983 2.292111 2.231618 2.169488 2.105704 2.040250 1.973110 1.904268 1.833707 1.761411 1.687363 1.611547 1.533947 