20.31608288643049675670 27.94528119242413666257 20.31608288643049675670 27.94528119242413666257 22.85914898842837672532 22.85914898842837672532 27.94528119242413666257 20.31608288643049675670 27.94528119242413666257 25.40221509042626024666 22.85914898842837672532 22.85914898842837672532 25.40221509042626024666 25.40221509042626024666 30.48834729442202018390 22.85914898842837672532 22.85914898842837672532 27.94528119242413666257 17.77301678443261323537 17.77301678443261323537 22.85914898842837672532 22.85914898842837672532 20.31608288643049675670 20.31608288643049675670 15.22995068243473326675 17.77301678443261323537 17.77301678443261323537 20.31608288643049675670 15.22995068243473326675 15.22995068243473326675 17.77301678443261323537 12.68688458043685329812 5.05768627444321250408 17.77301678443261323537 10.14381847843897155315 15.22995068243473326675 10.14381847843897155315 17.77301678443261323537 15.22995068243473326675 17.77301678443261323537 17.77301678443261323537 10.14381847843897155315 10.14381847843897155315 7.60075237644109336088 12.68688458043685329812 17.77301678443261323537 12.68688458043685329812 15.22995068243473326675 17.77301678443261323537 5.05768627444321250408 12.68688458043685329812 12.68688458043685329812 12.68688458043685329812 12.68688458043685329812 15.22995068243473326675 10.14381847843897155315 17.77301678443261323537 12.68688458043685329812 7.60075237644109336088 15.22995068243473326675 12.68688458043685329812 17.77301678443261323537 10.14381847843897155315 12.68688458043685329812 12.68688458043685329812 10.14381847843897155315 5.05768627444321250408 10.14381847843897155315 12.68688458043685329812 10.14381847843897155315 15.22995068243473326675 17.77301678443261323537 7.60075237644109336088 7.60075237644109336088 10.14381847843897155315 7.60075237644109336088 12.68688458043685329812 10.14381847843897155315 17.77301678443261323537 15.22995068243473326675 15.22995068243473326675 12.68688458043685329812 7.60075237644109336088 12.68688458043685329812 7.60075237644109336088 7.60075237644109336088 12.68688458043685329812 10.14381847843897155315 10.14381847843897155315 10.14381847843897155315 7.60075237644109336088 20.31608288643049675670 10.14381847843897155315 12.68688458043685329812 15.22995068243473326675 12.68688458043685329812 15.22995068243473326675 15.22995068243473326675 12.68688458043685329812 10.14381847843897155315 17.77301678443261323537 15.22995068243473326675 17.77301678443261323537 15.22995068243473326675 10.14381847843897155315 15.22995068243473326675 12.68688458043685329812 20.31608288643049675670 15.22995068243473326675 20.31608288643049675670 15.22995068243473326675 17.77301678443261323537 17.77301678443261323537 10.14381847843897155315 10.14381847843897155315 12.68688458043685329812 7.60075237644109336088 15.22995068243473326675 15.22995068243473326675 20.31608288643049675670 15.22995068243473326675 7.60075237644109336088 12.68688458043685329812 12.68688458043685329812 15.22995068243473326675 12.68688458043685329812 12.68688458043685329812 12.68688458043685329812 15.22995068243473326675 15.22995068243473326675 7.60075237644109336088 7.60075237644109336088 15.22995068243473326675 15.22995068243473326675 10.14381847843897155315 15.22995068243473326675 7.60075237644109336088 17.77301678443261323537 10.14381847843897155315 12.68688458043685329812 12.68688458043685329812 15.22995068243473326675 12.68688458043685329812 12.68688458043685329812 2.51462017244533120319 17.77301678443261323537 12.68688458043685329812 10.14381847843897155315 2.51462017244533120319 7.60075237644109336088 10.14381847843897155315 10.14381847843897155315 5.05768627444321250408 7.60075237644109336088 5.05768627444321250408 5.05768627444321250408 10.14381847843897155315 7.60075237644109336088 7.60075237644109336088 10.14381847843897155315 10.14381847843897155315 2.51462017244533120319 7.60075237644109336088 5.05768627444321250408 -0.02844592955254902911 2.51462017244533120319 5.05768627444321250408 12.68688458043685329812 10.14381847843897155315 5.05768627444321250408 5.05768627444321250408 2.51462017244533120319 2.51462017244533120319 2.51462017244533120319 7.60075237644109336088 5.05768627444321250408 2.51462017244533120319 5.05768627444321250408 12.68688458043685329812 7.60075237644109336088 5.05768627444321250408 -0.02844592955254902911 2.51462017244533120319 7.60075237644109336088 5.05768627444321250408 10.14381847843897155315 5.05768627444321250408 7.60075237644109336088 5.05768627444321250408 2.51462017244533120319 2.51462017244533120319 2.51462017244533120319 5.05768627444321250408 5.05768627444321250408 5.05768627444321250408 2.51462017244533120319 -2.57151203155042962223 -0.02844592955254902911 7.60075237644109336088 7.60075237644109336088 2.51462017244533120319 7.60075237644109336088 5.05768627444321250408 2.51462017244533120319 10.14381847843897155315 5.05768627444321250408 5.05768627444321250408 -0.02844592955254902911 2.51462017244533120319 2.51462017244533120319 2.51462017244533120319 5.05768627444321250408 -2.57151203155042962223 -2.57151203155042962223 2.51462017244533120319 -2.57151203155042962223 -0.02844592955254902911 -0.02844592955254902911 2.51462017244533120319 -0.02844592955254902911 -0.02844592955254902911 -2.57151203155042962223 2.51462017244533120319 2.51462017244533120319 5.05768627444321250408 2.51462017244533120319 5.05768627444321250408 2.51462017244533120319 2.51462017244533120319 -5.11457813354830914676 -0.02844592955254902911 -0.02844592955254902911 5.05768627444321250408 5.05768627444321250408 5.05768627444321250408 -0.02844592955254902911 2.51462017244533120319 -7.65764423554619000356 2.51462017244533120319 -0.02844592955254902911 2.51462017244533120319 2.51462017244533120319 -5.11457813354830914676 -0.02844592955254902911 5.05768627444321250408 7.60075237644109336088 10.14381847843897155315 -2.57151203155042962223 2.51462017244533120319 2.51462017244533120319 7.60075237644109336088 -0.02844592955254902911 7.60075237644109336088 5.05768627444321250408 2.51462017244533120319 7.60075237644109336088 2.51462017244533120319 5.05768627444321250408 2.51462017244533120319 2.51462017244533120319 2.51462017244533120319 2.51462017244533120319 -0.02844592955254902911 -2.57151203155042962223 -7.65764423554619000356 -0.02844592955254902911 5.05768627444321250408 2.51462017244533120319 -0.02844592955254902911 5.05768627444321250408 -0.02844592955254902911 -2.57151203155042962223 -0.02844592955254902911 -2.57151203155042962223 -0.02844592955254902911 -5.11457813354830914676 -2.57151203155042962223 -2.57151203155042962223 -0.02844592955254902911 2.51462017244533120319 -7.65764423554619000356 2.51462017244533120319 -0.02844592955254902911 -0.02844592955254902911 -2.57151203155042962223 -2.57151203155042962223 -5.11457813354830914676 -2.57151203155042962223 -0.02844592955254902911 -5.11457813354830914676 -2.57151203155042962223 -0.02844592955254902911 2.51462017244533120319 -0.02844592955254902911 -5.11457813354830914676 -2.57151203155042962223 -2.57151203155042962223 -2.57151203155042962223 -7.65764423554619000356 -5.11457813354830914676 -5.11457813354830914676 -2.57151203155042962223 -2.57151203155042962223 -0.02844592955254902911 -0.02844592955254902911 -7.65764423554619000356 -5.11457813354830914676 -7.65764423554619000356 -7.65764423554619000356 -2.57151203155042962223 -2.57151203155042962223 -2.57151203155042962223 -7.65764423554619000356 -7.65764423554619000356 -5.11457813354830914676 -7.65764423554619000356 -0.02844592955254902911 -0.02844592955254902911 -5.11457813354830914676 -2.57151203155042962223 -5.11457813354830914676 -0.02844592955254902911 -0.02844592955254902911 -0.02844592955254902911 -0.02844592955254902911 2.51462017244533120319 2.51462017244533120319 2.51462017244533120319 -0.02844592955254902911 -2.57151203155042962223 -5.11457813354830914676 2.51462017244533120319 -0.02844592955254902911 -2.57151203155042962223 2.51462017244533120319 2.51462017244533120319 -0.02844592955254902911 -0.02844592955254902911 2.51462017244533120319 5.05768627444321250408 2.51462017244533120319 7.60075237644109336088 5.05768627444321250408 2.51462017244533120319 2.51462017244533120319 5.05768627444321250408 2.51462017244533120319 7.60075237644109336088 7.60075237644109336088 10.14381847843897155315 10.14381847843897155315 5.05768627444321250408 2.51462017244533120319 2.51462017244533120319 5.05768627444321250408 5.05768627444321250408 7.60075237644109336088 7.60075237644109336088 5.05768627444321250408 10.14381847843897155315 5.05768627444321250408 5.05768627444321250408 -2.57151203155042962223 5.05768627444321250408 7.60075237644109336088 7.60075237644109336088 17.77301678443261323537 12.68688458043685329812 5.05768627444321250408 2.51462017244533120319 7.60075237644109336088 7.60075237644109336088 10.14381847843897155315 5.05768627444321250408 7.60075237644109336088 5.05768627444321250408 2.51462017244533120319 5.05768627444321250408 5.05768627444321250408 12.68688458043685329812 10.14381847843897155315 7.60075237644109336088 5.05768627444321250408 5.05768627444321250408 7.60075237644109336088 5.05768627444321250408 10.14381847843897155315 7.60075237644109336088 2.51462017244533120319 7.60075237644109336088 2.51462017244533120319 2.51462017244533120319 -0.02844592955254902911 2.51462017244533120319 -0.02844592955254902911 -0.02844592955254902911 7.60075237644109336088 5.05768627444321250408 7.60075237644109336088 5.05768627444321250408 5.05768627444321250408 17.77301678443261323537 2.51462017244533120319 -0.02844592955254902911 5.05768627444321250408 7.60075237644109336088 -0.02844592955254902911 5.05768627444321250408 -0.02844592955254902911 -0.02844592955254902911 7.60075237644109336088 10.14381847843897155315 5.05768627444321250408 -0.02844592955254902911 7.60075237644109336088 2.51462017244533120319 5.05768627444321250408 2.51462017244533120319 5.05768627444321250408 5.05768627444321250408 2.51462017244533120319 5.05768627444321250408 -0.02844592955254902911 -0.02844592955254902911 5.05768627444321250408 2.51462017244533120319 7.60075237644109336088 5.05768627444321250408 5.05768627444321250408 -0.02844592955254902911 -2.57151203155042962223 5.05768627444321250408 5.05768627444321250408 5.05768627444321250408 12.68688458043685329812 7.60075237644109336088 2.51462017244533120319 2.51462017244533120319 -0.02844592955254902911 -2.57151203155042962223 -5.11457813354830914676 7.60075237644109336088 2.51462017244533120319 2.51462017244533120319 -0.02844592955254902911 -2.57151203155042962223 2.51462017244533120319 -0.02844592955254902911 -7.65764423554619000356 -0.02844592955254902911 -0.02844592955254902911 -0.02844592955254902911 -0.02844592955254902911 -2.57151203155042962223 -2.57151203155042962223 -5.11457813354830914676 -5.11457813354830914676 -2.57151203155042962223 -2.57151203155042962223 -0.02844592955254902911 -7.65764423554619000356 -0.02844592955254902911 -2.57151203155042962223 -2.57151203155042962223 -7.65764423554619000356 -5.11457813354830914676 -0.02844592955254902911 -5.11457813354830914676 -2.57151203155042962223 -2.57151203155042962223 -7.65764423554619000356 -5.11457813354830914676 -2.57151203155042962223 2.51462017244533120319 -5.11457813354830914676 -2.57151203155042962223 -2.57151203155042962223 -0.02844592955254902911 -0.02844592955254902911 -7.65764423554619000356 -7.65764423554619000356 -12.74377643954195349352 -2.57151203155042962223 -5.11457813354830914676 -0.02844592955254902911 5.05768627444321250408 -0.02844592955254902911 -2.57151203155042962223 -10.20071033754407174854 -10.20071033754407174854 -5.11457813354830914676 -2.57151203155042962223 -0.02844592955254902911 -2.57151203155042962223 -2.57151203155042962223 -10.20071033754407174854 -5.11457813354830914676 -5.11457813354830914676 2.51462017244533120319 2.51462017244533120319 -0.02844592955254902911 -0.02844592955254902911 -0.02844592955254902911 -5.11457813354830914676 -5.11457813354830914676 -2.57151203155042962223 -2.57151203155042962223 -2.57151203155042962223 2.51462017244533120319 -0.02844592955254902911 -2.57151203155042962223 -5.11457813354830914676 -7.65764423554619000356 -5.11457813354830914676 -0.02844592955254902911 -0.02844592955254902911 -5.11457813354830914676 -0.02844592955254902911 -2.57151203155042962223 -0.02844592955254902911 -2.57151203155042962223 -5.11457813354830914676 -5.11457813354830914676 -0.02844592955254902911 2.51462017244533120319 2.51462017244533120319 -2.57151203155042962223 -0.02844592955254902911 -5.11457813354830914676 -0.02844592955254902911 2.51462017244533120319 -5.11457813354830914676 -2.57151203155042962223 -0.02844592955254902911 -2.57151203155042962223 -2.57151203155042962223 -5.11457813354830914676 -2.57151203155042962223 2.51462017244533120319 2.51462017244533120319 -2.57151203155042962223 -5.11457813354830914676 2.51462017244533120319 -10.20071033754407174854 -2.57151203155042962223 -2.57151203155042962223 -0.02844592955254902911 -5.11457813354830914676 -0.02844592955254902911 -0.02844592955254902911 -0.02844592955254902911 -5.11457813354830914676 -5.11457813354830914676 -0.02844592955254902911 2.51462017244533120319 -2.57151203155042962223 -2.57151203155042962223 -2.57151203155042962223 5.05768627444321250408 -7.65764423554619000356 -12.74377643954195349352 2.51462017244533120319 -5.11457813354830914676 2.51462017244533120319 -2.57151203155042962223 -0.02844592955254902911 -2.57151203155042962223 -5.11457813354830914676 -2.57151203155042962223 -0.02844592955254902911 -2.57151203155042962223 -2.57151203155042962223 -5.11457813354830914676 -2.57151203155042962223 -5.11457813354830914676 -0.02844592955254902911 -0.02844592955254902911 -5.11457813354830914676 -0.02844592955254902911 -2.57151203155042962223 -2.57151203155042962223 -2.57151203155042962223 -7.65764423554619000356 -5.11457813354830914676 -5.11457813354830914676 -5.11457813354830914676 -0.02844592955254902911 2.51462017244533120319 -2.57151203155042962223 -2.57151203155042962223 -7.65764423554619000356 -5.11457813354830914676 -7.65764423554619000356 -5.11457813354830914676 -10.20071033754407174854 -5.11457813354830914676 -2.57151203155042962223 -10.20071033754407174854 -10.20071033754407174854 -7.65764423554619000356 -2.57151203155042962223 -2.57151203155042962223 -7.65764423554619000356 -5.11457813354830914676 -2.57151203155042962223 -2.57151203155042962223 -10.20071033754407174854 -7.65764423554619000356 -7.65764423554619000356 -0.02844592955254902911 -5.11457813354830914676 -2.57151203155042962223 -7.65764423554619000356 -10.20071033754407174854 -7.65764423554619000356 -2.57151203155042962223 -5.11457813354830914676 -2.57151203155042962223 -5.11457813354830914676 -5.11457813354830914676 -5.11457813354830914676 -5.11457813354830914676 -10.20071033754407174854 -10.20071033754407174854 -7.65764423554619000356 -7.65764423554619000356 -2.57151203155042962223 -0.02844592955254902911 -5.11457813354830914676 -5.11457813354830914676 -5.11457813354830914676 -10.20071033754407174854 -5.11457813354830914676 -0.02844592955254902911 -7.65764423554619000356 5.05768627444321250408 -2.57151203155042962223 -2.57151203155042962223 -10.20071033754407174854 -2.57151203155042962223 -7.65764423554619000356 -5.11457813354830914676 -2.57151203155042962223 -5.11457813354830914676 -0.02844592955254902911 -5.11457813354830914676 -0.02844592955254902911 -2.57151203155042962223 2.51462017244533120319 -7.65764423554619000356 -2.57151203155042962223 -2.57151203155042962223 -5.11457813354830914676 -5.11457813354830914676 -5.11457813354830914676 -5.11457813354830914676 -0.02844592955254902911 -0.02844592955254902911 -5.11457813354830914676 -7.65764423554619000356 -7.65764423554619000356 -7.65764423554619000356 -2.57151203155042962223 -10.20071033754407174854 -2.57151203155042962223 5.05768627444321250408 2.51462017244533120319 -5.11457813354830914676 -7.65764423554619000356 -7.65764423554619000356 -5.11457813354830914676 -0.02844592955254902911 -0.02844592955254902911 -2.57151203155042962223 -5.11457813354830914676 -7.65764423554619000356 -7.65764423554619000356 -10.20071033754407174854 -10.20071033754407174854 -10.20071033754407174854 -5.11457813354830914676 -5.11457813354830914676 -5.11457813354830914676 -10.20071033754407174854 -7.65764423554619000356 -7.65764423554619000356 -12.74377643954195349352 -7.65764423554619000356 -5.11457813354830914676 -5.11457813354830914676 -7.65764423554619000356 -10.20071033754407174854 -10.20071033754407174854 -5.11457813354830914676 -5.11457813354830914676 -10.20071033754407174854 -10.20071033754407174854 -10.20071033754407174854 -2.57151203155042962223 -5.11457813354830914676 -5.11457813354830914676 -5.11457813354830914676 -7.65764423554619000356 -5.11457813354830914676 -12.74377643954195349352 -5.11457813354830914676 -5.11457813354830914676 -5.11457813354830914676 -2.57151203155042962223 -5.11457813354830914676 -7.65764423554619000356 -5.11457813354830914676 -5.11457813354830914676 -5.11457813354830914676 -2.57151203155042962223 2.51462017244533120319 -5.11457813354830914676 -7.65764423554619000356 -2.57151203155042962223 -0.02844592955254902911 -2.57151203155042962223 -2.57151203155042962223 2.51462017244533120319 -0.02844592955254902911 2.51462017244533120319 2.51462017244533120319 2.51462017244533120319 2.51462017244533120319 -0.02844592955254902911 2.51462017244533120319 -2.57151203155042962223 -2.57151203155042962223 -2.57151203155042962223 2.51462017244533120319 2.51462017244533120319 -0.02844592955254902911 -0.02844592955254902911 -5.11457813354830914676 2.51462017244533120319 2.51462017244533120319 -2.57151203155042962223 -5.11457813354830914676 -5.11457813354830914676 -2.57151203155042962223 -5.11457813354830914676 -7.65764423554619000356 -5.11457813354830914676 -0.02844592955254902911 -2.57151203155042962223 -2.57151203155042962223 -5.11457813354830914676 -12.74377643954195349352 -5.11457813354830914676 -5.11457813354830914676 -10.20071033754407174854 -2.57151203155042962223 -5.11457813354830914676 -5.11457813354830914676 -5.11457813354830914676 -7.65764423554619000356 -7.65764423554619000356 -2.57151203155042962223 -2.57151203155042962223 -2.57151203155042962223 -5.11457813354830914676 -2.57151203155042962223 -5.11457813354830914676 -10.20071033754407174854 -5.11457813354830914676 -5.11457813354830914676 -2.57151203155042962223 2.51462017244533120319 -7.65764423554619000356 -5.11457813354830914676 -5.11457813354830914676 -12.74377643954195349352 -7.65764423554619000356 -5.11457813354830914676 -10.20071033754407174854 -7.65764423554619000356 -7.65764423554619000356 -10.20071033754407174854 -7.65764423554619000356 -7.65764423554619000356 -7.65764423554619000356 -10.20071033754407174854 -5.11457813354830914676 -10.20071033754407174854 -10.20071033754407174854 -10.20071033754407174854 -10.20071033754407174854 -12.74377643954195349352 -12.74377643954195349352 -7.65764423554619000356 -10.20071033754407174854 -7.65764423554619000356 -5.11457813354830914676 -10.20071033754407174854 -12.74377643954195349352 -17.82990864353771343076 -10.20071033754407174854 -10.20071033754407174854 -2.57151203155042962223 -12.74377643954195349352 -5.11457813354830914676 -10.20071033754407174854 -12.74377643954195349352 -12.74377643954195349352 -10.20071033754407174854 -5.11457813354830914676 -7.65764423554619000356 -5.11457813354830914676 -15.28684254153983346214 -10.20071033754407174854 -10.20071033754407174854 -10.20071033754407174854 -7.65764423554619000356 -5.11457813354830914676 -10.20071033754407174854 -7.65764423554619000356 -7.65764423554619000356 -7.65764423554619000356 -0.02844592955254902911 -5.11457813354830914676 -5.11457813354830914676 -2.57151203155042962223 -7.65764423554619000356 -5.11457813354830914676 -0.02844592955254902911 -0.02844592955254902911 -5.11457813354830914676 -2.57151203155042962223 -2.57151203155042962223 -5.11457813354830914676 -7.65764423554619000356 5.05768627444321250408 -0.02844592955254902911 2.51462017244533120319 -0.02844592955254902911 -2.57151203155042962223 2.51462017244533120319 -0.02844592955254902911 -5.11457813354830914676 -0.02844592955254902911 -0.02844592955254902911 2.51462017244533120319 2.51462017244533120319 -0.02844592955254902911 -5.11457813354830914676 2.51462017244533120319 2.51462017244533120319 -0.02844592955254902911 -12.74377643954195349352 -2.57151203155042962223 -0.02844592955254902911 -0.02844592955254902911 -2.57151203155042962223 -5.11457813354830914676 -7.65764423554619000356 -5.11457813354830914676 -2.57151203155042962223 -7.65764423554619000356 -2.57151203155042962223 -5.11457813354830914676 -2.57151203155042962223 -5.11457813354830914676 -7.65764423554619000356 -7.65764423554619000356 -10.20071033754407174854 -2.57151203155042962223 -0.02844592955254902911 -2.57151203155042962223 -5.11457813354830914676 -2.57151203155042962223 -0.02844592955254902911 -7.65764423554619000356 -12.74377643954195349352 -10.20071033754407174854 -10.20071033754407174854 -5.11457813354830914676 -2.57151203155042962223 -5.11457813354830914676 -7.65764423554619000356 -7.65764423554619000356 -12.74377643954195349352 -12.74377643954195349352 -5.11457813354830914676 -2.57151203155042962223 -10.20071033754407174854 -5.11457813354830914676 -10.20071033754407174854 -10.20071033754407174854 -5.11457813354830914676 -12.74377643954195349352 -5.11457813354830914676 -10.20071033754407174854 -7.65764423554619000356 -2.57151203155042962223 -2.57151203155042962223 -5.11457813354830914676 -7.65764423554619000356 -5.11457813354830914676 -0.02844592955254902911 -2.57151203155042962223 -0.02844592955254902911 2.51462017244533120319 -5.11457813354830914676 -5.11457813354830914676 -5.11457813354830914676 -5.11457813354830914676 -0.02844592955254902911 -2.57151203155042962223 2.51462017244533120319 2.51462017244533120319 -5.11457813354830914676 -7.65764423554619000356 -2.57151203155042962223 -2.57151203155042962223 -5.11457813354830914676 -2.57151203155042962223 5.05768627444321250408 -5.11457813354830914676 -5.11457813354830914676 5.05768627444321250408 -2.57151203155042962223 -0.02844592955254902911 -0.02844592955254902911 5.05768627444321250408 2.51462017244533120319 -5.11457813354830914676 -5.11457813354830914676 -5.11457813354830914676 2.51462017244533120319 2.51462017244533120319 2.51462017244533120319 -0.02844592955254902911 5.05768627444321250408 -0.02844592955254902911 -0.02844592955254902911 2.51462017244533120319 -5.11457813354830914676 -2.57151203155042962223 -0.02844592955254902911 2.51462017244533120319 2.51462017244533120319 2.51462017244533120319 -2.57151203155042962223 -2.57151203155042962223 2.51462017244533120319 -2.57151203155042962223 -2.57151203155042962223 -2.57151203155042962223 -0.02844592955254902911 -5.11457813354830914676 2.51462017244533120319 -0.02844592955254902911 -0.02844592955254902911 -2.57151203155042962223 -0.02844592955254902911 -2.57151203155042962223 -5.11457813354830914676 2.51462017244533120319 7.60075237644109336088 2.51462017244533120319 2.51462017244533120319 2.51462017244533120319 -2.57151203155042962223 5.05768627444321250408 5.05768627444321250408 7.60075237644109336088 -0.02844592955254902911 -0.02844592955254902911 -2.57151203155042962223 -5.11457813354830914676 -2.57151203155042962223 -5.11457813354830914676 2.51462017244533120319 2.51462017244533120319 2.51462017244533120319 2.51462017244533120319 -0.02844592955254902911 -0.02844592955254902911 -2.57151203155042962223 -2.57151203155042962223 -5.11457813354830914676 -5.11457813354830914676 2.51462017244533120319 -0.02844592955254902911 -2.57151203155042962223 -2.57151203155042962223 2.51462017244533120319 -0.02844592955254902911 -0.02844592955254902911 5.05768627444321250408 2.51462017244533120319 2.51462017244533120319 -0.02844592955254902911 -0.02844592955254902911 5.05768627444321250408 -2.57151203155042962223 2.51462017244533120319 5.05768627444321250408 -0.02844592955254902911 5.05768627444321250408 2.51462017244533120319 5.05768627444321250408 -0.02844592955254902911 -5.11457813354830914676 2.51462017244533120319 -0.02844592955254902911 2.51462017244533120319 7.60075237644109336088 2.51462017244533120319 2.51462017244533120319 -0.02844592955254902911 2.51462017244533120319 -2.57151203155042962223 5.05768627444321250408 -2.57151203155042962223 2.51462017244533120319 -0.02844592955254902911 -0.02844592955254902911 -5.11457813354830914676 -2.57151203155042962223 -0.02844592955254902911 -5.11457813354830914676 2.51462017244533120319 2.51462017244533120319 -0.02844592955254902911 2.51462017244533120319 -2.57151203155042962223 2.51462017244533120319 -0.02844592955254902911 -0.02844592955254902911 2.51462017244533120319 2.51462017244533120319 10.14381847843897155315 -2.57151203155042962223 -2.57151203155042962223 -2.57151203155042962223 -7.65764423554619000356 -2.57151203155042962223 -2.57151203155042962223 -2.57151203155042962223 -2.57151203155042962223 -2.57151203155042962223 -5.11457813354830914676 -5.11457813354830914676 -2.57151203155042962223 -7.65764423554619000356 -2.57151203155042962223 -2.57151203155042962223 -2.57151203155042962223 -2.57151203155042962223 -5.11457813354830914676 -7.65764423554619000356 -12.74377643954195349352 -5.11457813354830914676 -15.28684254153983346214 -2.57151203155042962223 -0.02844592955254902911 -5.11457813354830914676 -7.65764423554619000356 -10.20071033754407174854 -7.65764423554619000356 -7.65764423554619000356 -0.02844592955254902911 -7.65764423554619000356 -5.11457813354830914676 -7.65764423554619000356 -7.65764423554619000356 -10.20071033754407174854 -5.11457813354830914676 -7.65764423554619000356 -10.20071033754407174854 -5.11457813354830914676 -5.11457813354830914676 -5.11457813354830914676 -5.11457813354830914676 -7.65764423554619000356 -10.20071033754407174854 -7.65764423554619000356 -2.57151203155042962223 -5.11457813354830914676 -5.11457813354830914676 2.51462017244533120319 -7.65764423554619000356 -7.65764423554619000356 -5.11457813354830914676 -7.65764423554619000356 -0.02844592955254902911 -2.57151203155042962223 -5.11457813354830914676 -5.11457813354830914676 -2.57151203155042962223 -10.20071033754407174854 -5.11457813354830914676 -7.65764423554619000356 -2.57151203155042962223 -7.65764423554619000356 -0.02844592955254902911 -5.11457813354830914676 -2.57151203155042962223 -10.20071033754407174854 -7.65764423554619000356 -5.11457813354830914676 -7.65764423554619000356 -5.11457813354830914676 -5.11457813354830914676 -2.57151203155042962223 -5.11457813354830914676 -5.11457813354830914676 -7.65764423554619000356 -10.20071033754407174854 -7.65764423554619000356 -2.57151203155042962223 -5.11457813354830914676 -0.02844592955254902911 -2.57151203155042962223 -10.20071033754407174854 -10.20071033754407174854 -10.20071033754407174854 2.51462017244533120319 -2.57151203155042962223 -12.74377643954195349352 -5.11457813354830914676 -10.20071033754407174854 -7.65764423554619000356 -12.74377643954195349352 -5.11457813354830914676 -5.11457813354830914676 -7.65764423554619000356 -2.57151203155042962223 -5.11457813354830914676 -5.11457813354830914676 -10.20071033754407174854 -10.20071033754407174854 -15.28684254153983346214 -5.11457813354830914676 -5.11457813354830914676 -5.11457813354830914676 -2.57151203155042962223 -5.11457813354830914676 -10.20071033754407174854 -12.74377643954195349352 -7.65764423554619000356 -7.65764423554619000356 -10.20071033754407174854 -5.11457813354830914676 -7.65764423554619000356 -7.65764423554619000356 -10.20071033754407174854 -5.11457813354830914676 -5.11457813354830914676 -5.11457813354830914676 -7.65764423554619000356 -7.65764423554619000356 -0.02844592955254902911 -5.11457813354830914676 -5.11457813354830914676 -5.11457813354830914676 -5.11457813354830914676 -10.20071033754407174854 -2.57151203155042962223 -2.57151203155042962223 -0.02844592955254902911 -2.57151203155042962223 -0.02844592955254902911 -7.65764423554619000356 -7.65764423554619000356 -10.20071033754407174854 -10.20071033754407174854 -0.02844592955254902911 -0.02844592955254902911 -7.65764423554619000356 -2.57151203155042962223 -2.57151203155042962223 -7.65764423554619000356 -5.11457813354830914676 -10.20071033754407174854 -0.02844592955254902911 -0.02844592955254902911 -2.57151203155042962223 -2.57151203155042962223 -2.57151203155042962223 -5.11457813354830914676 -7.65764423554619000356 5.05768627444321250408 2.51462017244533120319 2.51462017244533120319 2.51462017244533120319 2.51462017244533120319 -2.57151203155042962223 -0.02844592955254902911 -2.57151203155042962223 -2.57151203155042962223 -0.02844592955254902911 -0.02844592955254902911 -0.02844592955254902911 -0.02844592955254902911 2.51462017244533120319 -0.02844592955254902911 -0.02844592955254902911 -2.57151203155042962223 2.51462017244533120319 2.51462017244533120319 2.51462017244533120319 -2.57151203155042962223 -0.02844592955254902911 -5.11457813354830914676 -2.57151203155042962223 -0.02844592955254902911 -0.02844592955254902911 -0.02844592955254902911 2.51462017244533120319 2.51462017244533120319 -0.02844592955254902911 -2.57151203155042962223 -0.02844592955254902911 5.05768627444321250408 -2.57151203155042962223 2.51462017244533120319 2.51462017244533120319 -2.57151203155042962223 -2.57151203155042962223 -0.02844592955254902911 2.51462017244533120319 2.51462017244533120319 5.05768627444321250408 5.05768627444321250408 2.51462017244533120319 -0.02844592955254902911 5.05768627444321250408 -2.57151203155042962223 5.05768627444321250408 7.60075237644109336088 5.05768627444321250408 5.05768627444321250408 7.60075237644109336088 5.05768627444321250408 2.51462017244533120319 -0.02844592955254902911 2.51462017244533120319 2.51462017244533120319 -0.02844592955254902911 7.60075237644109336088 -0.02844592955254902911 2.51462017244533120319 -2.57151203155042962223 -5.11457813354830914676 2.51462017244533120319 2.51462017244533120319 -0.02844592955254902911 2.51462017244533120319 -0.02844592955254902911 -0.02844592955254902911 -2.57151203155042962223 -5.11457813354830914676 2.51462017244533120319 7.60075237644109336088 -2.57151203155042962223 -0.02844592955254902911 -0.02844592955254902911 -0.02844592955254902911 -2.57151203155042962223 -2.57151203155042962223 -0.02844592955254902911 2.51462017244533120319 -0.02844592955254902911 -2.57151203155042962223 -5.11457813354830914676 -0.02844592955254902911 -5.11457813354830914676 2.51462017244533120319 -0.02844592955254902911 -0.02844592955254902911 -0.02844592955254902911 -0.02844592955254902911 -0.02844592955254902911 -2.57151203155042962223 -0.02844592955254902911 -7.65764423554619000356 -2.57151203155042962223 -2.57151203155042962223 2.51462017244533120319 -0.02844592955254902911 -0.02844592955254902911 -2.57151203155042962223 -0.02844592955254902911 -5.11457813354830914676 -2.57151203155042962223 2.51462017244533120319 5.05768627444321250408 -2.57151203155042962223 -0.02844592955254902911 -5.11457813354830914676 -0.02844592955254902911 -7.65764423554619000356 -5.11457813354830914676 2.51462017244533120319 -0.02844592955254902911 2.51462017244533120319 -2.57151203155042962223 -0.02844592955254902911 -2.57151203155042962223 -7.65764423554619000356 -7.65764423554619000356 -2.57151203155042962223 -0.02844592955254902911 -0.02844592955254902911 -0.02844592955254902911 -5.11457813354830914676 -2.57151203155042962223 -5.11457813354830914676 -0.02844592955254902911 -2.57151203155042962223 2.51462017244533120319 -0.02844592955254902911 -10.20071033754407174854 -0.02844592955254902911 -2.57151203155042962223 -2.57151203155042962223 -0.02844592955254902911 -2.57151203155042962223 -0.02844592955254902911 2.51462017244533120319 -0.02844592955254902911 -0.02844592955254902911 -2.57151203155042962223 2.51462017244533120319 -0.02844592955254902911 -2.57151203155042962223 -5.11457813354830914676 -2.57151203155042962223 -5.11457813354830914676 -0.02844592955254902911 -2.57151203155042962223 -2.57151203155042962223 -2.57151203155042962223 -0.02844592955254902911 2.51462017244533120319 -0.02844592955254902911 -2.57151203155042962223 -5.11457813354830914676 -0.02844592955254902911 -2.57151203155042962223 2.51462017244533120319 5.05768627444321250408 -2.57151203155042962223 2.51462017244533120319 -2.57151203155042962223 2.51462017244533120319 -5.11457813354830914676 -2.57151203155042962223 5.05768627444321250408 -0.02844592955254902911 -0.02844592955254902911 -5.11457813354830914676 -0.02844592955254902911 -2.57151203155042962223 -0.02844592955254902911 -5.11457813354830914676 2.51462017244533120319 -0.02844592955254902911 -0.02844592955254902911 -0.02844592955254902911 -2.57151203155042962223 -0.02844592955254902911 -2.57151203155042962223 -5.11457813354830914676 -0.02844592955254902911 -2.57151203155042962223 -5.11457813354830914676 5.05768627444321250408 -5.11457813354830914676 -5.11457813354830914676 -7.65764423554619000356 -7.65764423554619000356 -0.02844592955254902911 -0.02844592955254902911 -0.02844592955254902911 -2.57151203155042962223 -7.65764423554619000356 -5.11457813354830914676 -2.57151203155042962223 -5.11457813354830914676 -5.11457813354830914676 -5.11457813354830914676 -5.11457813354830914676 -0.02844592955254902911 -10.20071033754407174854 -7.65764423554619000356 -2.57151203155042962223 -7.65764423554619000356 -5.11457813354830914676 -0.02844592955254902911 2.51462017244533120319 -2.57151203155042962223 -7.65764423554619000356 -7.65764423554619000356 -7.65764423554619000356 -7.65764423554619000356 -2.57151203155042962223 -5.11457813354830914676 -7.65764423554619000356 -5.11457813354830914676 -5.11457813354830914676 -5.11457813354830914676 -10.20071033754407174854 -0.02844592955254902911 -7.65764423554619000356 -5.11457813354830914676 -7.65764423554619000356 -5.11457813354830914676 -10.20071033754407174854 -5.11457813354830914676 -10.20071033754407174854 -5.11457813354830914676 -5.11457813354830914676 2.51462017244533120319 -5.11457813354830914676 -7.65764423554619000356 -2.57151203155042962223 -5.11457813354830914676 -12.74377643954195349352 -5.11457813354830914676 -5.11457813354830914676 7.60075237644109336088 -5.11457813354830914676 -5.11457813354830914676 -5.11457813354830914676 -7.65764423554619000356 -5.11457813354830914676 -10.20071033754407174854 -7.65764423554619000356 -7.65764423554619000356 -2.57151203155042962223 -5.11457813354830914676 -5.11457813354830914676 -5.11457813354830914676 -10.20071033754407174854 -2.57151203155042962223 -2.57151203155042962223 -7.65764423554619000356 -5.11457813354830914676 -7.65764423554619000356 -7.65764423554619000356 -7.65764423554619000356 -5.11457813354830914676 -10.20071033754407174854 -5.11457813354830914676 -5.11457813354830914676 -2.57151203155042962223 -5.11457813354830914676 -7.65764423554619000356 -7.65764423554619000356 -10.20071033754407174854 -2.57151203155042962223 -2.57151203155042962223 -5.11457813354830914676 -7.65764423554619000356 -5.11457813354830914676 -5.11457813354830914676 -5.11457813354830914676 -7.65764423554619000356 -10.20071033754407174854 -5.11457813354830914676 -0.02844592955254902911 -0.02844592955254902911 -7.65764423554619000356 -10.20071033754407174854 -10.20071033754407174854 -7.65764423554619000356 -2.57151203155042962223 -2.57151203155042962223 -2.57151203155042962223 -2.57151203155042962223 -7.65764423554619000356 -5.11457813354830914676 -10.20071033754407174854 -0.02844592955254902911 2.51462017244533120319 -0.02844592955254902911 -2.57151203155042962223 -5.11457813354830914676 -10.20071033754407174854 -2.57151203155042962223 -2.57151203155042962223 -7.65764423554619000356 -0.02844592955254902911 2.51462017244533120319 2.51462017244533120319 -2.57151203155042962223 -2.57151203155042962223 -5.11457813354830914676 -7.65764423554619000356 -5.11457813354830914676 -0.02844592955254902911 2.51462017244533120319 -2.57151203155042962223 7.60075237644109336088 -2.57151203155042962223 -5.11457813354830914676 -7.65764423554619000356 -2.57151203155042962223 -5.11457813354830914676 -0.02844592955254902911 -0.02844592955254902911 -2.57151203155042962223 -10.20071033754407174854 -5.11457813354830914676 -2.57151203155042962223 -5.11457813354830914676 -2.57151203155042962223 -2.57151203155042962223 -2.57151203155042962223 -2.57151203155042962223 -2.57151203155042962223 -5.11457813354830914676 -5.11457813354830914676 -5.11457813354830914676 -7.65764423554619000356 -0.02844592955254902911 -0.02844592955254902911 -0.02844592955254902911 -7.65764423554619000356 -2.57151203155042962223 -7.65764423554619000356 -0.02844592955254902911 -2.57151203155042962223 -0.02844592955254902911 -0.02844592955254902911 5.05768627444321250408 -2.57151203155042962223 -0.02844592955254902911 -2.57151203155042962223 -2.57151203155042962223 -2.57151203155042962223 -2.57151203155042962223 2.51462017244533120319 2.51462017244533120319 -2.57151203155042962223 2.51462017244533120319 -0.02844592955254902911 -2.57151203155042962223 -7.65764423554619000356 -0.02844592955254902911 -2.57151203155042962223 -2.57151203155042962223 -0.02844592955254902911 -5.11457813354830914676 -2.57151203155042962223 -2.57151203155042962223 -0.02844592955254902911 2.51462017244533120319 2.51462017244533120319 -2.57151203155042962223 -0.02844592955254902911 -0.02844592955254902911 -7.65764423554619000356 -0.02844592955254902911 -0.02844592955254902911 2.51462017244533120319 5.05768627444321250408 2.51462017244533120319 -0.02844592955254902911 -5.11457813354830914676 -0.02844592955254902911 -0.02844592955254902911 5.05768627444321250408 12.68688458043685329812 2.51462017244533120319 5.05768627444321250408 5.05768627444321250408 -0.02844592955254902911 2.51462017244533120319 12.68688458043685329812 5.05768627444321250408 5.05768627444321250408 2.51462017244533120319 7.60075237644109336088 2.51462017244533120319 2.51462017244533120319 -0.02844592955254902911 2.51462017244533120319 10.14381847843897155315 5.05768627444321250408 7.60075237644109336088 -2.57151203155042962223 2.51462017244533120319 2.51462017244533120319 10.14381847843897155315 5.05768627444321250408 7.60075237644109336088 7.60075237644109336088 10.14381847843897155315 7.60075237644109336088 5.05768627444321250408 2.51462017244533120319 2.51462017244533120319 10.14381847843897155315 5.05768627444321250408 2.51462017244533120319 2.51462017244533120319 7.60075237644109336088 -2.57151203155042962223 -0.02844592955254902911 2.51462017244533120319 -2.57151203155042962223 5.05768627444321250408 5.05768627444321250408 7.60075237644109336088 7.60075237644109336088 2.51462017244533120319 2.51462017244533120319 7.60075237644109336088 2.51462017244533120319 5.05768627444321250408 -0.02844592955254902911 -0.02844592955254902911 5.05768627444321250408 5.05768627444321250408 5.05768627444321250408 2.51462017244533120319 7.60075237644109336088 5.05768627444321250408 2.51462017244533120319 5.05768627444321250408 5.05768627444321250408 7.60075237644109336088 5.05768627444321250408 7.60075237644109336088 5.05768627444321250408 5.05768627444321250408 2.51462017244533120319 7.60075237644109336088 5.05768627444321250408 2.51462017244533120319 -0.02844592955254902911 7.60075237644109336088 5.05768627444321250408 2.51462017244533120319 5.05768627444321250408 2.51462017244533120319 2.51462017244533120319 2.51462017244533120319 -0.02844592955254902911 2.51462017244533120319 7.60075237644109336088 2.51462017244533120319 5.05768627444321250408 -2.57151203155042962223 2.51462017244533120319 -2.57151203155042962223 5.05768627444321250408 -2.57151203155042962223 2.51462017244533120319 2.51462017244533120319 -2.57151203155042962223 -0.02844592955254902911 -2.57151203155042962223 -2.57151203155042962223 -2.57151203155042962223 2.51462017244533120319 -0.02844592955254902911 -0.02844592955254902911 2.51462017244533120319 -2.57151203155042962223 -0.02844592955254902911 -5.11457813354830914676 -5.11457813354830914676 -0.02844592955254902911 -5.11457813354830914676 -2.57151203155042962223 -0.02844592955254902911 -0.02844592955254902911 -2.57151203155042962223 -2.57151203155042962223 -7.65764423554619000356 -7.65764423554619000356 -0.02844592955254902911 -7.65764423554619000356 -2.57151203155042962223 -10.20071033754407174854 -5.11457813354830914676 -7.65764423554619000356 -7.65764423554619000356 -2.57151203155042962223 -2.57151203155042962223 -2.57151203155042962223 -2.57151203155042962223 -7.65764423554619000356 -5.11457813354830914676 2.51462017244533120319 -0.02844592955254902911 -2.57151203155042962223 -5.11457813354830914676 -2.57151203155042962223 -2.57151203155042962223 -0.02844592955254902911 2.51462017244533120319 -0.02844592955254902911 -2.57151203155042962223 -0.02844592955254902911 -5.11457813354830914676 -2.57151203155042962223 -2.57151203155042962223 -5.11457813354830914676 -0.02844592955254902911 -2.57151203155042962223 -5.11457813354830914676 2.51462017244533120319 -5.11457813354830914676 5.05768627444321250408 -0.02844592955254902911 -2.57151203155042962223 -5.11457813354830914676 -7.65764423554619000356 -0.02844592955254902911 2.51462017244533120319 2.51462017244533120319 2.51462017244533120319 -5.11457813354830914676 2.51462017244533120319 -0.02844592955254902911 -0.02844592955254902911 2.51462017244533120319 -2.57151203155042962223 2.51462017244533120319 -0.02844592955254902911 -2.57151203155042962223 2.51462017244533120319 -0.02844592955254902911 -2.57151203155042962223 5.05768627444321250408 -0.02844592955254902911 -0.02844592955254902911 2.51462017244533120319 -0.02844592955254902911 2.51462017244533120319 2.51462017244533120319 -0.02844592955254902911 10.14381847843897155315 2.51462017244533120319 -0.02844592955254902911 -2.57151203155042962223 2.51462017244533120319 -2.57151203155042962223 -0.02844592955254902911 -0.02844592955254902911 -0.02844592955254902911 5.05768627444321250408 -2.57151203155042962223 5.05768627444321250408 -2.57151203155042962223 -7.65764423554619000356 -7.65764423554619000356 2.51462017244533120319 -0.02844592955254902911 -0.02844592955254902911 -2.57151203155042962223 -5.11457813354830914676 -0.02844592955254902911 -0.02844592955254902911 -0.02844592955254902911 2.51462017244533120319 5.05768627444321250408 2.51462017244533120319 -0.02844592955254902911 -5.11457813354830914676 -5.11457813354830914676 -0.02844592955254902911 -2.57151203155042962223 -5.11457813354830914676 -0.02844592955254902911 2.51462017244533120319 -0.02844592955254902911 -5.11457813354830914676 2.51462017244533120319 -5.11457813354830914676 2.51462017244533120319 -0.02844592955254902911 -2.57151203155042962223 7.60075237644109336088 -2.57151203155042962223 -0.02844592955254902911 -2.57151203155042962223 -0.02844592955254902911 2.51462017244533120319 2.51462017244533120319 -0.02844592955254902911 -0.02844592955254902911 2.51462017244533120319 -2.57151203155042962223 -2.57151203155042962223 -5.11457813354830914676 -5.11457813354830914676 2.51462017244533120319 -2.57151203155042962223 -0.02844592955254902911 -2.57151203155042962223 -0.02844592955254902911 -0.02844592955254902911 2.51462017244533120319 5.05768627444321250408 2.51462017244533120319 2.51462017244533120319 5.05768627444321250408 -2.57151203155042962223 2.51462017244533120319 -2.57151203155042962223 -0.02844592955254902911 -2.57151203155042962223 5.05768627444321250408 7.60075237644109336088 5.05768627444321250408 -5.11457813354830914676 -0.02844592955254902911 -0.02844592955254902911 -0.02844592955254902911 5.05768627444321250408 2.51462017244533120319 7.60075237644109336088 -0.02844592955254902911 2.51462017244533120319 -0.02844592955254902911 -5.11457813354830914676 -2.57151203155042962223 2.51462017244533120319 -0.02844592955254902911 -0.02844592955254902911 -2.57151203155042962223 -0.02844592955254902911 -5.11457813354830914676 -2.57151203155042962223 -2.57151203155042962223 5.05768627444321250408 2.51462017244533120319 -2.57151203155042962223 -0.02844592955254902911 2.51462017244533120319 2.51462017244533120319 -5.11457813354830914676 -2.57151203155042962223 -5.11457813354830914676 2.51462017244533120319 -0.02844592955254902911 -2.57151203155042962223 5.05768627444321250408 -7.65764423554619000356 -5.11457813354830914676 2.51462017244533120319 2.51462017244533120319 5.05768627444321250408 2.51462017244533120319 -2.57151203155042962223 -0.02844592955254902911 -2.57151203155042962223 -0.02844592955254902911 2.51462017244533120319 -0.02844592955254902911 -0.02844592955254902911 2.51462017244533120319 -0.02844592955254902911 -0.02844592955254902911 -5.11457813354830914676 5.05768627444321250408 2.51462017244533120319 -0.02844592955254902911 5.05768627444321250408 7.60075237644109336088 -0.02844592955254902911 5.05768627444321250408 -0.02844592955254902911 7.60075237644109336088 -2.57151203155042962223 -2.57151203155042962223 2.51462017244533120319 2.51462017244533120319 -0.02844592955254902911 -2.57151203155042962223 -2.57151203155042962223 -0.02844592955254902911 2.51462017244533120319 2.51462017244533120319 5.05768627444321250408 -2.57151203155042962223 2.51462017244533120319 2.51462017244533120319 -0.02844592955254902911 -0.02844592955254902911 -0.02844592955254902911 -5.11457813354830914676 -0.02844592955254902911 -5.11457813354830914676 -0.02844592955254902911 2.51462017244533120319 -2.57151203155042962223 2.51462017244533120319 -0.02844592955254902911 -0.02844592955254902911 -0.02844592955254902911 -0.02844592955254902911 -2.57151203155042962223 2.51462017244533120319 10.14381847843897155315 -0.02844592955254902911 5.05768627444321250408 2.51462017244533120319 -2.57151203155042962223 -0.02844592955254902911 2.51462017244533120319 5.05768627444321250408 5.05768627444321250408 10.14381847843897155315 -7.65764423554619000356 2.51462017244533120319 2.51462017244533120319 2.51462017244533120319 7.60075237644109336088 5.05768627444321250408 2.51462017244533120319 5.05768627444321250408 -0.02844592955254902911 7.60075237644109336088 2.51462017244533120319 7.60075237644109336088 7.60075237644109336088 2.51462017244533120319 -5.11457813354830914676 -2.57151203155042962223 5.05768627444321250408 7.60075237644109336088 7.60075237644109336088 7.60075237644109336088 2.51462017244533120319 7.60075237644109336088 10.14381847843897155315 10.14381847843897155315 2.51462017244533120319 2.51462017244533120319 5.05768627444321250408 7.60075237644109336088 2.51462017244533120319 2.51462017244533120319 -0.02844592955254902911 5.05768627444321250408 7.60075237644109336088 7.60075237644109336088 5.05768627444321250408 2.51462017244533120319 5.05768627444321250408 5.05768627444321250408 5.05768627444321250408 -0.02844592955254902911 -0.02844592955254902911 -0.02844592955254902911 -0.02844592955254902911 7.60075237644109336088 5.05768627444321250408 5.05768627444321250408 2.51462017244533120319 -2.57151203155042962223 -0.02844592955254902911 -2.57151203155042962223 -0.02844592955254902911 -0.02844592955254902911 -0.02844592955254902911 2.51462017244533120319 5.05768627444321250408 -5.11457813354830914676 -2.57151203155042962223 -0.02844592955254902911 -2.57151203155042962223 2.51462017244533120319 -2.57151203155042962223 2.51462017244533120319 5.05768627444321250408 -5.11457813354830914676 2.51462017244533120319 -2.57151203155042962223 -0.02844592955254902911 5.05768627444321250408 -5.11457813354830914676 -0.02844592955254902911 5.05768627444321250408 5.05768627444321250408 -2.57151203155042962223 -0.02844592955254902911 2.51462017244533120319 -0.02844592955254902911 -0.02844592955254902911 -0.02844592955254902911 7.60075237644109336088 2.51462017244533120319 2.51462017244533120319 -0.02844592955254902911 -5.11457813354830914676 2.51462017244533120319 2.51462017244533120319 7.60075237644109336088 2.51462017244533120319 -2.57151203155042962223 2.51462017244533120319 -5.11457813354830914676 -5.11457813354830914676 -2.57151203155042962223 -5.11457813354830914676 2.51462017244533120319 2.51462017244533120319 2.51462017244533120319 -2.57151203155042962223 -2.57151203155042962223 -5.11457813354830914676 -7.65764423554619000356 2.51462017244533120319 -5.11457813354830914676 2.51462017244533120319 -0.02844592955254902911 -5.11457813354830914676 -2.57151203155042962223 -5.11457813354830914676 -0.02844592955254902911 -2.57151203155042962223 -2.57151203155042962223 -0.02844592955254902911 2.51462017244533120319 -5.11457813354830914676 -7.65764423554619000356 -2.57151203155042962223 -2.57151203155042962223 2.51462017244533120319 -0.02844592955254902911 2.51462017244533120319 -2.57151203155042962223 -7.65764423554619000356 -0.02844592955254902911 -2.57151203155042962223 -0.02844592955254902911 -2.57151203155042962223 -0.02844592955254902911 -5.11457813354830914676 -5.11457813354830914676 -5.11457813354830914676 -5.11457813354830914676 -5.11457813354830914676 -2.57151203155042962223 -2.57151203155042962223 -5.11457813354830914676 5.05768627444321250408 2.51462017244533120319 2.51462017244533120319 -2.57151203155042962223 -2.57151203155042962223 -0.02844592955254902911 -2.57151203155042962223 -10.20071033754407174854 5.05768627444321250408 -5.11457813354830914676 -5.11457813354830914676 2.51462017244533120319 -2.57151203155042962223 -2.57151203155042962223 -2.57151203155042962223 5.05768627444321250408 -2.57151203155042962223 -2.57151203155042962223 -5.11457813354830914676 -0.02844592955254902911 -0.02844592955254902911 -2.57151203155042962223 5.05768627444321250408 -2.57151203155042962223 5.05768627444321250408 -0.02844592955254902911 -0.02844592955254902911 -2.57151203155042962223 -2.57151203155042962223 -5.11457813354830914676 5.05768627444321250408 -5.11457813354830914676 -0.02844592955254902911 -0.02844592955254902911 -2.57151203155042962223 -5.11457813354830914676 -2.57151203155042962223 2.51462017244533120319 -2.57151203155042962223 2.51462017244533120319 5.05768627444321250408 -7.65764423554619000356 2.51462017244533120319 -0.02844592955254902911 5.05768627444321250408 -0.02844592955254902911 2.51462017244533120319 -0.02844592955254902911 -2.57151203155042962223 -2.57151203155042962223 -5.11457813354830914676 7.60075237644109336088 -0.02844592955254902911 7.60075237644109336088 -0.02844592955254902911 -0.02844592955254902911 2.51462017244533120319 -2.57151203155042962223 -5.11457813354830914676 -7.65764423554619000356 -0.02844592955254902911 -0.02844592955254902911 -0.02844592955254902911 -0.02844592955254902911 -0.02844592955254902911 2.51462017244533120319 -2.57151203155042962223 -2.57151203155042962223 2.51462017244533120319 -0.02844592955254902911 -2.57151203155042962223 -5.11457813354830914676 -7.65764423554619000356 -5.11457813354830914676 -2.57151203155042962223 5.05768627444321250408 -5.11457813354830914676 -0.02844592955254902911 -2.57151203155042962223 -2.57151203155042962223 -5.11457813354830914676 -0.02844592955254902911 -2.57151203155042962223 -5.11457813354830914676 -5.11457813354830914676 -7.65764423554619000356 -5.11457813354830914676 -5.11457813354830914676 -7.65764423554619000356 -7.65764423554619000356 -2.57151203155042962223 -7.65764423554619000356 -10.20071033754407174854 -7.65764423554619000356 -7.65764423554619000356 -10.20071033754407174854 -5.11457813354830914676 -10.20071033754407174854 -2.57151203155042962223 2.51462017244533120319 -10.20071033754407174854 -5.11457813354830914676 -5.11457813354830914676 -10.20071033754407174854 -10.20071033754407174854 -10.20071033754407174854 -5.11457813354830914676 -2.57151203155042962223 -2.57151203155042962223 -0.02844592955254902911 -2.57151203155042962223 -10.20071033754407174854 -7.65764423554619000356 -2.57151203155042962223 -0.02844592955254902911 -2.57151203155042962223 -0.02844592955254902911 -10.20071033754407174854 -7.65764423554619000356 -7.65764423554619000356 -7.65764423554619000356 -7.65764423554619000356 -0.02844592955254902911 -10.20071033754407174854 -5.11457813354830914676 -5.11457813354830914676 -2.57151203155042962223 -5.11457813354830914676 -7.65764423554619000356 -0.02844592955254902911 -2.57151203155042962223 -5.11457813354830914676 -2.57151203155042962223 -0.02844592955254902911 -10.20071033754407174854 -5.11457813354830914676 -5.11457813354830914676 -5.11457813354830914676 -2.57151203155042962223 -5.11457813354830914676 -0.02844592955254902911 -2.57151203155042962223 -5.11457813354830914676 -10.20071033754407174854 -2.57151203155042962223 -2.57151203155042962223 -2.57151203155042962223 -2.57151203155042962223 -2.57151203155042962223 -5.11457813354830914676 -7.65764423554619000356 -12.74377643954195349352 -2.57151203155042962223 -5.11457813354830914676 -5.11457813354830914676 -7.65764423554619000356 -7.65764423554619000356 -7.65764423554619000356 -10.20071033754407174854 -7.65764423554619000356 -5.11457813354830914676 -2.57151203155042962223 -5.11457813354830914676 -5.11457813354830914676 -10.20071033754407174854 -7.65764423554619000356 -5.11457813354830914676 -10.20071033754407174854 -5.11457813354830914676 -5.11457813354830914676 -2.57151203155042962223 -7.65764423554619000356 -7.65764423554619000356 -10.20071033754407174854 -10.20071033754407174854 -7.65764423554619000356 -7.65764423554619000356 -5.11457813354830914676 -12.74377643954195349352 -5.11457813354830914676 -7.65764423554619000356 -12.74377643954195349352 -7.65764423554619000356 -7.65764423554619000356 -5.11457813354830914676 -7.65764423554619000356 -5.11457813354830914676 -10.20071033754407174854 -7.65764423554619000356 -7.65764423554619000356 -10.20071033754407174854 -5.11457813354830914676 -5.11457813354830914676 -5.11457813354830914676 -2.57151203155042962223 -5.11457813354830914676 -10.20071033754407174854 -10.20071033754407174854 -10.20071033754407174854 -2.57151203155042962223 -5.11457813354830914676 -7.65764423554619000356 -7.65764423554619000356 -7.65764423554619000356 -10.20071033754407174854 -5.11457813354830914676 -2.57151203155042962223 -2.57151203155042962223 -2.57151203155042962223 -5.11457813354830914676 -5.11457813354830914676 -7.65764423554619000356 -2.57151203155042962223 -5.11457813354830914676 -7.65764423554619000356 -2.57151203155042962223 -7.65764423554619000356 -2.57151203155042962223 -5.11457813354830914676 -0.02844592955254902911 -5.11457813354830914676 2.51462017244533120319 -0.02844592955254902911 -5.11457813354830914676 -2.57151203155042962223 -0.02844592955254902911 -5.11457813354830914676 -2.57151203155042962223 2.51462017244533120319 -2.57151203155042962223 2.51462017244533120319 -2.57151203155042962223 -2.57151203155042962223 -0.02844592955254902911 -7.65764423554619000356 -7.65764423554619000356 -10.20071033754407174854 -5.11457813354830914676 -2.57151203155042962223 -0.02844592955254902911 -7.65764423554619000356 -2.57151203155042962223 -2.57151203155042962223 -5.11457813354830914676 -5.11457813354830914676 -5.11457813354830914676 -0.02844592955254902911 -5.11457813354830914676 -0.02844592955254902911 -2.57151203155042962223 -2.57151203155042962223 -7.65764423554619000356 -5.11457813354830914676 -12.74377643954195349352 -7.65764423554619000356 -10.20071033754407174854 -5.11457813354830914676 -2.57151203155042962223 -0.02844592955254902911 -5.11457813354830914676 -10.20071033754407174854 -10.20071033754407174854 -2.57151203155042962223 -2.57151203155042962223 -5.11457813354830914676 -7.65764423554619000356 -5.11457813354830914676 -7.65764423554619000356 -12.74377643954195349352 -10.20071033754407174854 -2.57151203155042962223 -7.65764423554619000356 -5.11457813354830914676 -5.11457813354830914676 -2.57151203155042962223 -7.65764423554619000356 -5.11457813354830914676 -7.65764423554619000356 -5.11457813354830914676 -2.57151203155042962223 -2.57151203155042962223 2.51462017244533120319 -5.11457813354830914676 -2.57151203155042962223 -7.65764423554619000356 -5.11457813354830914676 -5.11457813354830914676 2.51462017244533120319 -5.11457813354830914676 -0.02844592955254902911 -2.57151203155042962223 -5.11457813354830914676 -7.65764423554619000356 -5.11457813354830914676 -5.11457813354830914676 -0.02844592955254902911 5.05768627444321250408 7.60075237644109336088 2.51462017244533120319 -0.02844592955254902911 2.51462017244533120319 -5.11457813354830914676 5.05768627444321250408 -0.02844592955254902911 5.05768627444321250408 2.51462017244533120319 -0.02844592955254902911 -5.11457813354830914676 -2.57151203155042962223 5.05768627444321250408 2.51462017244533120319 10.14381847843897155315 -0.02844592955254902911 -2.57151203155042962223 10.14381847843897155315 2.51462017244533120319 -0.02844592955254902911 2.51462017244533120319 -0.02844592955254902911 5.05768627444321250408 -2.57151203155042962223 5.05768627444321250408 2.51462017244533120319 2.51462017244533120319 5.05768627444321250408 5.05768627444321250408 2.51462017244533120319 5.05768627444321250408 -0.02844592955254902911 5.05768627444321250408 -0.02844592955254902911 -0.02844592955254902911 5.05768627444321250408 2.51462017244533120319 5.05768627444321250408 7.60075237644109336088 -0.02844592955254902911 -0.02844592955254902911 2.51462017244533120319 2.51462017244533120319 5.05768627444321250408 2.51462017244533120319 5.05768627444321250408 2.51462017244533120319 2.51462017244533120319 -5.11457813354830914676 -5.11457813354830914676 2.51462017244533120319 5.05768627444321250408 5.05768627444321250408 5.05768627444321250408 -0.02844592955254902911 -0.02844592955254902911 -0.02844592955254902911 -0.02844592955254902911 -2.57151203155042962223 5.05768627444321250408 -7.65764423554619000356 -0.02844592955254902911 2.51462017244533120319 -5.11457813354830914676 -2.57151203155042962223 -5.11457813354830914676 5.05768627444321250408 2.51462017244533120319 -2.57151203155042962223 -0.02844592955254902911 -2.57151203155042962223 -0.02844592955254902911 -2.57151203155042962223 -0.02844592955254902911 5.05768627444321250408 5.05768627444321250408 2.51462017244533120319 -0.02844592955254902911 2.51462017244533120319 2.51462017244533120319 2.51462017244533120319 -2.57151203155042962223 2.51462017244533120319 -2.57151203155042962223 -2.57151203155042962223 -5.11457813354830914676 5.05768627444321250408 -0.02844592955254902911 -0.02844592955254902911 -7.65764423554619000356 2.51462017244533120319 -2.57151203155042962223 -0.02844592955254902911 -2.57151203155042962223 2.51462017244533120319 -2.57151203155042962223 -2.57151203155042962223 -2.57151203155042962223 -0.02844592955254902911 2.51462017244533120319 5.05768627444321250408 -0.02844592955254902911 -0.02844592955254902911 -0.02844592955254902911 -2.57151203155042962223 -5.11457813354830914676 -0.02844592955254902911 5.05768627444321250408 7.60075237644109336088 -2.57151203155042962223 2.51462017244533120319 -2.57151203155042962223 2.51462017244533120319 -2.57151203155042962223 -2.57151203155042962223 5.05768627444321250408 -5.11457813354830914676 -0.02844592955254902911 2.51462017244533120319 -0.02844592955254902911 -0.02844592955254902911 -0.02844592955254902911 -5.11457813354830914676 -0.02844592955254902911 -0.02844592955254902911 5.05768627444321250408 7.60075237644109336088 2.51462017244533120319 -0.02844592955254902911 -0.02844592955254902911 -0.02844592955254902911 -2.57151203155042962223 -2.57151203155042962223 5.05768627444321250408 -0.02844592955254902911 2.51462017244533120319 -5.11457813354830914676 -2.57151203155042962223 -2.57151203155042962223 -2.57151203155042962223 5.05768627444321250408 -0.02844592955254902911 5.05768627444321250408 7.60075237644109336088 7.60075237644109336088 5.05768627444321250408 2.51462017244533120319 -2.57151203155042962223 7.60075237644109336088 -0.02844592955254902911 2.51462017244533120319 -0.02844592955254902911 2.51462017244533120319 2.51462017244533120319 -0.02844592955254902911 -2.57151203155042962223 2.51462017244533120319 2.51462017244533120319 5.05768627444321250408 7.60075237644109336088 2.51462017244533120319 -0.02844592955254902911 2.51462017244533120319 10.14381847843897155315 2.51462017244533120319 10.14381847843897155315 5.05768627444321250408 2.51462017244533120319 5.05768627444321250408 -2.57151203155042962223 5.05768627444321250408 5.05768627444321250408 5.05768627444321250408 7.60075237644109336088 5.05768627444321250408 10.14381847843897155315 5.05768627444321250408 2.51462017244533120319 2.51462017244533120319 5.05768627444321250408 7.60075237644109336088 5.05768627444321250408 10.14381847843897155315 5.05768627444321250408 5.05768627444321250408 5.05768627444321250408 2.51462017244533120319 -0.02844592955254902911 10.14381847843897155315 5.05768627444321250408 5.05768627444321250408 5.05768627444321250408 2.51462017244533120319 5.05768627444321250408 2.51462017244533120319 10.14381847843897155315 7.60075237644109336088 5.05768627444321250408 -0.02844592955254902911 5.05768627444321250408 -0.02844592955254902911 2.51462017244533120319 5.05768627444321250408 5.05768627444321250408 2.51462017244533120319 -0.02844592955254902911 -0.02844592955254902911 -2.57151203155042962223 2.51462017244533120319 -0.02844592955254902911 5.05768627444321250408 -0.02844592955254902911 -0.02844592955254902911 -2.57151203155042962223 -0.02844592955254902911 5.05768627444321250408 -2.57151203155042962223 -0.02844592955254902911 2.51462017244533120319 -0.02844592955254902911 -2.57151203155042962223 -2.57151203155042962223 -0.02844592955254902911 -2.57151203155042962223 2.51462017244533120319 -5.11457813354830914676 -2.57151203155042962223 -2.57151203155042962223 -0.02844592955254902911 -0.02844592955254902911 5.05768627444321250408 2.51462017244533120319 2.51462017244533120319 2.51462017244533120319 -2.57151203155042962223 -0.02844592955254902911 -5.11457813354830914676 2.51462017244533120319 -0.02844592955254902911 -0.02844592955254902911 -2.57151203155042962223 5.05768627444321250408 -0.02844592955254902911 -0.02844592955254902911 -5.11457813354830914676 -0.02844592955254902911 2.51462017244533120319 -2.57151203155042962223 2.51462017244533120319 -0.02844592955254902911 2.51462017244533120319 5.05768627444321250408 -2.57151203155042962223 -5.11457813354830914676 -2.57151203155042962223 2.51462017244533120319 5.05768627444321250408 -0.02844592955254902911 2.51462017244533120319 -0.02844592955254902911 -0.02844592955254902911 2.51462017244533120319 -0.02844592955254902911 7.60075237644109336088 2.51462017244533120319 5.05768627444321250408 5.05768627444321250408 -5.11457813354830914676 2.51462017244533120319 2.51462017244533120319 5.05768627444321250408 2.51462017244533120319 -0.02844592955254902911 2.51462017244533120319 2.51462017244533120319 -0.02844592955254902911 5.05768627444321250408 5.05768627444321250408 7.60075237644109336088 2.51462017244533120319 -0.02844592955254902911 2.51462017244533120319 2.51462017244533120319 -0.02844592955254902911 2.51462017244533120319 7.60075237644109336088 2.51462017244533120319 2.51462017244533120319 2.51462017244533120319 -0.02844592955254902911 -0.02844592955254902911 -2.57151203155042962223 -0.02844592955254902911 -0.02844592955254902911 -2.57151203155042962223 -2.57151203155042962223 2.51462017244533120319 2.51462017244533120319 2.51462017244533120319 5.05768627444321250408 2.51462017244533120319 5.05768627444321250408 -2.57151203155042962223 2.51462017244533120319 5.05768627444321250408 -5.11457813354830914676 -2.57151203155042962223 2.51462017244533120319 7.60075237644109336088 -2.57151203155042962223 -2.57151203155042962223 -0.02844592955254902911 2.51462017244533120319 5.05768627444321250408 7.60075237644109336088 -0.02844592955254902911 5.05768627444321250408 -2.57151203155042962223 5.05768627444321250408 -2.57151203155042962223 2.51462017244533120319 5.05768627444321250408 -2.57151203155042962223 -0.02844592955254902911 5.05768627444321250408 7.60075237644109336088 5.05768627444321250408 5.05768627444321250408 5.05768627444321250408 2.51462017244533120319 10.14381847843897155315 5.05768627444321250408 -2.57151203155042962223 -0.02844592955254902911 5.05768627444321250408 -0.02844592955254902911 10.14381847843897155315 7.60075237644109336088 2.51462017244533120319 2.51462017244533120319 2.51462017244533120319 2.51462017244533120319 2.51462017244533120319 5.05768627444321250408 7.60075237644109336088 7.60075237644109336088 5.05768627444321250408 5.05768627444321250408 5.05768627444321250408 2.51462017244533120319 5.05768627444321250408 2.51462017244533120319 5.05768627444321250408 5.05768627444321250408 5.05768627444321250408 2.51462017244533120319 5.05768627444321250408 10.14381847843897155315 7.60075237644109336088 7.60075237644109336088 7.60075237644109336088 12.68688458043685329812 7.60075237644109336088 10.14381847843897155315 5.05768627444321250408 12.68688458043685329812 7.60075237644109336088 10.14381847843897155315 7.60075237644109336088 12.68688458043685329812 12.68688458043685329812 7.60075237644109336088 5.05768627444321250408 7.60075237644109336088 15.22995068243473326675 10.14381847843897155315 12.68688458043685329812 12.68688458043685329812 12.68688458043685329812 12.68688458043685329812 10.14381847843897155315 10.14381847843897155315 5.05768627444321250408 17.77301678443261323537 10.14381847843897155315 7.60075237644109336088 12.68688458043685329812 15.22995068243473326675 2.51462017244533120319 15.22995068243473326675 15.22995068243473326675 10.14381847843897155315 12.68688458043685329812 12.68688458043685329812 7.60075237644109336088 10.14381847843897155315 10.14381847843897155315 17.77301678443261323537 20.31608288643049675670 12.68688458043685329812 10.14381847843897155315 12.68688458043685329812 10.14381847843897155315 10.14381847843897155315 7.60075237644109336088 10.14381847843897155315 12.68688458043685329812 12.68688458043685329812 7.60075237644109336088 12.68688458043685329812 7.60075237644109336088 5.05768627444321250408 5.05768627444321250408 7.60075237644109336088 10.14381847843897155315 15.22995068243473326675 5.05768627444321250408 7.60075237644109336088 2.51462017244533120319 5.05768627444321250408 -0.02844592955254902911 5.05768627444321250408 5.05768627444321250408 5.05768627444321250408 5.05768627444321250408 7.60075237644109336088 7.60075237644109336088 12.68688458043685329812 -0.02844592955254902911 -0.02844592955254902911 2.51462017244533120319 5.05768627444321250408 5.05768627444321250408 5.05768627444321250408 -2.57151203155042962223 -0.02844592955254902911 5.05768627444321250408 2.51462017244533120319 -0.02844592955254902911 -0.02844592955254902911 -0.02844592955254902911 2.51462017244533120319 7.60075237644109336088 -0.02844592955254902911 -2.57151203155042962223 2.51462017244533120319 2.51462017244533120319 5.05768627444321250408 5.05768627444321250408 5.05768627444321250408 5.05768627444321250408 -0.02844592955254902911 2.51462017244533120319 -2.57151203155042962223 2.51462017244533120319 12.68688458043685329812 5.05768627444321250408 2.51462017244533120319 -0.02844592955254902911 -0.02844592955254902911 -5.11457813354830914676 -0.02844592955254902911 5.05768627444321250408 -0.02844592955254902911 -0.02844592955254902911 -0.02844592955254902911 2.51462017244533120319 2.51462017244533120319 -0.02844592955254902911 -5.11457813354830914676 2.51462017244533120319 -0.02844592955254902911 7.60075237644109336088 2.51462017244533120319 -2.57151203155042962223 5.05768627444321250408 -0.02844592955254902911 7.60075237644109336088 2.51462017244533120319 5.05768627444321250408 -0.02844592955254902911 -0.02844592955254902911 2.51462017244533120319 2.51462017244533120319 2.51462017244533120319 -0.02844592955254902911 5.05768627444321250408 5.05768627444321250408 -0.02844592955254902911 7.60075237644109336088 -0.02844592955254902911 -2.57151203155042962223 -7.65764423554619000356 -0.02844592955254902911 7.60075237644109336088 5.05768627444321250408 -0.02844592955254902911 2.51462017244533120319 2.51462017244533120319 7.60075237644109336088 -0.02844592955254902911 2.51462017244533120319 -0.02844592955254902911 -0.02844592955254902911 5.05768627444321250408 -5.11457813354830914676 2.51462017244533120319 -0.02844592955254902911 -0.02844592955254902911 -0.02844592955254902911 5.05768627444321250408 -0.02844592955254902911 7.60075237644109336088 2.51462017244533120319 -2.57151203155042962223 5.05768627444321250408 -7.65764423554619000356 -2.57151203155042962223 -0.02844592955254902911 5.05768627444321250408 2.51462017244533120319 2.51462017244533120319 5.05768627444321250408 -2.57151203155042962223 -5.11457813354830914676 -0.02844592955254902911 2.51462017244533120319 5.05768627444321250408 5.05768627444321250408 -0.02844592955254902911 -0.02844592955254902911 2.51462017244533120319 -0.02844592955254902911 -0.02844592955254902911 -0.02844592955254902911 -7.65764423554619000356 7.60075237644109336088 7.60075237644109336088 2.51462017244533120319 -0.02844592955254902911 -0.02844592955254902911 -0.02844592955254902911 -0.02844592955254902911 -2.57151203155042962223 -2.57151203155042962223 -0.02844592955254902911 -2.57151203155042962223 -5.11457813354830914676 -0.02844592955254902911 2.51462017244533120319 -2.57151203155042962223 -2.57151203155042962223 5.05768627444321250408 2.51462017244533120319 2.51462017244533120319 -0.02844592955254902911 -2.57151203155042962223 -0.02844592955254902911 2.51462017244533120319 -0.02844592955254902911 5.05768627444321250408 5.05768627444321250408 -5.11457813354830914676 -2.57151203155042962223 -2.57151203155042962223 -2.57151203155042962223 -0.02844592955254902911 2.51462017244533120319 5.05768627444321250408 7.60075237644109336088 -0.02844592955254902911 -0.02844592955254902911 -5.11457813354830914676 -0.02844592955254902911 -0.02844592955254902911 -0.02844592955254902911 12.68688458043685329812 7.60075237644109336088 2.51462017244533120319 -0.02844592955254902911 2.51462017244533120319 -0.02844592955254902911 5.05768627444321250408 2.51462017244533120319 2.51462017244533120319 -2.57151203155042962223 -0.02844592955254902911 -2.57151203155042962223 -0.02844592955254902911 -2.57151203155042962223 2.51462017244533120319 5.05768627444321250408 5.05768627444321250408 5.05768627444321250408 2.51462017244533120319 5.05768627444321250408 -0.02844592955254902911 -5.11457813354830914676 2.51462017244533120319 -2.57151203155042962223 -0.02844592955254902911 -0.02844592955254902911 2.51462017244533120319 -0.02844592955254902911 -0.02844592955254902911 2.51462017244533120319 -2.57151203155042962223 -5.11457813354830914676 -5.11457813354830914676 2.51462017244533120319 -5.11457813354830914676 2.51462017244533120319 -2.57151203155042962223 2.51462017244533120319 -5.11457813354830914676 -5.11457813354830914676 -2.57151203155042962223 -7.65764423554619000356 -2.57151203155042962223 -2.57151203155042962223 -2.57151203155042962223 -0.02844592955254902911 -5.11457813354830914676 -7.65764423554619000356 -5.11457813354830914676 -5.11457813354830914676 -2.57151203155042962223 -2.57151203155042962223 -2.57151203155042962223 -2.57151203155042962223 -5.11457813354830914676 -7.65764423554619000356 -5.11457813354830914676 -5.11457813354830914676 -2.57151203155042962223 5.05768627444321250408 -5.11457813354830914676 5.05768627444321250408 -2.57151203155042962223 -2.57151203155042962223 -7.65764423554619000356 -2.57151203155042962223 -5.11457813354830914676 -0.02844592955254902911 2.51462017244533120319 -0.02844592955254902911 -2.57151203155042962223 -7.65764423554619000356 -7.65764423554619000356 -7.65764423554619000356 -5.11457813354830914676 -0.02844592955254902911 5.05768627444321250408 -0.02844592955254902911 -0.02844592955254902911 -2.57151203155042962223 -0.02844592955254902911 2.51462017244533120319 -0.02844592955254902911 -2.57151203155042962223 2.51462017244533120319 -0.02844592955254902911 -0.02844592955254902911 -2.57151203155042962223 -7.65764423554619000356 -5.11457813354830914676 -2.57151203155042962223 -0.02844592955254902911 -0.02844592955254902911 -2.57151203155042962223 -2.57151203155042962223 -5.11457813354830914676 -2.57151203155042962223 -2.57151203155042962223 2.51462017244533120319 2.51462017244533120319 -0.02844592955254902911 -0.02844592955254902911 -5.11457813354830914676 -2.57151203155042962223 -0.02844592955254902911 -0.02844592955254902911 -2.57151203155042962223 -0.02844592955254902911 5.05768627444321250408 2.51462017244533120319 -2.57151203155042962223 -0.02844592955254902911 2.51462017244533120319 2.51462017244533120319 5.05768627444321250408 -2.57151203155042962223 -2.57151203155042962223 -0.02844592955254902911 5.05768627444321250408 -5.11457813354830914676 2.51462017244533120319 2.51462017244533120319 2.51462017244533120319 -0.02844592955254902911 2.51462017244533120319 -0.02844592955254902911 2.51462017244533120319 5.05768627444321250408 -0.02844592955254902911 5.05768627444321250408 -2.57151203155042962223 -2.57151203155042962223 -0.02844592955254902911 2.51462017244533120319 -0.02844592955254902911 7.60075237644109336088 -0.02844592955254902911 5.05768627444321250408 2.51462017244533120319 2.51462017244533120319 7.60075237644109336088 -0.02844592955254902911 2.51462017244533120319 5.05768627444321250408 -2.57151203155042962223 2.51462017244533120319 -5.11457813354830914676 -7.65764423554619000356 -0.02844592955254902911 -2.57151203155042962223 -7.65764423554619000356 -5.11457813354830914676 -0.02844592955254902911 -0.02844592955254902911 -5.11457813354830914676 -2.57151203155042962223 -5.11457813354830914676 -0.02844592955254902911 -5.11457813354830914676 -0.02844592955254902911 -2.57151203155042962223 -5.11457813354830914676 -15.28684254153983346214 -2.57151203155042962223 -5.11457813354830914676 -5.11457813354830914676 -2.57151203155042962223 -5.11457813354830914676 -2.57151203155042962223 -7.65764423554619000356 -7.65764423554619000356 -7.65764423554619000356 -2.57151203155042962223 -2.57151203155042962223 -2.57151203155042962223 -7.65764423554619000356 -5.11457813354830914676 -7.65764423554619000356 -5.11457813354830914676 -2.57151203155042962223 -2.57151203155042962223 -2.57151203155042962223 -0.02844592955254902911 -0.02844592955254902911 -7.65764423554619000356 -5.11457813354830914676 -12.74377643954195349352 -2.57151203155042962223 -2.57151203155042962223 -5.11457813354830914676 -2.57151203155042962223 -2.57151203155042962223 -2.57151203155042962223 -10.20071033754407174854 -5.11457813354830914676 -2.57151203155042962223 -5.11457813354830914676 -2.57151203155042962223 -5.11457813354830914676 -5.11457813354830914676 -10.20071033754407174854 -5.11457813354830914676 -0.02844592955254902911 -5.11457813354830914676 -5.11457813354830914676 2.51462017244533120319 -2.57151203155042962223 -2.57151203155042962223 -2.57151203155042962223 -2.57151203155042962223 -5.11457813354830914676 -7.65764423554619000356 5.05768627444321250408 -2.57151203155042962223 -5.11457813354830914676 -2.57151203155042962223 -2.57151203155042962223 -5.11457813354830914676 -5.11457813354830914676 -5.11457813354830914676 -2.57151203155042962223 -2.57151203155042962223 5.05768627444321250408 -2.57151203155042962223 -5.11457813354830914676 -5.11457813354830914676 -5.11457813354830914676 -7.65764423554619000356 2.51462017244533120319 -0.02844592955254902911 -0.02844592955254902911 -5.11457813354830914676 -7.65764423554619000356 -5.11457813354830914676 -0.02844592955254902911 2.51462017244533120319 5.05768627444321250408 2.51462017244533120319 -0.02844592955254902911 2.51462017244533120319 -0.02844592955254902911 -0.02844592955254902911 -0.02844592955254902911 5.05768627444321250408 7.60075237644109336088 2.51462017244533120319 5.05768627444321250408 -0.02844592955254902911 5.05768627444321250408 -0.02844592955254902911 2.51462017244533120319 -2.57151203155042962223 2.51462017244533120319 -0.02844592955254902911 7.60075237644109336088 -0.02844592955254902911 -2.57151203155042962223 5.05768627444321250408 -2.57151203155042962223 7.60075237644109336088 5.05768627444321250408 5.05768627444321250408 -0.02844592955254902911 2.51462017244533120319 5.05768627444321250408 7.60075237644109336088 5.05768627444321250408 12.68688458043685329812 5.05768627444321250408 5.05768627444321250408 12.68688458043685329812 -0.02844592955254902911 2.51462017244533120319 5.05768627444321250408 5.05768627444321250408 2.51462017244533120319 5.05768627444321250408 5.05768627444321250408 2.51462017244533120319 2.51462017244533120319 -2.57151203155042962223 -0.02844592955254902911 2.51462017244533120319 -2.57151203155042962223 5.05768627444321250408 5.05768627444321250408 10.14381847843897155315 10.14381847843897155315 2.51462017244533120319 2.51462017244533120319 2.51462017244533120319 2.51462017244533120319 5.05768627444321250408 2.51462017244533120319 7.60075237644109336088 7.60075237644109336088 -2.57151203155042962223 -0.02844592955254902911 2.51462017244533120319 5.05768627444321250408 2.51462017244533120319 7.60075237644109336088 2.51462017244533120319 -0.02844592955254902911 -0.02844592955254902911 -2.57151203155042962223 2.51462017244533120319 2.51462017244533120319 2.51462017244533120319 2.51462017244533120319 5.05768627444321250408 7.60075237644109336088 5.05768627444321250408 -2.57151203155042962223 2.51462017244533120319 7.60075237644109336088 7.60075237644109336088 5.05768627444321250408 2.51462017244533120319 -0.02844592955254902911 2.51462017244533120319 -5.11457813354830914676 -0.02844592955254902911 2.51462017244533120319 7.60075237644109336088 5.05768627444321250408 2.51462017244533120319 -0.02844592955254902911 -2.57151203155042962223 -5.11457813354830914676 -2.57151203155042962223 2.51462017244533120319 5.05768627444321250408 5.05768627444321250408 2.51462017244533120319 -7.65764423554619000356 -2.57151203155042962223 -0.02844592955254902911 -2.57151203155042962223 2.51462017244533120319 5.05768627444321250408 2.51462017244533120319 -5.11457813354830914676 2.51462017244533120319 -2.57151203155042962223 -0.02844592955254902911 -2.57151203155042962223 -0.02844592955254902911 -2.57151203155042962223 2.51462017244533120319 5.05768627444321250408 7.60075237644109336088 2.51462017244533120319 -0.02844592955254902911 -5.11457813354830914676 -0.02844592955254902911 2.51462017244533120319 -0.02844592955254902911 2.51462017244533120319 -0.02844592955254902911 2.51462017244533120319 -2.57151203155042962223 -0.02844592955254902911 5.05768627444321250408 7.60075237644109336088 2.51462017244533120319 5.05768627444321250408 -0.02844592955254902911 -0.02844592955254902911 5.05768627444321250408 -0.02844592955254902911 5.05768627444321250408 7.60075237644109336088 5.05768627444321250408 -5.11457813354830914676 2.51462017244533120319 -2.57151203155042962223 -2.57151203155042962223 -2.57151203155042962223 5.05768627444321250408 2.51462017244533120319 5.05768627444321250408 5.05768627444321250408 -0.02844592955254902911 -2.57151203155042962223 -2.57151203155042962223 -2.57151203155042962223 -2.57151203155042962223 2.51462017244533120319 2.51462017244533120319 -2.57151203155042962223 2.51462017244533120319 -2.57151203155042962223 -0.02844592955254902911 -2.57151203155042962223 -0.02844592955254902911 -0.02844592955254902911 -0.02844592955254902911 -0.02844592955254902911 -2.57151203155042962223 -2.57151203155042962223 -2.57151203155042962223 -5.11457813354830914676 2.51462017244533120319 -2.57151203155042962223 -7.65764423554619000356 5.05768627444321250408 -0.02844592955254902911 -7.65764423554619000356 -7.65764423554619000356 -5.11457813354830914676 7.60075237644109336088 -0.02844592955254902911 -0.02844592955254902911 -0.02844592955254902911 -2.57151203155042962223 -2.57151203155042962223 -0.02844592955254902911 -5.11457813354830914676 -5.11457813354830914676 -5.11457813354830914676 -5.11457813354830914676 -5.11457813354830914676 -2.57151203155042962223 -5.11457813354830914676 -5.11457813354830914676 -10.20071033754407174854 -2.57151203155042962223 2.51462017244533120319 -2.57151203155042962223 -0.02844592955254902911 -7.65764423554619000356 -0.02844592955254902911 -5.11457813354830914676 -0.02844592955254902911 -2.57151203155042962223 -5.11457813354830914676 2.51462017244533120319 -2.57151203155042962223 -10.20071033754407174854 -5.11457813354830914676 -7.65764423554619000356 -7.65764423554619000356 -2.57151203155042962223 7.60075237644109336088 -2.57151203155042962223 -5.11457813354830914676 -2.57151203155042962223 7.60075237644109336088 -0.02844592955254902911 -5.11457813354830914676 -2.57151203155042962223 -0.02844592955254902911 2.51462017244533120319 -2.57151203155042962223 -2.57151203155042962223 -0.02844592955254902911 -2.57151203155042962223 -5.11457813354830914676 -5.11457813354830914676 -7.65764423554619000356 -5.11457813354830914676 -2.57151203155042962223 -5.11457813354830914676 -5.11457813354830914676 -2.57151203155042962223 -2.57151203155042962223 -2.57151203155042962223 -2.57151203155042962223 -2.57151203155042962223 -5.11457813354830914676 -2.57151203155042962223 -7.65764423554619000356 -7.65764423554619000356 -5.11457813354830914676 -5.11457813354830914676 -2.57151203155042962223 -2.57151203155042962223 -2.57151203155042962223 -0.02844592955254902911 5.05768627444321250408 -2.57151203155042962223 -2.57151203155042962223 -2.57151203155042962223 2.51462017244533120319 -7.65764423554619000356 -5.11457813354830914676 -5.11457813354830914676 -5.11457813354830914676 -2.57151203155042962223 2.51462017244533120319 -2.57151203155042962223 -5.11457813354830914676 -7.65764423554619000356 -2.57151203155042962223 -0.02844592955254902911 -7.65764423554619000356 -0.02844592955254902911 -0.02844592955254902911 -5.11457813354830914676 -2.57151203155042962223 -5.11457813354830914676 5.05768627444321250408 -0.02844592955254902911 -2.57151203155042962223 -0.02844592955254902911 -5.11457813354830914676 -10.20071033754407174854 -2.57151203155042962223 -0.02844592955254902911 2.51462017244533120319 -0.02844592955254902911 -2.57151203155042962223 2.51462017244533120319 -0.02844592955254902911 -7.65764423554619000356 -0.02844592955254902911 2.51462017244533120319 7.60075237644109336088 5.05768627444321250408 -0.02844592955254902911 -2.57151203155042962223 2.51462017244533120319 5.05768627444321250408 2.51462017244533120319 2.51462017244533120319 2.51462017244533120319 5.05768627444321250408 2.51462017244533120319 -2.57151203155042962223 5.05768627444321250408 5.05768627444321250408 5.05768627444321250408 5.05768627444321250408 5.05768627444321250408 -0.02844592955254902911 7.60075237644109336088 5.05768627444321250408 2.51462017244533120319 2.51462017244533120319 7.60075237644109336088 2.51462017244533120319 2.51462017244533120319 7.60075237644109336088 2.51462017244533120319 2.51462017244533120319 -2.57151203155042962223 2.51462017244533120319 -0.02844592955254902911 5.05768627444321250408 -0.02844592955254902911 5.05768627444321250408 5.05768627444321250408 2.51462017244533120319 2.51462017244533120319 -0.02844592955254902911 -5.11457813354830914676 5.05768627444321250408 2.51462017244533120319 -0.02844592955254902911 -2.57151203155042962223 5.05768627444321250408 -0.02844592955254902911 5.05768627444321250408 2.51462017244533120319 2.51462017244533120319 7.60075237644109336088 -0.02844592955254902911 -0.02844592955254902911 5.05768627444321250408 7.60075237644109336088 5.05768627444321250408 2.51462017244533120319 7.60075237644109336088 -2.57151203155042962223 2.51462017244533120319 5.05768627444321250408 12.68688458043685329812 5.05768627444321250408 5.05768627444321250408 2.51462017244533120319 10.14381847843897155315 -2.57151203155042962223 2.51462017244533120319 -2.57151203155042962223 -2.57151203155042962223 10.14381847843897155315 -0.02844592955254902911 2.51462017244533120319 -2.57151203155042962223 -0.02844592955254902911 2.51462017244533120319 -2.57151203155042962223 -2.57151203155042962223 -0.02844592955254902911 -0.02844592955254902911 -5.11457813354830914676 -2.57151203155042962223 -10.20071033754407174854 -5.11457813354830914676 -5.11457813354830914676 -0.02844592955254902911 2.51462017244533120319 -5.11457813354830914676 -0.02844592955254902911 -2.57151203155042962223 -0.02844592955254902911 -7.65764423554619000356 -0.02844592955254902911 2.51462017244533120319 -0.02844592955254902911 -10.20071033754407174854 -12.74377643954195349352 -10.20071033754407174854 -10.20071033754407174854 -10.20071033754407174854 -5.11457813354830914676 -10.20071033754407174854 -7.65764423554619000356 -5.11457813354830914676 -15.28684254153983346214 -12.74377643954195349352 -5.11457813354830914676 -5.11457813354830914676 -10.20071033754407174854 -10.20071033754407174854 -12.74377643954195349352 -12.74377643954195349352 -10.20071033754407174854 -7.65764423554619000356 -7.65764423554619000356 -7.65764423554619000356 -7.65764423554619000356 -12.74377643954195349352 -10.20071033754407174854 -7.65764423554619000356 -10.20071033754407174854 -10.20071033754407174854 -10.20071033754407174854 -10.20071033754407174854 -12.74377643954195349352 -2.57151203155042962223 -2.57151203155042962223 -7.65764423554619000356 -7.65764423554619000356 -12.74377643954195349352 -12.74377643954195349352 -2.57151203155042962223 -5.11457813354830914676 -7.65764423554619000356 -5.11457813354830914676 -5.11457813354830914676 -7.65764423554619000356 -10.20071033754407174854 -7.65764423554619000356 -5.11457813354830914676 -0.02844592955254902911 -2.57151203155042962223 -2.57151203155042962223 -2.57151203155042962223 -10.20071033754407174854 -10.20071033754407174854 -5.11457813354830914676 -0.02844592955254902911 -5.11457813354830914676 -0.02844592955254902911 -7.65764423554619000356 -5.11457813354830914676 -2.57151203155042962223 5.05768627444321250408 -0.02844592955254902911 -2.57151203155042962223 -0.02844592955254902911 -5.11457813354830914676 -5.11457813354830914676 -2.57151203155042962223 -2.57151203155042962223 -2.57151203155042962223 5.05768627444321250408 -0.02844592955254902911 -7.65764423554619000356 2.51462017244533120319 2.51462017244533120319 -2.57151203155042962223 -0.02844592955254902911 -0.02844592955254902911 2.51462017244533120319 -7.65764423554619000356 -2.57151203155042962223 5.05768627444321250408 -2.57151203155042962223 -2.57151203155042962223 5.05768627444321250408 -2.57151203155042962223 -0.02844592955254902911 -2.57151203155042962223 2.51462017244533120319 -2.57151203155042962223 -2.57151203155042962223 -2.57151203155042962223 -2.57151203155042962223 -2.57151203155042962223 -0.02844592955254902911 -0.02844592955254902911 -0.02844592955254902911 -5.11457813354830914676 -2.57151203155042962223 -2.57151203155042962223 -0.02844592955254902911 2.51462017244533120319 7.60075237644109336088 -0.02844592955254902911 2.51462017244533120319 -2.57151203155042962223 -0.02844592955254902911 -0.02844592955254902911 2.51462017244533120319 2.51462017244533120319 2.51462017244533120319 -0.02844592955254902911 5.05768627444321250408 -0.02844592955254902911 2.51462017244533120319 10.14381847843897155315 -5.11457813354830914676 2.51462017244533120319 2.51462017244533120319 -0.02844592955254902911 2.51462017244533120319 -0.02844592955254902911 5.05768627444321250408 -0.02844592955254902911 2.51462017244533120319 -2.57151203155042962223 -5.11457813354830914676 5.05768627444321250408 -2.57151203155042962223 5.05768627444321250408 -0.02844592955254902911 -5.11457813354830914676 -2.57151203155042962223 -2.57151203155042962223 2.51462017244533120319 5.05768627444321250408 -2.57151203155042962223 -7.65764423554619000356 2.51462017244533120319 -2.57151203155042962223 -2.57151203155042962223 -5.11457813354830914676 2.51462017244533120319 5.05768627444321250408 -2.57151203155042962223 -0.02844592955254902911 -7.65764423554619000356 5.05768627444321250408 -0.02844592955254902911 5.05768627444321250408 -0.02844592955254902911 -0.02844592955254902911 -2.57151203155042962223 -2.57151203155042962223 -0.02844592955254902911 -0.02844592955254902911 2.51462017244533120319 -2.57151203155042962223 -2.57151203155042962223 -5.11457813354830914676 -0.02844592955254902911 -0.02844592955254902911 -0.02844592955254902911 -0.02844592955254902911 2.51462017244533120319 -2.57151203155042962223 -0.02844592955254902911 7.60075237644109336088 2.51462017244533120319 7.60075237644109336088 2.51462017244533120319 -0.02844592955254902911 -2.57151203155042962223 2.51462017244533120319 5.05768627444321250408 2.51462017244533120319 5.05768627444321250408 2.51462017244533120319 2.51462017244533120319 -0.02844592955254902911 -2.57151203155042962223 5.05768627444321250408 -0.02844592955254902911 2.51462017244533120319 7.60075237644109336088 5.05768627444321250408 2.51462017244533120319 -0.02844592955254902911 -0.02844592955254902911 -2.57151203155042962223 5.05768627444321250408 -0.02844592955254902911 -0.02844592955254902911 2.51462017244533120319 2.51462017244533120319 -0.02844592955254902911 2.51462017244533120319 -0.02844592955254902911 2.51462017244533120319 -2.57151203155042962223 7.60075237644109336088 -5.11457813354830914676 2.51462017244533120319 2.51462017244533120319 7.60075237644109336088 2.51462017244533120319 2.51462017244533120319 2.51462017244533120319 7.60075237644109336088 -0.02844592955254902911 7.60075237644109336088 5.05768627444321250408 5.05768627444321250408 7.60075237644109336088 5.05768627444321250408 2.51462017244533120319 -7.65764423554619000356 2.51462017244533120319 2.51462017244533120319 2.51462017244533120319 -0.02844592955254902911 5.05768627444321250408 2.51462017244533120319 2.51462017244533120319 -0.02844592955254902911 2.51462017244533120319 -2.57151203155042962223 -0.02844592955254902911 2.51462017244533120319 2.51462017244533120319 -0.02844592955254902911 2.51462017244533120319 -0.02844592955254902911 -0.02844592955254902911 5.05768627444321250408 -0.02844592955254902911 -0.02844592955254902911 -2.57151203155042962223 -0.02844592955254902911 -0.02844592955254902911 2.51462017244533120319 -0.02844592955254902911 -0.02844592955254902911 5.05768627444321250408 -0.02844592955254902911 -0.02844592955254902911 2.51462017244533120319 5.05768627444321250408 -0.02844592955254902911 2.51462017244533120319 -5.11457813354830914676 5.05768627444321250408 7.60075237644109336088 7.60075237644109336088 5.05768627444321250408 -0.02844592955254902911 2.51462017244533120319 -0.02844592955254902911 7.60075237644109336088 5.05768627444321250408 5.05768627444321250408 5.05768627444321250408 5.05768627444321250408 7.60075237644109336088 2.51462017244533120319 -0.02844592955254902911 -2.57151203155042962223 5.05768627444321250408 -0.02844592955254902911 5.05768627444321250408 -0.02844592955254902911 -0.02844592955254902911 7.60075237644109336088 5.05768627444321250408 5.05768627444321250408 7.60075237644109336088 -7.65764423554619000356 -0.02844592955254902911 -0.02844592955254902911 -5.11457813354830914676 -0.02844592955254902911 2.51462017244533120319 -0.02844592955254902911 10.14381847843897155315 2.51462017244533120319 5.05768627444321250408 5.05768627444321250408 -2.57151203155042962223 -2.57151203155042962223 -2.57151203155042962223 5.05768627444321250408 2.51462017244533120319 2.51462017244533120319 2.51462017244533120319 2.51462017244533120319 -5.11457813354830914676 -2.57151203155042962223 2.51462017244533120319 2.51462017244533120319 2.51462017244533120319 -0.02844592955254902911 5.05768627444321250408 -2.57151203155042962223 2.51462017244533120319 2.51462017244533120319 2.51462017244533120319 5.05768627444321250408 5.05768627444321250408 -0.02844592955254902911 2.51462017244533120319 2.51462017244533120319 -0.02844592955254902911 2.51462017244533120319 7.60075237644109336088 2.51462017244533120319 5.05768627444321250408 -0.02844592955254902911 5.05768627444321250408 -0.02844592955254902911 -2.57151203155042962223 -0.02844592955254902911 2.51462017244533120319 5.05768627444321250408 2.51462017244533120319 2.51462017244533120319 -0.02844592955254902911 -2.57151203155042962223 -0.02844592955254902911 -2.57151203155042962223 5.05768627444321250408 5.05768627444321250408 7.60075237644109336088 -0.02844592955254902911 7.60075237644109336088 5.05768627444321250408 -0.02844592955254902911 5.05768627444321250408 2.51462017244533120319 -0.02844592955254902911 2.51462017244533120319 -0.02844592955254902911 -2.57151203155042962223 5.05768627444321250408 2.51462017244533120319 10.14381847843897155315 10.14381847843897155315 7.60075237644109336088 10.14381847843897155315 7.60075237644109336088 2.51462017244533120319 7.60075237644109336088 7.60075237644109336088 10.14381847843897155315 15.22995068243473326675 12.68688458043685329812 7.60075237644109336088 -0.02844592955254902911 7.60075237644109336088 2.51462017244533120319 7.60075237644109336088 5.05768627444321250408 12.68688458043685329812 7.60075237644109336088 7.60075237644109336088 5.05768627444321250408 7.60075237644109336088 5.05768627444321250408 2.51462017244533120319 10.14381847843897155315 7.60075237644109336088 5.05768627444321250408 7.60075237644109336088 2.51462017244533120319 -2.57151203155042962223 7.60075237644109336088 5.05768627444321250408 7.60075237644109336088 7.60075237644109336088 2.51462017244533120319 2.51462017244533120319 5.05768627444321250408 2.51462017244533120319 -5.11457813354830914676 7.60075237644109336088 5.05768627444321250408 5.05768627444321250408 2.51462017244533120319 -0.02844592955254902911 -0.02844592955254902911 7.60075237644109336088 5.05768627444321250408 5.05768627444321250408 2.51462017244533120319 5.05768627444321250408 2.51462017244533120319 2.51462017244533120319 2.51462017244533120319 -2.57151203155042962223 2.51462017244533120319 2.51462017244533120319 5.05768627444321250408 7.60075237644109336088 7.60075237644109336088 -2.57151203155042962223 -2.57151203155042962223 -2.57151203155042962223 5.05768627444321250408 7.60075237644109336088 5.05768627444321250408 7.60075237644109336088 -0.02844592955254902911 2.51462017244533120319 -0.02844592955254902911 2.51462017244533120319 2.51462017244533120319 2.51462017244533120319 10.14381847843897155315 5.05768627444321250408 7.60075237644109336088 5.05768627444321250408 2.51462017244533120319 2.51462017244533120319 5.05768627444321250408 7.60075237644109336088 2.51462017244533120319 2.51462017244533120319 7.60075237644109336088 2.51462017244533120319 -2.57151203155042962223 7.60075237644109336088 7.60075237644109336088 7.60075237644109336088 12.68688458043685329812 2.51462017244533120319 5.05768627444321250408 5.05768627444321250408 2.51462017244533120319 2.51462017244533120319 5.05768627444321250408 5.05768627444321250408 5.05768627444321250408 7.60075237644109336088 5.05768627444321250408 2.51462017244533120319 -0.02844592955254902911 -2.57151203155042962223 5.05768627444321250408 7.60075237644109336088 10.14381847843897155315 10.14381847843897155315 10.14381847843897155315 2.51462017244533120319 5.05768627444321250408 -2.57151203155042962223 7.60075237644109336088 7.60075237644109336088 5.05768627444321250408 2.51462017244533120319 10.14381847843897155315 5.05768627444321250408 -5.11457813354830914676 5.05768627444321250408 -0.02844592955254902911 5.05768627444321250408 -0.02844592955254902911 7.60075237644109336088 5.05768627444321250408 2.51462017244533120319 -2.57151203155042962223 2.51462017244533120319 -0.02844592955254902911 2.51462017244533120319 -0.02844592955254902911 -2.57151203155042962223 2.51462017244533120319 2.51462017244533120319 2.51462017244533120319 2.51462017244533120319 -0.02844592955254902911 5.05768627444321250408 7.60075237644109336088 -5.11457813354830914676 5.05768627444321250408 5.05768627444321250408 2.51462017244533120319 2.51462017244533120319 5.05768627444321250408 2.51462017244533120319 -0.02844592955254902911 7.60075237644109336088 -2.57151203155042962223 -0.02844592955254902911 2.51462017244533120319 2.51462017244533120319 5.05768627444321250408 2.51462017244533120319 2.51462017244533120319 2.51462017244533120319 -2.57151203155042962223 -0.02844592955254902911 2.51462017244533120319 -0.02844592955254902911 -2.57151203155042962223 5.05768627444321250408 2.51462017244533120319 5.05768627444321250408 -0.02844592955254902911 -0.02844592955254902911 2.51462017244533120319 7.60075237644109336088 2.51462017244533120319 7.60075237644109336088 7.60075237644109336088 2.51462017244533120319 -5.11457813354830914676 2.51462017244533120319 -0.02844592955254902911 5.05768627444321250408 7.60075237644109336088 7.60075237644109336088 7.60075237644109336088 -2.57151203155042962223 2.51462017244533120319 -0.02844592955254902911 -0.02844592955254902911 -2.57151203155042962223 2.51462017244533120319 10.14381847843897155315 10.14381847843897155315 -0.02844592955254902911 -0.02844592955254902911 -0.02844592955254902911 -0.02844592955254902911 5.05768627444321250408 5.05768627444321250408 2.51462017244533120319 2.51462017244533120319 2.51462017244533120319 -0.02844592955254902911 -0.02844592955254902911 -2.57151203155042962223 -7.65764423554619000356 -0.02844592955254902911 -0.02844592955254902911 2.51462017244533120319 5.05768627444321250408 -2.57151203155042962223 2.51462017244533120319 -5.11457813354830914676 -5.11457813354830914676 -2.57151203155042962223 -0.02844592955254902911 -0.02844592955254902911 -5.11457813354830914676 7.60075237644109336088 5.05768627444321250408 -2.57151203155042962223 2.51462017244533120319 2.51462017244533120319 2.51462017244533120319 -0.02844592955254902911 -0.02844592955254902911 -0.02844592955254902911 -0.02844592955254902911 -5.11457813354830914676 -0.02844592955254902911 -0.02844592955254902911 2.51462017244533120319 5.05768627444321250408 -0.02844592955254902911 2.51462017244533120319 -0.02844592955254902911 -2.57151203155042962223 2.51462017244533120319 2.51462017244533120319 7.60075237644109336088 7.60075237644109336088 -0.02844592955254902911 2.51462017244533120319 2.51462017244533120319 -7.65764423554619000356 -2.57151203155042962223 -2.57151203155042962223 -2.57151203155042962223 -5.11457813354830914676 -2.57151203155042962223 -7.65764423554619000356 -2.57151203155042962223 -10.20071033754407174854 -7.65764423554619000356 -2.57151203155042962223 -2.57151203155042962223 -5.11457813354830914676 -10.20071033754407174854 -5.11457813354830914676 -2.57151203155042962223 -7.65764423554619000356 -7.65764423554619000356 -7.65764423554619000356 -2.57151203155042962223 -7.65764423554619000356 -7.65764423554619000356 -15.28684254153983346214 -7.65764423554619000356 -15.28684254153983346214 -7.65764423554619000356 -5.11457813354830914676 -7.65764423554619000356 -7.65764423554619000356 -7.65764423554619000356 -7.65764423554619000356 -7.65764423554619000356 -10.20071033754407174854 -20.37297474553558984667 -10.20071033754407174854 -12.74377643954195349352 -10.20071033754407174854 -10.20071033754407174854 -7.65764423554619000356 -10.20071033754407174854 -2.57151203155042962223 -10.20071033754407174854 -12.74377643954195349352 -12.74377643954195349352 -10.20071033754407174854 -7.65764423554619000356 -12.74377643954195349352 -12.74377643954195349352 -10.20071033754407174854 -12.74377643954195349352 -17.82990864353771343076 -15.28684254153983346214 -12.74377643954195349352 -12.74377643954195349352 -7.65764423554619000356 -10.20071033754407174854 -12.74377643954195349352 -15.28684254153983346214 -15.28684254153983346214 -10.20071033754407174854 -7.65764423554619000356 -10.20071033754407174854 -10.20071033754407174854 -10.20071033754407174854 -7.65764423554619000356 -7.65764423554619000356 -10.20071033754407174854 -5.11457813354830914676 -10.20071033754407174854 -5.11457813354830914676 -2.57151203155042962223 -10.20071033754407174854 -5.11457813354830914676 -5.11457813354830914676 -2.57151203155042962223 -15.28684254153983346214 -5.11457813354830914676 -10.20071033754407174854 -5.11457813354830914676 -2.57151203155042962223 -2.57151203155042962223 -5.11457813354830914676 -10.20071033754407174854 -0.02844592955254902911 -7.65764423554619000356 -10.20071033754407174854 -5.11457813354830914676 -2.57151203155042962223 -7.65764423554619000356 -5.11457813354830914676 -2.57151203155042962223 -2.57151203155042962223 -7.65764423554619000356 -7.65764423554619000356 -5.11457813354830914676 -2.57151203155042962223 -5.11457813354830914676 -5.11457813354830914676 -7.65764423554619000356 -7.65764423554619000356 -7.65764423554619000356 -5.11457813354830914676 -5.11457813354830914676 -5.11457813354830914676 -0.02844592955254902911 -2.57151203155042962223 -5.11457813354830914676 -5.11457813354830914676 -10.20071033754407174854 -5.11457813354830914676 -0.02844592955254902911 -0.02844592955254902911 2.51462017244533120319 -2.57151203155042962223 -2.57151203155042962223 -5.11457813354830914676 -5.11457813354830914676 -7.65764423554619000356 -5.11457813354830914676 -0.02844592955254902911 2.51462017244533120319 -2.57151203155042962223 -2.57151203155042962223 5.05768627444321250408 -2.57151203155042962223 2.51462017244533120319 5.05768627444321250408 5.05768627444321250408 2.51462017244533120319 5.05768627444321250408 2.51462017244533120319 -2.57151203155042962223 -2.57151203155042962223 5.05768627444321250408 2.51462017244533120319 -0.02844592955254902911 -0.02844592955254902911 5.05768627444321250408 2.51462017244533120319 2.51462017244533120319 2.51462017244533120319 2.51462017244533120319 2.51462017244533120319 7.60075237644109336088 -0.02844592955254902911 2.51462017244533120319 -0.02844592955254902911 -0.02844592955254902911 5.05768627444321250408 5.05768627444321250408 7.60075237644109336088 2.51462017244533120319 10.14381847843897155315 2.51462017244533120319 2.51462017244533120319 -0.02844592955254902911 -0.02844592955254902911 7.60075237644109336088 2.51462017244533120319 2.51462017244533120319 2.51462017244533120319 10.14381847843897155315 2.51462017244533120319 5.05768627444321250408 2.51462017244533120319 10.14381847843897155315 10.14381847843897155315 10.14381847843897155315 7.60075237644109336088 10.14381847843897155315 12.68688458043685329812 2.51462017244533120319 7.60075237644109336088 7.60075237644109336088 7.60075237644109336088 5.05768627444321250408 2.51462017244533120319 -0.02844592955254902911 5.05768627444321250408 -0.02844592955254902911 10.14381847843897155315 -0.02844592955254902911 5.05768627444321250408 2.51462017244533120319 -2.57151203155042962223 5.05768627444321250408 -0.02844592955254902911 12.68688458043685329812 12.68688458043685329812 7.60075237644109336088 7.60075237644109336088 5.05768627444321250408 5.05768627444321250408 2.51462017244533120319 2.51462017244533120319 5.05768627444321250408 2.51462017244533120319 7.60075237644109336088 7.60075237644109336088 7.60075237644109336088 2.51462017244533120319 -0.02844592955254902911 7.60075237644109336088 5.05768627444321250408 -0.02844592955254902911 7.60075237644109336088 2.51462017244533120319 7.60075237644109336088 -2.57151203155042962223 5.05768627444321250408 7.60075237644109336088 2.51462017244533120319 7.60075237644109336088 5.05768627444321250408 2.51462017244533120319 7.60075237644109336088 -0.02844592955254902911 5.05768627444321250408 5.05768627444321250408 5.05768627444321250408 5.05768627444321250408 2.51462017244533120319 -0.02844592955254902911 -0.02844592955254902911 -2.57151203155042962223 5.05768627444321250408 -2.57151203155042962223 2.51462017244533120319 5.05768627444321250408 5.05768627444321250408 -0.02844592955254902911 -0.02844592955254902911 -0.02844592955254902911 -0.02844592955254902911 -2.57151203155042962223 -0.02844592955254902911 -0.02844592955254902911 2.51462017244533120319 2.51462017244533120319 2.51462017244533120319 -5.11457813354830914676 5.05768627444321250408 -0.02844592955254902911 2.51462017244533120319 7.60075237644109336088 2.51462017244533120319 -2.57151203155042962223 2.51462017244533120319 -0.02844592955254902911 -2.57151203155042962223 2.51462017244533120319 2.51462017244533120319 2.51462017244533120319 2.51462017244533120319 -0.02844592955254902911 -5.11457813354830914676 -5.11457813354830914676 -5.11457813354830914676 -0.02844592955254902911 2.51462017244533120319 2.51462017244533120319 -0.02844592955254902911 -0.02844592955254902911 -0.02844592955254902911 -2.57151203155042962223 -2.57151203155042962223 2.51462017244533120319 2.51462017244533120319 -0.02844592955254902911 2.51462017244533120319 -2.57151203155042962223 -2.57151203155042962223 -0.02844592955254902911 -0.02844592955254902911 -0.02844592955254902911 2.51462017244533120319 -5.11457813354830914676 2.51462017244533120319 -2.57151203155042962223 -5.11457813354830914676 -2.57151203155042962223 5.05768627444321250408 -0.02844592955254902911 -0.02844592955254902911 -0.02844592955254902911 -5.11457813354830914676 -0.02844592955254902911 -2.57151203155042962223 2.51462017244533120319 2.51462017244533120319 5.05768627444321250408 -0.02844592955254902911 2.51462017244533120319 -2.57151203155042962223 -5.11457813354830914676 -7.65764423554619000356 -7.65764423554619000356 2.51462017244533120319 2.51462017244533120319 -0.02844592955254902911 -2.57151203155042962223 -0.02844592955254902911 -5.11457813354830914676 -10.20071033754407174854 -2.57151203155042962223 -0.02844592955254902911 -0.02844592955254902911 -2.57151203155042962223 -2.57151203155042962223 -12.74377643954195349352 2.51462017244533120319 -7.65764423554619000356 -2.57151203155042962223 -2.57151203155042962223 -2.57151203155042962223 -2.57151203155042962223 -2.57151203155042962223 -7.65764423554619000356 -0.02844592955254902911 -5.11457813354830914676 -7.65764423554619000356 2.51462017244533120319 5.05768627444321250408 2.51462017244533120319 -2.57151203155042962223 -7.65764423554619000356 -0.02844592955254902911 -5.11457813354830914676 -2.57151203155042962223 2.51462017244533120319 -2.57151203155042962223 -2.57151203155042962223 2.51462017244533120319 2.51462017244533120319 -2.57151203155042962223 -5.11457813354830914676 -2.57151203155042962223 -0.02844592955254902911 -2.57151203155042962223 -0.02844592955254902911 -7.65764423554619000356 -5.11457813354830914676 2.51462017244533120319 -5.11457813354830914676 -7.65764423554619000356 -0.02844592955254902911 -2.57151203155042962223 -5.11457813354830914676 2.51462017244533120319 -2.57151203155042962223 -2.57151203155042962223 -2.57151203155042962223 -2.57151203155042962223 -0.02844592955254902911 -5.11457813354830914676 2.51462017244533120319 7.60075237644109336088 -0.02844592955254902911 -5.11457813354830914676 -2.57151203155042962223 