-0.000000 0.000000 0.000000 -0.000000 -0.000000 -0.000000 -0.000000 -0.000000 -0.000000 -0.000000 -0.000000 -0.000000 -0.000000 -0.000000 -0.000000 -0.000000 -0.000000 -0.000000 -0.000000 -0.000000 -0.000000 -0.000000 -0.000000 -0.000000 -0.000000 -0.000000 -0.000000 -0.000000 -0.000000 0.000000 0.000000 0.000000 -0.000000 -0.000000 0.000000 0.000000 -0.000000 -0.000000 -0.000000 0.000000 -0.000000 -0.000000 0.000000 -0.000000 -0.000000 -0.000000 -0.000000 0.000000 -0.000000 0.000000 -0.000000 -0.000000 -0.000000 -0.000000 -0.000000 0.000000 -0.000000 0.000000 -0.000000 -0.000000 -0.000000 0.000000 0.000000 0.000000 -0.000000 0.000000 -0.000000 -0.000000 -0.000000 -0.000000 -0.000000 0.000000 0.000000 -0.000000 -0.000000 -0.000000 -0.000000 -0.000000 -0.000001 -0.000003 -0.000007 -0.000016 -0.000032 -0.000058 -0.000098 -0.000157 -0.000240 -0.000353 -0.000502 -0.000693 -0.000932 -0.001227 -0.001582 -0.002005 -0.002501 -0.003075 -0.003732 -0.004475 -0.005309 -0.006235 -0.007257 -0.008375 -0.009590 -0.010902 -0.012310 -0.013813 -0.015408 -0.017092 -0.018864 -0.020718 -0.022652 -0.024659 -0.026736 -0.028878 -0.031079 -0.033333 -0.035636 -0.037980 -0.040362 -0.042774 -0.045211 -0.047668 -0.050138 -0.052618 -0.055101 -0.057582 -0.060057 -0.062521 -0.064970 -0.067399 -0.069805 -0.072184 -0.074533 -0.076848 -0.079127 -0.081367 -0.083566 -0.085721 -0.087830 -0.089891 -0.091902 -0.093859 -0.095759 -0.097598 -0.099371 -0.101074 -0.102701 -0.104246 -0.105703 -0.107067 -0.108330 -0.109487 -0.110532 -0.111460 -0.112264 -0.112942 -0.113489 -0.113903 -0.114182 -0.114328 -0.114340 -0.114224 -0.113982 -0.113622 -0.113150 -0.112573 -0.111903 -0.111148 -0.110319 -0.109426 -0.108483 -0.107498 -0.106485 -0.105454 -0.104415 -0.103379 -0.102357 -0.101355 -0.100384 -0.099451 -0.098563 -0.097726 -0.096945 -0.096225 -0.095570 -0.094982 -0.094463 -0.094016 -0.093642 -0.093340 -0.093110 -0.092951 -0.092863 -0.092843 -0.092889 -0.092999 -0.093170 -0.093399 -0.093684 -0.094020 -0.094404 -0.094834 -0.095304 -0.095813 -0.096355 -0.096928 -0.097529 -0.098153 -0.098798 -0.099460 -0.100137 -0.100825 -0.101521 -0.102224 -0.102930 -0.103638 -0.104344 -0.105045 -0.105739 -0.106421 -0.107088 -0.107734 -0.108355 -0.108944 -0.109494 -0.110000 -0.110455 -0.110850 -0.111181 -0.111438 -0.111617 -0.111711 -0.111714 -0.111622 -0.111432 -0.111140 -0.110746 -0.110251 -0.109656 -0.108966 -0.108184 -0.107317 -0.106372 -0.105357 -0.104281 -0.103153 -0.101985 -0.100785 -0.099565 -0.098334 -0.097103 -0.095882 -0.094679 -0.093505 -0.092368 -0.091274 -0.090231 -0.089246 -0.088323 -0.087469 -0.086685 -0.085976 -0.085345 -0.084793 -0.084321 -0.083929 -0.083618 -0.083387 -0.083234 -0.083159 -0.083159 -0.083231 -0.083373 -0.083583 -0.083856 -0.084189 -0.084580 -0.085024 -0.085517 -0.086056 -0.086638 -0.087257 -0.087911 -0.088597 -0.089309 -0.090046 -0.090804 -0.091578 -0.092367 -0.093168 -0.093977 -0.094792 -0.095610 -0.096428 -0.097244 -0.098054 -0.098853 -0.099637 -0.100401 -0.101140 -0.101847 -0.102515 -0.103138 -0.103709 -0.104220 -0.104665 -0.105035 -0.105326 -0.105531 -0.105643 -0.105659 -0.105574 -0.105386 -0.105095 -0.104700 -0.104204 -0.103610 -0.102922 -0.102148 -0.101292 -0.100365 -0.099375 -0.098331 -0.097244 -0.096124 -0.094981 -0.093827 -0.092670 -0.091522 -0.090391 -0.089288 -0.088219 -0.087194 -0.086219 -0.085301 -0.084445 -0.083656 -0.082939 -0.082295 -0.081729 -0.081242 -0.080835 -0.080508 -0.080262 -0.080096 -0.080009 -0.079998 -0.080063 -0.080201 -0.080408 -0.080682 -0.081020 -0.081419 -0.081874 -0.082382 -0.082940 -0.083543 -0.084188 -0.084870 -0.085587 -0.086335 -0.087109 -0.087907 -0.088724 -0.089559 -0.090407 -0.091265 -0.092132 -0.093003 -0.093877 -0.094750 -0.095620 -0.096483 -0.097335 -0.098172 -0.098988 -0.099779 -0.100538 -0.101258 -0.101934 -0.102557 -0.103121 -0.103618 -0.104042 -0.104386 -0.104644 -0.104809 -0.104877 -0.104842 -0.104702 -0.104452 -0.104089 -0.103613 -0.103022 -0.102316 -0.101495 -0.100561 -0.099514 -0.098359 -0.097098 -0.095734 -0.094272 -0.092716 -0.091071 -0.089343 -0.087537 -0.085658 -0.083713 -0.081708 -0.079649 -0.077541 -0.075391 -0.073205 -0.070989 -0.068749 -0.066490 -0.064218 -0.061938 -0.059656 -0.057375 -0.055101 -0.052839 -0.050591 -0.048363 -0.046157 -0.043978 -0.041827 -0.039708 -0.037624 -0.035576 -0.033567 -0.031598 -0.029672 -0.027789 -0.025951 -0.024159 -0.022413 -0.020714 -0.019063 -0.017460 -0.015905 -0.014398 -0.012939 -0.011528 -0.010164 -0.008848 -0.007580 -0.006362 -0.005199 -0.004097 -0.003066 -0.002119 -0.001272 -0.000544 0.000041 0.000461 0.000687 0.000694 0.000451 -0.000068 -0.000894 -0.002052 -0.003569 -0.005468 -0.007772 -0.010498 -0.013664 -0.017281 -0.021361 -0.025909 -0.030929 -0.036420 -0.042380 -0.048802 -0.055677 -0.062993 -0.070736 -0.078888 -0.087431 -0.096345 -0.105606 -0.115192 -0.125077 -0.135236 -0.145643 -0.156270 -0.167092 -0.178080 -0.189209 -0.200452 -0.211782 -0.223175 -0.234605 -0.246048 -0.257482 -0.268885 -0.280235 -0.291513 -0.302700 -0.313778 -0.324731 -0.335544 -0.346202 -0.356693 -0.367005 -0.377127 -0.387049 -0.396760 -0.406248 -0.415500 -0.424502 -0.433234 -0.441677 -0.449809 -0.457605 -0.465039 -0.472083 -0.478709 -0.484887 -0.490591 -0.495791 -0.500461 -0.504578 -0.508120 -0.511072 -0.513422 -0.515164 -0.516300 -0.516837 -0.516791 -0.516182 -0.515038 -0.513390 -0.511276 -0.508739 -0.505822 -0.502573 -0.499041 -0.495277 -0.491330 -0.487252 -0.483089 -0.478891 -0.474701 -0.470563 -0.466515 -0.462596 -0.458838 -0.455271 -0.451921 -0.448812 -0.445963 -0.443389 -0.441104 -0.439117 -0.437434 -0.436059 -0.434992 -0.434233 -0.433776 -0.433617 -0.433747 -0.434157 -0.434836 -0.435772 -0.436953 -0.438365 -0.439992 -0.441821 -0.443837 -0.446023 -0.448364 -0.450846 -0.453453 -0.456170 -0.458982 -0.461876 -0.464838 -0.467855 -0.470915 -0.474005 -0.477114 -0.480232 -0.483347 -0.486448 -0.489519 -0.492546 -0.495509 -0.498389 -0.501161 -0.503800 -0.506277 -0.508562 -0.510624 -0.512431 -0.513952 -0.515154 -0.516007 -0.516482 -0.516552 -0.516195 -0.515393 -0.514134 -0.512410 -0.510224 -0.507581 -0.504496 -0.500988 -0.497084 -0.492816 -0.488218 -0.483331 -0.478199 -0.472865 -0.467377 -0.461781 -0.456126 -0.450458 -0.444823 -0.439263 -0.433821 -0.428536 -0.423443 -0.418575 -0.413961 -0.409628 -0.405598 -0.401891 -0.398521 -0.395502 -0.392842 -0.390546 -0.388619 -0.387061 -0.385868 -0.385037 -0.384560 -0.384429 -0.384633 -0.385161 -0.385998 -0.387132 -0.388546 -0.390225 -0.392153 -0.394312 -0.396686 -0.399257 -0.402009 -0.404924 -0.407985 -0.411178 -0.414485 -0.417891 -0.421381 -0.424942 -0.428559 -0.432219 -0.435910 -0.439621 -0.443337 -0.447045 -0.450729 -0.454372 -0.457952 -0.461447 -0.464830 -0.468075 -0.471150 -0.474026 -0.476668 -0.479045 -0.481123 -0.482870 -0.484257 -0.485252 -0.485832 -0.485974 -0.485662 -0.484886 -0.483640 -0.481929 -0.479760 -0.477151 -0.474122 -0.470703 -0.466925 -0.462827 -0.458448 -0.453833 -0.449027 -0.444077 -0.439030 -0.433933 -0.428832 -0.423771 -0.418794 -0.413940 -0.409248 -0.404752 -0.400482 -0.396468 -0.392734 -0.389302 -0.386187 -0.383406 -0.380969 -0.378884 -0.377155 -0.375785 -0.374772 -0.374115 -0.373806 -0.373838 -0.374203 -0.374889 -0.375884 -0.377174 -0.378745 -0.380581 -0.382667 -0.384986 -0.387521 -0.390255 -0.393172 -0.396254 -0.399485 -0.402848 -0.406327 -0.409908 -0.413574 -0.417312 -0.421107 -0.424946 -0.428817 -0.432708 -0.436606 -0.440498 -0.444370 -0.448206 -0.451986 -0.455689 -0.459291 -0.462766 -0.466085 -0.469218 -0.472133 -0.474797 -0.477177 -0.479242 -0.480959 -0.482298 -0.483232 -0.483733 -0.483780 -0.483350 -0.482428 -0.480999 -0.479053 -0.476583 -0.473585 -0.470060 -0.466012 -0.461446 -0.456373 -0.450805 -0.444757 -0.438247 -0.431294 -0.423922 -0.416151 -0.408008 -0.399518 -0.390708 -0.381605 -0.372236 -0.362631 -0.352817 -0.342822 -0.332674 -0.322399 -0.312024 -0.301575 -0.291077 -0.280553 -0.270027 -0.259521 -0.249055 -0.238648 -0.228321 -0.218088 -0.207967 -0.197972 -0.188118 -0.178416 -0.168877 -0.159512 -0.150330 -0.141338 -0.132543 -0.123952 -0.115570 -0.107400 -0.099446 -0.091711 -0.084196 -0.076903 -0.069831 -0.062982 -0.056354 -0.049946 -0.043757 -0.037785 -0.032026 -0.026477 -0.021133 -0.015987 -0.011033 -0.006260 -0.001658 0.002785 0.007082 0.011246 0.015293 0.019237 0.023095 0.026882 0.030614 0.034304 0.037969 0.041620 0.045272 0.048935 0.052619 0.056335 0.060089 0.063888 0.067737 0.071640 0.075600 0.079618 0.083694 0.087826 0.092014 0.096253 0.100540 0.104871 0.109240 0.113640 0.118067 0.122512 0.126970 0.131432 0.135892 0.140342 0.144774 0.149180 0.153555 0.157889 0.162177 0.166412 0.170587 0.174697 0.178736 0.182698 0.186579 0.190374 0.194079 0.197690 0.201204 0.204618 0.207929 0.211136 0.214236 0.217227 0.220106 0.222870 0.225514 0.228032 0.230420 0.232668 0.234770 0.236717 0.238499 0.240107 0.241531 0.242762 0.243790 0.244607 0.245205 0.245576 0.245715 0.245616 0.245278 0.244698 0.243881 0.242828 0.241548 0.240049 0.238343 0.236444 0.234368 0.232132 0.229754 0.227255 0.224655 0.221976 0.219238 0.216462 0.213668 0.210878 0.208109 0.205379 0.202707 0.200106 0.197592 0.195176 0.192871 0.190686 0.188630 0.186709 0.184929 0.183294 0.181806 0.180468 0.179279 0.178239 0.177347 0.176599 0.175993 0.175525 0.175190 0.174983 0.174897 0.174928 0.175068 0.175311 0.175651 0.176081 0.176594 0.177183 0.177842 0.178563 0.179341 0.180169 0.181042 0.181952 0.182894 0.183864 0.184856 0.185865 0.186887 0.187916 0.188948 0.189978 0.190997 0.192000 0.192978 0.193921 0.194819 0.195661 0.196435 0.197130 0.197732 0.198230 0.198611 0.198862 0.198974 0.198934 0.198735 0.198367 0.197824 0.197104 0.196204 0.195126 0.193873 0.192451 0.190869 0.189138 0.187271 0.185282 0.183188 0.181006 0.178754 0.176450 0.174114 0.171763 0.169417 0.167093 0.164809 0.162581 0.160423 0.158349 0.156374 0.154506 0.152758 0.151137 0.149650 0.148304 0.147102 0.146048 0.145144 0.144391 0.143788 0.143335 0.143028 0.142866 0.142844 0.142957 0.143201 0.143570 0.144058 0.144659 0.145367 0.146173 0.147073 0.148058 0.149121 0.150257 0.151457 0.152715 0.154025 0.155380 0.156773 0.158199 0.159652 0.161127 0.162619 0.164122 0.165631 0.167143 0.168650 0.170148 0.171630 0.173087 0.174512 0.175894 0.177223 0.178488 0.179676 0.180776 0.181775 0.182660 0.183419 0.184040 0.184512 0.184824 0.184969 0.184938 0.184728 0.184334 0.183759 0.183003 0.182072 0.180974 0.179719 0.178318 0.176786 0.175138 0.173390 0.171560 0.169665 0.167724 0.165755 0.163777 0.161807 0.159861 0.157957 0.156109 0.154330 0.152635 0.151034 0.149537 0.148154 0.146892 0.145756 0.144753 0.143885 0.143154 0.142563 0.142111 0.141798 0.141621 0.141579 0.141667 0.141883 0.142221 0.142675 0.143242 0.143914 0.144686 0.145551 0.146503 0.147536 0.148642 0.149815 0.151049 0.152337 0.153673 0.155051 0.156465 0.157909 0.159377 0.160865 0.162367 0.163878 0.165395 0.166912 0.168423 0.169924 0.171407 0.172865 0.174290 0.175671 0.176998 0.178261 0.179446 0.180543 0.181538 0.182419 0.183174 0.183790 0.184258 0.184565 0.184704 0.184664 0.184440 0.184024 0.183412 0.182602 0.181590 0.180376 0.178960 0.177345 0.175533 0.173529 0.171338 0.168965 0.166419 0.163707 0.160837 0.157818 0.154661 0.151376 0.147971 0.144459 0.140850 0.137154 0.133382 0.129545 0.125654 0.121718 0.117748 0.113753 0.109742 0.105725 0.101711 0.097707 0.093721 0.089761 0.085833 0.081944 0.078100 0.074306 0.070567 0.066887 0.063272 0.059724 0.056247 0.052843 0.049516 0.046267 0.043098 0.040011 0.037007 0.034086 0.031250 0.028498 0.025831 0.023248 0.020750 0.018335 0.016003 0.013752 0.011578 0.009476 0.007436 0.005448 0.003495 0.001560 -0.000380 -0.002348 -0.004372 -0.006481 -0.008705 -0.011074 -0.013621 -0.016375 -0.019368 -0.022626 -0.026177 -0.030044 -0.034249 -0.038812 -0.043746 -0.049064 -0.054775 -0.060886 -0.067397 -0.074308 -0.081614 -0.089310 -0.097384 -0.105825 -0.114618 -0.123745 -0.133189 -0.142927 -0.152940 -0.163203 -0.173694 -0.184386 -0.195256 -0.206277 -0.217425 -0.228674 -0.239999 -0.251375 -0.262779 -0.274187 -0.285577 -0.296926 -0.308215 -0.319423 -0.330532 -0.341524 -0.352383 -0.363093 -0.373641 -0.384013 -0.394198 -0.404184 -0.413963 -0.423525 -0.432860 -0.441957 -0.450805 -0.459388 -0.467690 -0.475692 -0.483372 -0.490707 -0.497671 -0.504236 -0.510377 -0.516064 -0.521269 -0.525966 -0.530130 -0.533736 -0.536764 -0.539200 -0.541031 -0.542254 -0.542870 -0.542887 -0.542321 -0.541193 -0.539530 -0.537366 -0.534738 -0.531689 -0.528264 -0.524510 -0.520477 -0.516216 -0.511776 -0.507209 -0.502564 -0.497887 -0.493225 -0.488619 -0.484111 -0.479737 -0.475530 -0.471521 -0.467736 -0.464198 -0.460927 -0.457939 -0.455246 -0.452858 -0.450782 -0.449021 -0.447576 -0.446445 -0.445624 -0.445109 -0.444890 -0.444959 -0.445304 -0.445914 -0.446776 -0.447876 -0.449200 -0.450732 -0.452458 -0.454361 -0.456427 -0.458640 -0.460986 -0.463448 -0.466012 -0.468665 -0.471392 -0.474181 -0.477018 -0.479892 -0.482792 -0.485706 -0.488623 -0.491532 -0.494417 -0.497263 -0.500052 -0.502762 -0.505370 -0.507850 -0.510173 -0.512309 -0.514227 -0.515895 -0.517281 -0.518353 -0.519080 -0.519433 -0.519386 -0.518917 -0.518008 -0.516647 -0.514828 -0.512553 -0.509828 -0.506669 -0.503096 -0.499134 -0.494817 -0.490180 -0.485262 -0.480107 -0.474760 -0.469266 -0.463673 -0.458028 -0.452376 -0.446763 -0.441232 -0.435822 -0.430573 -0.425520 -0.420694 -0.416125 -0.411837 -0.407853 -0.404191 -0.400866 -0.397890 -0.395271 -0.393015 -0.391124 -0.389599 -0.388436 -0.387631 -0.387177 -0.387064 -0.387283 -0.387821 -0.388665 -0.389800 -0.391212 -0.392885 -0.394802 -0.396947 -0.399302 -0.401852 -0.404578 -0.407464 -0.410494 -0.413651 -0.416921 -0.420287 -0.423735 -0.427251 -0.430821 -0.434433 -0.438074 -0.441733 -0.445396 -0.449049 -0.452676 -0.456258 -0.459774 -0.463202 -0.466514 -0.469682 -0.472676 -0.475465 -0.478016 -0.480295 -0.482270 -0.483910 -0.485183 -0.486062 -0.486519 -0.486534 -0.486089 -0.485174 -0.483784 -0.481921 -0.479592 -0.476815 -0.473610 -0.470004 -0.466032 -0.461731 -0.457140 -0.452306 -0.447273 -0.442090 -0.436805 -0.431466 -0.426119 -0.420813 -0.415589 -0.410490 -0.405555 -0.400819 -0.396316 -0.392075 -0.388122 -0.384478 -0.381163 -0.378191 -0.375575 -0.373323 -0.371440 -0.369928 -0.368788 -0.368016 -0.367607 -0.367554 -0.367846 -0.368474 -0.369424 -0.370684 -0.372237 -0.374068 -0.376160 -0.378498 -0.381062 -0.383837 -0.386804 -0.389946 -0.393246 -0.396686 -0.400251 -0.403923 -0.407688 -0.411530 -0.415435 -0.419389 -0.423379 -0.427392 -0.431417 -0.435439 -0.439446 -0.443421 -0.447347 -0.451203 -0.454966 -0.458610 -0.462108 -0.465429 -0.468542 -0.471416 -0.474017 -0.476312 -0.478270 -0.479859 -0.481051 -0.481819 -0.482138 -0.481987 -0.481347 -0.480203 -0.478543 -0.476360 -0.473648 -0.470405 -0.466635 -0.462343 -0.457537 -0.452229 -0.446432 -0.440165 -0.433444 -0.426293 -0.418733 -0.410788 -0.402484 -0.393847 -0.384905 -0.375685 -0.366215 -0.356524 -0.346638 -0.336587 -0.326398 -0.316096 -0.305709 -0.295261 -0.284777 -0.274280 -0.263794 -0.253337 -0.242932 -0.232597 -0.222349 -0.212206 -0.202181 -0.192291 -0.182547 -0.172961 -0.163544 -0.154305 -0.145252 -0.136393 -0.127734 -0.119281 -0.111038 -0.103009 -0.095197 -0.087604 -0.080231 -0.073079 -0.066149 -0.059439 -0.052950 -0.046679 -0.040625 -0.034786 -0.029160 -0.023745 -0.018541 -0.013544 -0.008756 -0.004177 0.000195 0.004356 0.008306 0.012044 0.015567 0.018873 0.021959 0.024825 0.027468 0.029886 0.032079 0.034045 0.035785 0.037299 0.038588 0.039654 0.040498 0.041125 0.041537 0.041740 0.041736 0.041533 0.041136 0.040551 0.039785 0.038845 0.037739 0.036474 0.035059 0.033502 0.031810 0.029993 0.028059 0.026016 0.023873 0.021637 0.019318 0.016922 0.014457 0.011932 0.009352 0.006727 0.004062 0.001363 -0.001362 -0.004108 -0.006868 -0.009639 -0.012414 -0.015189 -0.017960 -0.020722 -0.023471 -0.026203 -0.028914 -0.031600 -0.034258 -0.036881 -0.039464 -0.042003 -0.044491 -0.046920 -0.049285 -0.051578 -0.053791 -0.055917 -0.057948 -0.059878 -0.061700 -0.063408 -0.064995 -0.066457 -0.067791 -0.068995 -0.070067 -0.071009 -0.071822 -0.072511 -0.073080 -0.073536 -0.073885 -0.074137 -0.074301 -0.074385 -0.074401 -0.074359 -0.074269 -0.074142 -0.073987 -0.073816 -0.073638 -0.073460 -0.073293 -0.073144 -0.073020 -0.072927 -0.072871 -0.072856 -0.072888 -0.072969 -0.073102 -0.073290 -0.073532 -0.073831 -0.074186 -0.074597 -0.075064 -0.075584 -0.076156 -0.076779 -0.077448 -0.078163 -0.078921 -0.079718 -0.080552 -0.081419 -0.082315 -0.083239 -0.084187 -0.085154 -0.086139 -0.087137 -0.088146 -0.089163 -0.090185 -0.091210 -0.092234 -0.093256 -0.094273 -0.095282 -0.096282 -0.097269 -0.098242 -0.099196 -0.100129 -0.101036 -0.101912 -0.102752 -0.103550 -0.104299 -0.104993 -0.105626 -0.106191 -0.106680 -0.107087 -0.107407 -0.107633 -0.107761 -0.107786 -0.107705 -0.107518 -0.107225 -0.106826 -0.106324 -0.105725 -0.105033 -0.104254 -0.103398 -0.102473 -0.101487 -0.100451 -0.099376 -0.098270 -0.097146 -0.096012 -0.094880 -0.093759 -0.092659 -0.091587 -0.090552 -0.089561 -0.088621 -0.087739 -0.086918 -0.086164 -0.085479 -0.084868 -0.084332 -0.083873 -0.083492 -0.083188 -0.082962 -0.082812 -0.082738 -0.082737 -0.082808 -0.082948 -0.083153 -0.083422 -0.083751 -0.084137 -0.084576 -0.085065 -0.085600 -0.086177 -0.086793 -0.087444 -0.088127 -0.088837 -0.089572 -0.090329 -0.091103 -0.091892 -0.092694 -0.093505 -0.094322 -0.095144 -0.095966 -0.096787 -0.097602 -0.098409 -0.099202 -0.099977 -0.100728 -0.101450 -0.102136 -0.102780 -0.103373 -0.103910 -0.104383 -0.104785 -0.105110 -0.105350 -0.105501 -0.105556 -0.105512 -0.105365 -0.105114 -0.104758 -0.104298 -0.103737 -0.103078 -0.102328 -0.101492 -0.100578 -0.099595 -0.098552 -0.097458 -0.096326 -0.095164 -0.093983 -0.092795 -0.091609 -0.090436 -0.089285 -0.088164 -0.087084 -0.086050 -0.085070 -0.084151 -0.083297 -0.082514 -0.081804 -0.081172 -0.080620 -0.080149 -0.079760 -0.079453 -0.079229 -0.079086 -0.079023 -0.079038 -0.079129 -0.079293 -0.079528 -0.079829 -0.080195 -0.080621 -0.081104 -0.081640 -0.082225 -0.082855 -0.083527 -0.084236 -0.084979 -0.085752 -0.086552 -0.087374 -0.088215 -0.089072 -0.089943 -0.090823 -0.091710 -0.092602 -0.093495 -0.094387 -0.095275 -0.096155 -0.097022 -0.097874 -0.098703 -0.099505 -0.100274 -0.101003 -0.101684 -0.102312 -0.102879 -0.103377 -0.103800 -0.104142 -0.104396 -0.104555 -0.104616 -0.104574 -0.104424 -0.104164 -0.103791 -0.103303 -0.102701 -0.101982 -0.101149 -0.100202 -0.099144 -0.097977 -0.096704 -0.095329 -0.093857 -0.092291 -0.090637 -0.088901 -0.087088 -0.085203 -0.083252 -0.081243 -0.079179 -0.077069 -0.074918 -0.072732 -0.070516 -0.068277 -0.066021 -0.063752 -0.061476 -0.059198 -0.056923 -0.054656 -0.052400 -0.050160 -0.047940 -0.045742 -0.043572 -0.041431 -0.039322 -0.037247 -0.035210 -0.033212 -0.031254 -0.029339 -0.027467 -0.025640 -0.023859 -0.022124 -0.020436 -0.018796 -0.017204 -0.015660 -0.014164 -0.012716 -0.011315 -0.009962 -0.008656 -0.007398 -0.006190 -0.005036 -0.003943 -0.002921 -0.001983 -0.001144 -0.000425 0.000152 0.000564 0.000783 0.000782 0.000533 0.000006 -0.000826 -0.001990 -0.003513 -0.005418 -0.007728 -0.010459 -0.013630 -0.017253 -0.021337 -0.025890 -0.030914 -0.036410 -0.042374 -0.048800 -0.055678 -0.062998 -0.070743 -0.078899 -0.087445 -0.096361 -0.105626 -0.115214 -0.125101 -0.135263 -0.145672 -0.156302 -0.167125 -0.178116 -0.189246 -0.200490 -0.211822 -0.223216 -0.234647 -0.246092 -0.257528 -0.268931 -0.280283 -0.291562 -0.302749 -0.313828 -0.324782 -0.335595 -0.346254 -0.356746 -0.367058 -0.377181 -0.387103 -0.396814 -0.406303 -0.415555 -0.424556 -0.433289 -0.441732 -0.449864 -0.457660 -0.465094 -0.472138 -0.478763 -0.484942 -0.490645 -0.495845 -0.500515 -0.504631 -0.508172 -0.511120 -0.513464 -0.515196 -0.516317 -0.516833 -0.516758 -0.516111 -0.514919 -0.513212 -0.511029 -0.508409 -0.505399 -0.502045 -0.498396 -0.494504 -0.490420 -0.486194 -0.481877 -0.477515 -0.473157 -0.468845 -0.464622 -0.460524 -0.456586 -0.452841 -0.449314 -0.446031 -0.443012 -0.440275 -0.437831 -0.435693 -0.433866 -0.432356 -0.431164 -0.430288 -0.429724 -0.429469 -0.429513 -0.429847 -0.430461 -0.431344 -0.432481 -0.433859 -0.435463 -0.437278 -0.439289 -0.441481 -0.443836 -0.446340 -0.448976 -0.451731 -0.454588 -0.457533 -0.460552 -0.463631 -0.466759 -0.469921 -0.473108 -0.476307 -0.479507 -0.482696 -0.485862 -0.488988 -0.492059 -0.495053 -0.497948 -0.500719 -0.503338 -0.505776 -0.508003 -0.509986 -0.511694 -0.513095 -0.514157 -0.514851 -0.515149 -0.515026 -0.514464 -0.513447 -0.511967 -0.510020 -0.507613 -0.504755 -0.501465 -0.497766 -0.493688 -0.489265 -0.484535 -0.479540 -0.474324 -0.468934 -0.463417 -0.457820 -0.452191 -0.446574 -0.441016 -0.435557 -0.430239 -0.425098 -0.420168 -0.415480 -0.411062 -0.406937 -0.403127 -0.399648 -0.396513 -0.393733 -0.391316 -0.389265 -0.387582 -0.386265 -0.385310 -0.384713 -0.384464 -0.384554 -0.384971 -0.385703 -0.386736 -0.388055 -0.389645 -0.391489 -0.393571 -0.395873 -0.398379 -0.401072 -0.403934 -0.406949 -0.410101 -0.413372 -0.416748 -0.420214 -0.423755 -0.427358 -0.431008 -0.434694 -0.438403 -0.442123 -0.445840 -0.449539 -0.453204 -0.456814 -0.460348 -0.463781 -0.467086 -0.470234 -0.473194 -0.475934 -0.478420 -0.480622 -0.482504 -0.484038 -0.485192 -0.485940 -0.486259 -0.486130 -0.485542 -0.484488 -0.482969 -0.480993 -0.478572 -0.475727 -0.472484 -0.468875 -0.464936 -0.460705 -0.456226 -0.451544 -0.446704 -0.441753 -0.436738 -0.431705 -0.426699 -0.421762 -0.416936 -0.412258 -0.407763 -0.403485 -0.399450 -0.395686 -0.392213 -0.389050 -0.386213 -0.383712 -0.381558 -0.379754 -0.378305 -0.377209 -0.376465 -0.376068 -0.376010 -0.376284 -0.376878 -0.377780 -0.378978 -0.380458 -0.382204 -0.384202 -0.386434 -0.388884 -0.391535 -0.394372 -0.397376 -0.400532 -0.403823 -0.407233 -0.410747 -0.414350 -0.418027 -0.421765 -0.425549 -0.429368 -0.433210 -0.437062 -0.440911 -0.444744 -0.448545 -0.452295 -0.455973 -0.459556 -0.463018 -0.466331 -0.469465 -0.472388 -0.475068 -0.477472 -0.479567 -0.481322 -0.482706 -0.483690 -0.484249 -0.484358 -0.483995 -0.483144 -0.481789 -0.479920 -0.477529 -0.474612 -0.471167 -0.467199 -0.462713 -0.457718 -0.452227 -0.446252 -0.439813 -0.432928 -0.425619 -0.417908 -0.409820 -0.401380 -0.392615 -0.383553 -0.374220 -0.364646 -0.354857 -0.344883 -0.334749 -0.324485 -0.314116 -0.303669 -0.293167 -0.282636 -0.272099 -0.261577 -0.251092 -0.240664 -0.230310 -0.220049 -0.209897 -0.199869 -0.189979 -0.180239 -0.170660 -0.161254 -0.152029 -0.142993 -0.134154 -0.125517 -0.117088 -0.108872 -0.100871 -0.093088 -0.085526 -0.078186 -0.071068 -0.064172 -0.057498 -0.051044 -0.044810 -0.038793 -0.032991 -0.027399 -0.022014 -0.016829 -0.011836 -0.007028 -0.002393 0.002081 0.006405 0.010594 0.014662 0.018625 0.022498 0.026297 0.030037 0.033734 0.037401 0.041052 0.044701 0.048359 0.052037 0.055743 0.059487 0.063275 0.067112 0.071002 0.074948 0.078952 0.083014 0.087133 0.091307 0.095534 0.099810 0.104130 0.108489 0.112881 0.117300 0.121740 0.126193 0.130653 0.135111 0.139561 0.143995 0.148405 0.152784 0.157124 0.161420 0.165663 0.169849 0.173970 0.178021 0.181997 0.185892 0.189702 0.193423 0.197051 0.200583 0.204015 0.207345 0.210571 0.213690 0.216701 0.219601 0.222386 0.225053 0.227595 0.230007 0.232282 0.234413 0.236389 0.238204 0.239846 0.241306 0.242574 0.243643 0.244501 0.245142 0.245558 0.245742 0.245691 0.245402 0.244873 0.244108 0.243110 0.241886 0.240447 0.238804 0.236970 0.234962 0.232797 0.230494 0.228072 0.225552 0.222954 0.220300 0.217609 0.214902 0.212198 0.209517 0.206874 0.204288 0.201772 0.199340 0.197006 0.194779 0.192669 0.190685 0.188832 0.187115 0.185539 0.184106 0.182818 0.181674 0.180674 0.179817 0.179099 0.178518 0.178069 0.177748 0.177550 0.177469 0.177500 0.177635 0.177870 0.178197 0.178609 0.179101 0.179666 0.180296 0.180987 0.181731 0.182522 0.183356 0.184225 0.185124 0.186048 0.186993 0.187954 0.188927 0.189905 0.190885 0.191860 0.192823 0.193767 0.194684 0.195562 0.196392 0.197163 0.197862 0.198477 0.198996 0.199406 0.199695 0.199852 0.199865 0.199724 0.199422 0.198950 0.198305 0.197484 0.196487 0.195318 0.193981 0.192485 0.190840 0.189058 0.187152 0.185139 0.183035 0.180857 0.178624 0.176354 0.174065 0.171775 0.169503 0.167264 0.165076 0.162952 0.160908 0.158955 0.157106 0.155369 0.153754 0.152268 0.150918 0.149707 0.148639 0.147717 0.146941 0.146311 0.145827 0.145486 0.145286 0.145223 0.145293 0.145492 0.145813 0.146251 0.146801 0.147455 0.148208 0.149052 0.149981 0.150988 0.152066 0.153209 0.154410 0.155662 0.156960 0.158297 0.159667 0.161064 0.162484 0.163921 0.165370 0.166827 0.168286 0.169743 0.171192 0.172625 0.174034 0.175413 0.176750 0.178035 0.179257 0.180403 0.181463 0.182422 0.183269 0.183991 0.184577 0.185014 0.185294 0.185407 0.185347 0.185109 0.184691 0.184094 0.183321 0.182377 0.181271 0.180012 0.178613 0.177088 0.175452 0.173721 0.171913 0.170046 0.168138 0.166206 0.164269 0.162343 0.160445 0.158591 0.156795 0.155071 0.153431 0.151885 0.150444 0.149116 0.147908 0.146826 0.145874 0.145055 0.144372 0.143825 0.143414 0.143139 0.142997 0.142986 0.143102 0.143342 0.143701 0.144172 0.144752 0.145434 0.146212 0.147081 0.148032 0.149061 0.150160 0.151324 0.152545 0.153818 0.155137 0.156494 0.157886 0.159306 0.160748 0.162208 0.163681 0.165163 0.166647 0.168131 0.169608 0.171072 0.172517 0.173933 0.175313 0.176647 0.177923 0.179130 0.180256 0.181290 0.182217 0.183026 0.183705 0.184242 0.184626 0.184847 0.184896 0.184765 0.184447 0.183936 0.183229 0.182322 0.181214 0.179904 0.178395 0.176687 0.174785 0.172693 0.170417 0.167962 0.165338 0.162551 0.159611 0.156527 0.153308 0.149965 0.146508 0.142948 0.139295 0.135561 0.131755 0.127889 0.123972 0.120016 0.116029 0.112022 0.108003 0.103982 0.099966 0.095965 0.091985 0.088033 0.084117 0.080242 0.076415 0.072640 0.068922 0.065266 0.061675 0.058153 0.054704 0.051330 0.048032 0.044814 0.041678 0.038623 0.035652 0.032764 0.029962 0.027244 0.024610 0.022062 0.019598 0.017217 0.014919 0.012703 0.010568 0.008510 0.006528 0.004619 0.002777 0.000998 -0.000724 -0.002395 -0.004023 -0.005614 -0.007177 -0.008719 -0.010249 -0.011775 -0.013304 -0.014845 -0.016403 -0.017986 -0.019600 -0.021250 -0.022941 -0.024677 -0.026461 -0.028295 -0.030182 -0.032122 -0.034116 -0.036163 -0.038263 -0.040413 -0.042612 -0.044857 -0.047144 -0.049472 -0.051834 -0.054229 -0.056651 -0.059095 -0.061558 -0.064035 -0.066520 -0.069009 -0.071497 -0.073980 -0.076453 -0.078911 -0.081351 -0.083768 -0.086158 -0.088518 -0.090844 -0.093133 -0.095382 -0.097588 -0.099749 -0.101861 -0.103923 -0.105934 -0.107891 -0.109794 -0.111640 -0.113427 -0.115154 -0.116818 -0.118416 -0.119945 -0.121399 -0.122775 -0.124067 -0.125270 -0.126378 -0.127386 -0.128288 -0.129078 -0.129752 -0.130303 -0.130729 -0.131024 -0.131188 -0.131219 -0.131117 -0.130884 -0.130523 -0.130038 -0.129436 -0.128722 -0.127907 -0.126998 -0.126005 -0.124940 -0.123812 -0.122634 -0.121415 -0.120169 -0.118905 -0.117633 -0.116366 -0.115111 -0.113878 -0.112676 -0.111512 -0.110392 -0.109324 -0.108313 -0.107363 -0.106477 -0.105660 -0.104913 -0.104237 -0.103635 -0.103106 -0.102650 -0.102267 -0.101955 -0.101713 -0.101539 -0.101430 -0.101384 -0.101399 -0.101470 -0.101596 -0.101772 -0.101995 -0.102263 -0.102571 -0.102915 -0.103294 -0.103703 -0.104138 -0.104598 -0.105078 -0.105576 -0.106089 -0.106614 -0.107148 -0.107690 -0.108236 -0.108784 -0.109331 -0.109874 -0.110408 -0.110930 -0.111434 -0.111916 -0.112368 -0.112784 -0.113158 -0.113482 -0.113751 -0.113955 -0.114090 -0.114147 -0.114122 -0.114008 -0.113800 -0.113496 -0.113092 -0.112588 -0.111983 -0.111280 -0.110481 -0.109592 -0.108619 -0.107567 -0.106447 -0.105265 -0.104033 -0.102760 -0.101456 -0.100133 -0.098800 -0.097468 -0.096147 -0.094847 -0.093576 -0.092345 -0.091159 -0.090028 -0.088956 -0.087951 -0.087016 -0.086156 -0.085375 -0.084674 -0.084056 -0.083522 -0.083073 -0.082709 -0.082428 -0.082230 -0.082113 -0.082075 -0.082114 -0.082227 -0.082411 -0.082662 -0.082977 -0.083353 -0.083785 -0.084269 -0.084803 -0.085382 -0.086001 -0.086658 -0.087349 -0.088069 -0.088815 -0.089584 -0.090372 -0.091176 -0.091992 -0.092819 -0.093653 -0.094491 -0.095331 -0.096170 -0.097004 -0.097829 -0.098641 -0.099435 -0.100205 -0.100946 -0.101651 -0.102314 -0.102926 -0.103482 -0.103973 -0.104393 -0.104736 -0.104994 -0.105162 -0.105234 -0.105207 -0.105077 -0.104843 -0.104505 -0.104062 -0.103519 -0.102880 -0.102149 -0.101333 -0.100440 -0.099479 -0.098459 -0.097390 -0.096282 -0.095145 -0.093992 -0.092830 -0.091672 -0.090527 -0.089405 -0.088313 -0.087261 -0.086256 -0.085305 -0.084413 -0.083587 -0.082831 -0.082148 -0.081541 -0.081013 -0.080565 -0.080199 -0.079913 -0.079709 -0.079584 -0.079538 -0.079569 -0.079675 -0.079853 -0.080100 -0.080413 -0.080788 -0.081222 -0.081712 -0.082254 -0.082843 -0.083476 -0.084150 -0.084860 -0.085602 -0.086374 -0.087170 -0.087989 -0.088826 -0.089678 -0.090543 -0.091416 -0.092296 -0.093180 -0.094065 -0.094948 -0.095825 -0.096694 -0.097550 -0.098389 -0.099205 -0.099993 -0.100745 -0.101457 -0.102120 -0.102728 -0.103273 -0.103749 -0.104148 -0.104465 -0.104692 -0.104825 -0.104858 -0.104787 -0.104608 -0.104318 -0.103915 -0.103397 -0.102765 -0.102016 -0.101154 -0.100178 -0.099091 -0.097896 -0.096596 -0.095196 -0.093698 -0.092109 -0.090432 -0.088674 -0.086841 -0.084937 -0.082969 -0.080943 -0.078865 -0.076741 -0.074577 -0.072380 -0.070155 -0.067907 -0.065643 -0.063368 -0.061088 -0.058806 -0.056528 -0.054259 -0.052003 -0.049763 -0.047543 -0.045348 -0.043180 -0.041042 -0.038937 -0.036867 -0.034834 -0.032841 -0.030889 -0.028980 -0.027114 -0.025294 -0.023520 -0.021793 -0.020113 -0.018480 -0.016896 -0.015360 -0.013871 -0.012431 -0.011038 -0.009693 -0.008394 -0.007141 -0.005931 -0.004761 -0.003627 -0.002524 -0.001445 -0.000381 0.000677 0.001738 0.002814 0.003916 0.005057 0.006249 0.007504 0.008833 0.010249 0.011761 0.013380 0.015115 0.016973 0.018961 0.021085 0.023349 0.025755 0.028305 0.031000 0.033839 0.036820 0.039940 0.043194 0.046577 0.050085 0.053709 0.057443 0.061278 0.065207 0.069220 0.073309 0.077464 0.081676 0.085935 0.090231 0.094556 0.098900 0.103254 0.107609 0.111956 0.116287 0.120595 0.124871 0.129109 0.133302 0.137444 0.141528 0.145550 0.149504 0.153385 0.157191 0.160916 0.164558 0.168112 0.171576 0.174945 0.178213 0.181376 0.184425 0.187354 0.190153 0.192814 0.195326 0.197678 0.199861 0.201864 0.203677 0.205289 0.206691 0.207875 0.208834 0.209563 0.210059 0.210323 0.210355 0.210160 0.209746 0.209121 0.208298 0.207291 0.206114 0.204784 0.203319 0.201739 0.200062 0.198308 0.196496 0.194646 0.192776 0.190904 0.189047 0.187221 0.185441 0.183721 0.182072 0.180506 0.179033 0.177660 0.176394 0.175241 0.174205 0.173290 0.172497 0.171828 0.171281 0.170856 0.170551 0.170364 0.170291 0.170328 0.170471 0.170715 0.171054 0.171484 0.171999 0.172593 0.173259 0.173993 0.174787 0.175637 0.176535 0.177477 0.178457 0.179470 0.180509 0.181571 0.182651 0.183743 0.184844 0.185950 0.187056 0.188156 0.189246 0.190319 0.191368 0.192383 0.193356 0.194276 0.195131 0.195912 0.196604 0.197196 0.197676 0.198032 0.198252 0.198324 0.198241 0.197992 0.197571 0.196975 0.196199 0.195246 0.194118 0.192820 0.191361 0.189750 0.188000 0.186125 0.184141 0.182064 0.179912 0.177703 0.175455 0.173187 0.170918 0.168664 0.166443 0.164271 0.162162 0.160132 0.158193 0.156355 0.154630 0.153026 0.151550 0.150209 0.149007 0.147947 0.147032 0.146263 0.145640 0.145162 0.144827 0.144633 0.144575 0.144650 0.144852 0.145178 0.145620 0.146174 0.146832 0.147588 0.148436 0.149368 0.150379 0.151461 0.152608 0.153813 0.155069 0.156371 0.157712 0.159086 0.160489 0.161913 0.163355 0.164809 0.166271 0.167736 0.169199 0.170652 0.172091 0.173506 0.174891 0.176233 0.177525 0.178753 0.179906 0.180972 0.181938 0.182791 0.183520 0.184112 0.184557 0.184843 0.184963 0.184910 0.184679 0.184269 0.183679 0.182913 0.181977 0.180878 0.179626 0.178234 0.176717 0.175088 0.173365 0.171564 0.169705 0.167804 0.165879 0.163949 0.162031 0.160140 0.158293 0.156504 0.154787 0.153154 0.151615 0.150181 0.148860 0.147659 0.146583 0.145638 0.144825 0.144149 0.143608 0.143203 0.142934 0.142798 0.142793 0.142915 0.143159 0.143523 0.144000 0.144585 0.145271 0.146054 0.146927 0.147883 0.148917 0.150020 0.151188 0.152414 0.153691 0.155013 0.156375 0.157771 0.159194 0.160640 0.162104 0.163581 0.165065 0.166554 0.168040 0.169521 0.170988 0.172435 0.173855 0.175238 0.176574 0.177853 0.179062 0.180191 0.181227 0.182156 0.182968 0.183649 0.184188 0.184574 0.184797 0.184848 0.184719 0.184402 0.183894 0.183188 0.182283 0.181176 0.179869 0.178360 0.176654 0.174753 0.172663 0.170387 0.167935 0.165311 0.162526 0.159587 0.156503 0.153285 0.149943 0.146487 0.142928 0.139277 0.135543 0.131738 0.127873 0.123957 0.120001 0.116015 0.112008 0.107990 0.103969 0.099954 0.095953 0.091974 0.088023 0.084107 0.080233 0.076405 0.072631 0.068913 0.065258 0.061667 0.058146 0.054697 0.051323 0.048026 0.044809 0.041672 0.038618 0.035646 0.032759 0.029957 0.027239 0.024606 0.022058 0.019594 0.017213 0.014916 0.012699 0.010563 0.008504 0.006520 0.004606 0.002757 0.000969 -0.000764 -0.002450 -0.004096 -0.005710 -0.007299 -0.008871 -0.010435 -0.011998 -0.013568 -0.015153 -0.016758 -0.018392 -0.020058 -0.021763 -0.023509 -0.025302 -0.027144 -0.029037 -0.030982 -0.032979 -0.035029 -0.037132 -0.039285 -0.041487 -0.043735 -0.046026 -0.048358 -0.050726 -0.053127 -0.055557 -0.058010 -0.060482 -0.062970 -0.065468 -0.067970 -0.070474 -0.072973 -0.075464 -0.077941 -0.080401 -0.082839 -0.085252 -0.087635 -0.089985 -0.092299 -0.094574 -0.096806 -0.098994 -0.101134 -0.103224 -0.105263 -0.107248 -0.109179 -0.111054 -0.112871 -0.114627 -0.116322 -0.117951 -0.119512 -0.121000 -0.122412 -0.123741 -0.124984 -0.126133 -0.127184 -0.128132 -0.128969 -0.129691 -0.130294 -0.130771 -0.131120 -0.131336 -0.131420 -0.131369 -0.131184 -0.130869 -0.130426 -0.129861 -0.129179 -0.128390 -0.127500 -0.126521 -0.125461 -0.124332 -0.123146 -0.121912 -0.120643 -0.119351 -0.118045 -0.116737 -0.115437 -0.114155 -0.112899 -0.111677 -0.110498 -0.109368 -0.108292 -0.107277 -0.106326 -0.105443 -0.104631 -0.103891 -0.103226 -0.102636 -0.102122 -0.101682 -0.101316 -0.101023 -0.100801 -0.100648 -0.100561 -0.100538 -0.100575 -0.100670 -0.100819 -0.101018 -0.101265 -0.101556 -0.101888 -0.102256 -0.102657 -0.103088 -0.103546 -0.104028 -0.104529 -0.105048 -0.105581 -0.106126 -0.106679 -0.107239 -0.107803 -0.108369 -0.108932 -0.109491 -0.110040 -0.110575 -0.111091 -0.111583 -0.112044 -0.112468 -0.112848 -0.113176 -0.113447 -0.113652 -0.113785 -0.113840 -0.113811 -0.113692 -0.113478 -0.113167 -0.112757 -0.112247 -0.111638 -0.110933 -0.110134 -0.109248 -0.108281 -0.107239 -0.106132 -0.104969 -0.103759 -0.102513 -0.101240 -0.099951 -0.098657 -0.097368 -0.096093 -0.094842 -0.093623 -0.092445 -0.091315 -0.090241 -0.089227 -0.088279 -0.087403 -0.086601 -0.085877 -0.085233 -0.084670 -0.084189 -0.083791 -0.083476 -0.083241 -0.083088 -0.083012 -0.083012 -0.083087 -0.083232 -0.083445 -0.083722 -0.084060 -0.084456 -0.084904 -0.085403 -0.085948 -0.086534 -0.087160 -0.087819 -0.088510 -0.089228 -0.089969 -0.090732 -0.091511 -0.092304 -0.093109 -0.093922 -0.094740 -0.095561 -0.096383 -0.097201 -0.098012 -0.098813 -0.099597 -0.100361 -0.101098 -0.101802 -0.102466 -0.103084 -0.103647 -0.104150 -0.104585 -0.104945 -0.105224 -0.105415 -0.105513 -0.105515 -0.105417 -0.105218 -0.104917 -0.104516 -0.104017 -0.103425 -0.102745 -0.101984 -0.101149 -0.100249 -0.099293 -0.098290 -0.097251 -0.096185 -0.095104 -0.094016 -0.092932 -0.091861 -0.090812 -0.089793 -0.088813 -0.087878 -0.086994 -0.086169 -0.085405 -0.084708 -0.084081 -0.083526 -0.083047 -0.082643 -0.082316 -0.082065 -0.081891 -0.081793 -0.081768 -0.081816 -0.081934 -0.082119 -0.082369 -0.082681 -0.083052 -0.083477 -0.083954 -0.084479 -0.085049 -0.085659 -0.086306 -0.086987 -0.087698 -0.088435 -0.089195 -0.089976 -0.090773 -0.091583 -0.092404 -0.093233 -0.094068 -0.094905 -0.095742 -0.096576 -0.097404 -0.098221 -0.099024 -0.099807 -0.100565 -0.101292 -0.101981 -0.102625 -0.103218 -0.103753 -0.104221 -0.104617 -0.104934 -0.105165 -0.105304 -0.105347 -0.105288 -0.105124 -0.104851 -0.104466 -0.103968 -0.103356 -0.102629 -0.101788 -0.100835 -0.099770 -0.098596 -0.097318 -0.095937 -0.094458 -0.092887 -0.091227 -0.089484 -0.087663 -0.085771 -0.083812 -0.081794 -0.079722 -0.077602 -0.075441 -0.073244 -0.071017 -0.068766 -0.066498 -0.064216 -0.061927 -0.059636 -0.057347 -0.055065 -0.052795 -0.050540 -0.048305 -0.046092 -0.043906 -0.041749 -0.039625 -0.037535 -0.035482 -0.033468 -0.031495 -0.029564 -0.027678 -0.025836 -0.024040 -0.022291 -0.020589 -0.018935 -0.017329 -0.015772 -0.014263 -0.012802 -0.011389 -0.010024 -0.008706 -0.007435 -0.006208 -0.005024 -0.003878 -0.002766 -0.001682 -0.000619 0.000432 0.001480 0.002537 0.003613 0.004720 0.005871 0.007078 0.008352 0.009706 0.011151 0.012696 0.014352 0.016127 0.018028 0.020062 0.022233 0.024546 0.027002 0.029603 0.032348 0.035236 0.038266 0.041432 0.044732 0.048159 0.051707 0.055369 0.059138 0.063005 0.066963 0.071001 0.075111 0.079284 0.083510 0.087780 0.092083 0.096411 0.100755 0.105105 0.109452 0.113789 0.118107 0.122399 0.126656 0.130872 0.135041 0.139156 0.143212 0.147203 0.151125 0.154973 0.158743 0.162431 0.166035 0.169551 0.172974 0.176300 0.179524 0.182639 0.185639 0.188514 0.191257 0.193856 0.196304 0.198588 0.200698 0.202624 0.204355 0.205882 0.207196 0.208288 0.209153 0.209784 0.210180 0.210340 0.210265 0.209961 0.209435 0.208695 0.207755 0.206627 0.205327 0.203874 0.202283 0.200576 0.198772 0.196890 0.194951 0.192975 0.190980 0.188985 0.187008 0.185066 0.183172 0.181343 0.179590 0.177924 0.176357 0.174895 0.173548 0.172319 0.171214 0.170236 0.169387 0.168669 0.168079 0.167619 0.167286 0.167076 0.166988 0.167016 0.167156 0.167403 0.167751 0.168196 0.168730 0.169348 0.170044 0.170811 0.171643 0.172534 0.173478 0.174468 0.175499 0.176566 0.177662 0.178782 0.179922 0.181076 0.182241 0.183412 0.184583 0.185751 0.186911 0.188055 0.189176 0.190267 0.191319 0.192321 0.193262 0.194131 0.194916 0.195605 0.196186 0.196645 0.196972 0.197155 0.197184 0.197050 0.196745 0.196264 0.195603 0.194762 0.193741 0.192546 0.191183 0.189662 0.187993 0.186190 0.184269 0.182244 0.180134 0.177956 0.175729 0.173472 0.171203 0.168941 0.166702 0.164504 0.162362 0.160291 0.158305 0.156415 0.154633 0.152968 0.151429 0.150022 0.148752 0.147625 0.146642 0.145805 0.145115 0.144572 0.144174 0.143918 0.143803 0.143822 0.143974 0.144251 0.144650 0.145163 0.145784 0.146508 0.147327 0.148236 0.149226 0.150291 0.151425 0.152620 0.153871 0.155171 0.156512 0.157891 0.159300 0.160734 0.162188 0.163656 0.165135 0.166619 0.168102 0.169581 0.171048 0.172496 0.173917 0.175302 0.176641 0.177924 0.179138 0.180271 0.181312 0.182247 0.183065 0.183752 0.184298 0.184691 0.184922 0.184984 0.184870 0.184578 0.184107 0.183459 0.182637 0.181649 0.180503 0.179212 0.177788 0.176245 0.174600 0.172869 0.171070 0.169221 0.167339 0.165442 0.163548 0.161673 0.159833 0.158043 0.156317 0.154668 0.153107 0.151645 0.150290 0.149050 0.147932 0.146939 0.146077 0.145348 0.144753 0.144292 0.143965 0.143771 0.143708 0.143771 0.143958 0.144264 0.144685 0.145215 0.145848 0.146579 0.147402 0.148310 0.149297 0.150356 0.151482 0.152668 0.153908 0.155195 0.156524 0.157888 0.159282 0.160702 0.162141 0.163595 0.165059 0.166528 0.167998 0.169464 0.170920 0.172359 0.173774 0.175156 0.176495 0.177782 0.179005 0.180152 0.181212 0.182170 0.183016 0.183736 0.184320 0.184755 0.185031 0.185139 0.185070 0.184817 0.184373 0.183735 0.182899 0.181862 0.180624 0.179185 0.177547 0.175714 0.173689 0.171478 0.169086 0.166521 0.163791 0.160904 0.157869 0.154696 0.151395 0.147976 0.144450 0.140827 0.137118 0.133334 0.129486 0.125583 0.121636 0.117655 0.113650 0.109630 0.105605 0.101582 0.097569 0.093576 0.089608 0.085674 0.081778 0.077928 0.074128 0.070384 0.066699 0.063079 0.059527 0.056046 0.052639 0.049308 0.046056 0.042885 0.039795 0.036789 0.033866 0.031028 0.028275 0.025606 0.023023 0.020524 0.018109 0.015776 0.013525 0.011352 0.009250 0.007211 0.005223 0.003271 0.001337 -0.000601 -0.002568 -0.004591 -0.006698 -0.008920 -0.011287 -0.013832 -0.016584 -0.019574 -0.022830 -0.026378 -0.030243 -0.034446 -0.039005 -0.043937 -0.049252 -0.054961 -0.061068 -0.067576 -0.074484 -0.081788 -0.089481 -0.097552 -0.105990 -0.114779 -0.123903 -0.133343 -0.143079 -0.153089 -0.163349 -0.173836 -0.184525 -0.195391 -0.206409 -0.217554 -0.228800 -0.240122 -0.251496 -0.262897 -0.274302 -0.285688 -0.297035 -0.308321 -0.319526 -0.330632 -0.341621 -0.352478 -0.363185 -0.373731 -0.384100 -0.394282 -0.404267 -0.414043 -0.423602 -0.432935 -0.442030 -0.450875 -0.459456 -0.467756 -0.475756 -0.483434 -0.490767 -0.497729 -0.504293 -0.510431 -0.516116 -0.521320 -0.526015 -0.530177 -0.533781 -0.536808 -0.539240 -0.541067 -0.542283 -0.542890 -0.542895 -0.542313 -0.541164 -0.539476 -0.537281 -0.534617 -0.531526 -0.528052 -0.524244 -0.520152 -0.515825 -0.511316 -0.506674 -0.501950 -0.497191 -0.492444 -0.487751 -0.483154 -0.478690 -0.474394 -0.470295 -0.466421 -0.462797 -0.459441 -0.456370 -0.453598 -0.451135 -0.448987 -0.447159 -0.445651 -0.444462 -0.443589 -0.443026 -0.442764 -0.442795 -0.443109 -0.443693 -0.444533 -0.445617 -0.446929 -0.448455 -0.450179 -0.452085 -0.454159 -0.456383 -0.458744 -0.461225 -0.463812 -0.466491 -0.469247 -0.472067 -0.474939 -0.477850 -0.480788 -0.483743 -0.486703 -0.489656 -0.492589 -0.495486 -0.498328 -0.501096 -0.503766 -0.506312 -0.508707 -0.510921 -0.512922 -0.514678 -0.516158 -0.517330 -0.518162 -0.518625 -0.518692 -0.518336 -0.517538 -0.516282 -0.514556 -0.512356 -0.509685 -0.506553 -0.502974 -0.498972 -0.494573 -0.489813 -0.484729 -0.479362 -0.473757 -0.467963 -0.462026 -0.455996 -0.449923 -0.443854 -0.437836 -0.431914 -0.426130 -0.420525 -0.415135 -0.409992 -0.405128 -0.400568 -0.396336 -0.392450 -0.388925 -0.385775 -0.383007 -0.380627 -0.378637 -0.377038 -0.375825 -0.374994 -0.374537 -0.374444 -0.374704 -0.375304 -0.376230 -0.377467 -0.378997 -0.380805 -0.382874 -0.385184 -0.387718 -0.390459 -0.393388 -0.396487 -0.399739 -0.403126 -0.406633 -0.410242 -0.413939 -0.417708 -0.421535 -0.425406 -0.429309 -0.433230 -0.437158 -0.441077 -0.444973 -0.448827 -0.452620 -0.456328 -0.459926 -0.463387 -0.466681 -0.469777 -0.472642 -0.475244 -0.477549 -0.479526 -0.481143 -0.482371 -0.483183 -0.483557 -0.483476 -0.482928 -0.481907 -0.480415 -0.478459 -0.476055 -0.473224 -0.469991 -0.466390 -0.462457 -0.458232 -0.453757 -0.449080 -0.444245 -0.439301 -0.434295 -0.429272 -0.424279 -0.419357 -0.414548 -0.409891 -0.405420 -0.401168 -0.397163 -0.393431 -0.389994 -0.386870 -0.384074 -0.381618 -0.379511 -0.377756 -0.376359 -0.375317 -0.374629 -0.374289 -0.374290 -0.374624 -0.375279 -0.376245 -0.377506 -0.379050 -0.380861 -0.382922 -0.385219 -0.387733 -0.390449 -0.393349 -0.396416 -0.399634 -0.402986 -0.406456 -0.410029 -0.413690 -0.417423 -0.421216 -0.425054 -0.428925 -0.432818 -0.436719 -0.440616 -0.444495 -0.448340 -0.452132 -0.455852 -0.459474 -0.462975 -0.466324 -0.469492 -0.472448 -0.475159 -0.477593 -0.479717 -0.481498 -0.482908 -0.483917 -0.484498 -0.484628 -0.484285 -0.483453 -0.482116 -0.480263 -0.477887 -0.474984 -0.471553 -0.467597 -0.463122 -0.458137 -0.452655 -0.446689 -0.440258 -0.433380 -0.426076 -0.418371 -0.410287 -0.401852 -0.393091 -0.384031 -0.374701 -0.365128 -0.355341 -0.345367 -0.335235 -0.324971 -0.314601 -0.304153 -0.293650 -0.283118 -0.272579 -0.262055 -0.251568 -0.241137 -0.230780 