-7.301631 -7.159041 -7.018607 -6.880314 -6.744147 -6.610091 -6.478131 -6.348251 -6.132893 -6.142334 -7.289482 -7.494279 -6.755026 -5.474079 -5.060182 -7.070094 -8.276462 -7.060145 -6.868869 -6.615899 -5.243017 -5.582524 -6.710725 -6.675833 -6.492042 -5.159896 -3.819666 -3.347246 -3.918479 -5.563430 -6.449645 -5.473716 -5.290631 -5.115215 -4.350553 -3.596462 -4.180240 -6.593377 -6.793286 -7.237704 -6.892663 -5.268519 -5.644639 -5.689430 -5.865078 -6.637392 -7.407988 -7.803865 -6.680339 -6.077699 -4.147841 -3.239996 -3.678766 -4.381726 -3.972075 -4.317263 -4.054284 -2.728059 -1.742473 -2.820032 -3.207779 -3.729915 -4.846143 -5.065088 -4.225819 -4.126207 -4.176325 -3.600658 -3.303990 -2.921402 -3.704860 -4.125373 -5.079006 -4.921064 -4.238141 -4.301796 -4.913524 -5.060548 -5.503282 -5.771981 -7.182488 -7.606051 -6.635398 -6.183143 -4.863352 -4.346589 -5.237760 -6.568204 -8.143483 -8.025831 -6.695438 -5.097591 -4.438243 -5.194756 -6.832369 -7.726485 -6.956998 -5.898274 -4.798892 -4.574165 -4.858543 -3.866204 -5.037229 -3.745171 -3.415732 -2.904994 -2.593111 -3.600583 -2.472890 -2.258862 -2.909135 -2.674182 -3.465177 -3.366043 -2.295469 -2.310015 -2.848716 -1.989290 -0.980284 -1.141409 -3.762680 -2.833599 -2.195495 -2.741351 -0.818774 -0.385125 -1.677775 -1.796891 -0.754873 -0.726940 -1.617857 0.289330 0.937736 1.092754 0.681204 -0.293152 0.152791 0.427754 0.886150 1.565441 1.749590 0.626762 1.072929 1.374574 0.728339 1.085668 2.548740 1.860904 1.011936 1.682842 4.415761 4.821598 3.694699 3.634571 2.545492 1.105480 1.484836 3.118743 3.686035 2.191324 0.930524 0.226826 -0.424803 -0.355594 0.371563 0.828012 0.160301 0.499002 0.278433 0.883945 1.758995 2.816451 2.498950 2.171416 2.042687 2.401805 2.858924 1.993385 1.388266 0.659169 0.083026 0.195572 1.325607 1.352742 -0.234548 -2.555756 -2.728560 -2.998541 -3.057727 -3.132876 -2.836715 -2.714037 -3.833329 -4.839828 -5.816601 -6.898803 -5.706869 -4.505248 -3.510229 -2.910050 -3.432042 -4.357404 -3.868199 -2.733518 -2.175920 -1.581071 -1.235849 -2.178793 -2.049552 -3.278263 -3.809234 -3.646285 -3.325433 -2.755839 -3.587751 -3.557283 -4.877017 -7.029700 -6.698585 -7.023139 -6.255023 -6.058822 -6.724770 -7.297271 -7.835343 -8.226399 -7.884057 -6.400934 -6.019620 -6.376083 -4.977402 -8.618167 -8.842015 -8.415258 -7.100291 -6.341230 -7.257769 -8.857297 -8.749362 -9.035837 -8.509550 -8.503479 -8.942593 -8.248122 -9.376605 -8.649851 -9.067922 -8.832902 -8.375616 -8.961593 -8.385198 -8.164595 -7.903116 -9.076250 -8.690595 -8.618210 -9.080518 -9.587104 -9.380258 -10.317629 -11.066411 -11.038301 -10.022495 -10.676539 -11.813493 -11.365125 -12.168895 -11.128935 -10.701582 -10.572455 -11.567657 -11.945083 -11.616138 -12.253013 -11.331279 -10.822493 -11.262751 -12.363082 -13.064254 -13.747741 -15.201204 -14.990950 -13.664070 -13.866341 -14.487078 -15.746509 -16.095105 -17.442550 -17.261266 -16.610288 -16.401529 -16.206023 -17.735177 -18.457165 -18.721245 -18.585786 -18.763167 -18.016115 -18.500973 -18.212820 -17.395360 -17.329256 -18.088052 -18.705894 -19.499379 -19.300806 -17.696984 -16.223613 -16.752910 -18.935550 -20.387750 -19.619324 -19.522065 -18.733597 -18.697983 -19.613849 -19.145088 -18.689670 -18.805163 -19.413921 -19.573441 -18.815896 -17.090830 -16.640857 -17.641068 -17.702154 -17.672658 -17.792983 -17.511815 -18.306092 -17.676305 -16.583493 -17.035826 -15.616009 -16.406452 -18.198101 -18.975441 -19.400679 -16.769914 -14.983875 -15.962623 -16.970573 -18.348016 -18.790672 -17.773496 -16.001225 -14.537671 -14.983059 -14.476529 -15.543409 -16.302500 -15.922474 -15.367610 -14.840021 -14.632586 -14.553248 -15.015719 -16.556813 -16.948444 -15.626010 -13.919462 -14.391543 -13.046935 -13.002987 -13.287220 -14.162194 -13.350563 -11.737849 -11.112479 -9.668559 -10.366921 -12.078045 -11.392489 -11.708263 -10.689241 -9.635154 -10.146642 -10.285200 -9.845441 -11.068410 -10.857808 -10.386177 -9.713818 -9.010032 -8.708120 -8.320426 -8.758675 -8.860627 -7.984304 -6.757536 -6.742417 -8.164949 -7.983712 -7.998554 -7.508425 -6.693013 -7.095659 -7.676623 -8.239246 -7.838761 -8.143888 -8.905700 -8.334766 -7.638192 -7.728409 -7.714147 -7.523287 -7.020370 -6.142174 -5.206705 -5.294807 -4.760922 -4.478976 -4.416374 -5.402352 -5.070360 -5.420205 -5.525643 -4.114299 -3.687144 -3.483606 -4.190228 -4.674747 -4.408022 -5.443250 -4.732363 -3.590181 -4.470223 -3.401311 -5.441757 -6.825412 -7.711940 -8.733835 -7.858577 -7.264338 -8.810037 -9.297852 -9.960802 -10.736852 -11.075455 -10.264751 -11.305467 -10.767221 -10.638735 -11.225093 -12.461581 -12.659801 -12.667678 -12.444629 -13.066473 -12.578809 -14.019978 -15.806163 -16.256620 -16.211767 -16.249604 -14.678012 -14.076264 -15.575428 -16.904369 -16.747692 -17.049517 -16.375680 -16.813586 -16.024759 -16.450797 -17.247705 -16.941648 -17.242156 -17.695323 -17.049373 -16.351001 -15.786727 -16.124476 -15.711295 -16.388370 -15.920258 -16.338007 -16.413621 -15.412032 -16.367449 -15.954619 -15.163353 -15.339363 -14.938010 -15.558019 -15.745715 -15.437096 -15.127976 -13.969880 -13.353508 -14.600937 -15.381428 -16.172234 -16.819082 -16.456016 -14.432558 -11.985422 -12.475620 -12.772864 -13.880401 -14.771225 -15.241153 -13.314071 -11.631357 -12.972997 -11.823481 -12.213498 -12.822403 -13.530545 -12.454257 -11.768534 -12.166777 -12.096034 -13.483258 -13.423005 -13.343987 -12.747302 -11.344217 -11.962413 -11.339016 -11.911234 -12.421058 -11.680162 -9.902344 -7.320740 -7.033113 -8.157587 -10.005572 -9.639891 -8.562516 -7.602198 -6.735495 -7.383098 -8.257680 -7.675726 -8.573589 -7.423321 -6.916420 -6.591173 -6.406074 -6.053563 -4.906019 -5.489134 -5.869624 -7.447983 -7.105392 -6.298433 -4.811027 -5.344782 -8.027775 -8.745278 -8.330188 -7.024054 -6.905187 -7.140496 -7.185483 -6.261166 -6.023782 -7.922778 -9.066101 -9.054786 -8.446600 -6.428673 -6.397950 -6.672124 -8.618480 -10.384943 -9.518786 -9.312910 -7.880087 -7.136795 -7.441068 -7.594839 -7.682934 -6.830855 -6.461122 -6.626378 -6.535286 -6.140723 -5.002015 -5.827059 -6.963538 -6.675407 -6.821132 -7.322765 -6.178278 -6.409733 -5.802749 -5.331555 -6.394028 -6.211390 -5.880020 -5.898660 -6.760507 -6.844465 -5.392386 -4.629695 -3.130121 -2.586936 -4.511145 -3.648641 -3.953966 -2.868804 -0.657669 -0.640094 -1.555589 -2.433598 -3.871609 -4.473475 -4.036753 -4.010110 -3.521067 -2.292512 -3.481771 -3.903840 -4.238440 -3.690756 -3.374641 -1.956680 0.087150 -0.381287 -0.771651 -2.097759 -3.377562 -2.118057 -0.697523 -0.723529 -0.980796 -1.604466 -1.055343 -0.112749 -0.661189 -1.661719 -1.678766 -1.849402 -0.716855 0.512722 0.470601 0.672712 -1.189413 -1.631582 -0.245136 -0.201472 0.895408 0.870534 1.102582 1.946389 0.791340 0.981399 0.948522 0.295666 1.336317 2.610065 2.878333 2.421984 2.212210 1.332811 0.584353 4.387093 5.990844 6.273683 6.144202 3.503643 3.954755 4.765651 5.081916 5.044447 5.353768 4.912491 6.675853 7.000116 4.589190 2.996938 2.654461 4.750166 5.932926 7.007096 6.482068 5.002054 4.992863 5.166371 6.846678 8.410199 7.897782 7.432538 7.050594 6.732096 7.024177 5.324408 8.166902 6.907856 7.992725 6.516804 4.240800 3.987835 3.165325 6.819407 8.623030 7.408084 5.619845 2.124363 2.529074 3.356590 4.709860 5.554778 4.196066 3.448654 1.961819 0.632050 2.322821 2.627631 3.362934 3.500557 2.624268 1.979946 0.963160 0.958506 0.636727 0.273625 1.336111 0.477663 -0.506033 -0.216348 -1.754731 -1.431541 -0.914597 -1.848747 -1.319085 -0.700949 -1.277611 -1.290535 -2.835007 -1.911283 -0.515103 0.526972 0.035618 -1.238712 -3.026210 -3.285581 -1.798190 -0.387844 -1.118938 -1.348260 -3.640123 -5.171171 -4.613244 -4.201898 -3.566239 -2.923907 -2.883157 -3.197258 -3.152203 -3.290022 -4.392145 -3.195908 -2.525019 -2.841778 -3.576773 -3.831331 -3.361968 -3.263617 -5.219228 -6.180937 -5.741974 -6.792432 -5.718166 -4.979242 -6.226370 -7.621274 -8.633505 -8.218066 -6.614584 -6.538899 -5.787406 -6.160319 -7.040388 -6.576968 -8.616777 -8.345645 -6.005259 -4.400740 -5.107207 -5.648000 -7.515864 -7.850856 -6.525251 -5.355613 -5.211315 -4.722171 -5.699639 -6.471987 -6.609442 -5.214960 -4.906939 -5.213066 -5.616767 -5.572657 -4.398676 -2.220547 -2.691719 -5.022185 -6.230957 -5.709054 -3.512709 -2.256759 -2.855838 -3.682524 -5.181674 -5.185658 -5.391848 -5.430992 -5.049334 -4.685267 -4.299986 -3.647483 -4.114882 -2.434448 -2.692771 -1.610007 -1.336038 -0.734683 0.444033 -0.190728 -1.279605 -2.622612 -1.659807 -0.752061 -1.540171 -0.964021 0.292142 -0.603901 -1.483580 -1.063765 -1.736862 -1.307612 -0.440451 -0.896918 -1.008224 -2.667895 -2.012151 -2.426332 -2.063709 -1.689914 -0.337279 -0.423067 0.843696 0.697336 0.003564 0.387526 1.309137 0.875427 1.536675 0.293457 -0.145492 -0.923852 -1.837811 -1.721876 -2.593863 -0.208651 -0.179291 0.277009 1.185696 -1.346025 -1.975789 -2.931349 -1.138439 0.068521 0.486471 0.694548 -1.076104 -1.669462 -2.870029 -3.750326 -2.471560 -0.864049 0.666746 1.040403 -0.499280 -2.118869 -3.204717 -3.210169 -2.774359 -0.932977 -0.653363 -1.472199 -2.391755 -2.308211 -2.457537 -4.284208 -4.215129 -3.292708 -2.928456 -1.671707 -1.841656 -3.536410 -4.771689 -5.626527 -3.974805 -2.551676 -3.092662 -2.216620 -1.833509 -2.474356 -3.147628 -3.843017 -3.112713 -2.765151 -2.241931 -2.041096 -1.957233 -2.749575 -3.426473 -3.572035 -4.131882 -4.582953 -3.353008 -1.525538 -1.014547 -2.909212 -4.141919 -3.788028 -2.822428 -1.596656 -1.236664 -2.006095 -1.903268 -2.553680 -1.565916 -2.779982 -3.699957 -3.349958 -3.693266 -2.286486 -1.318365 -3.518219 -4.855896 -5.958681 -5.638679 -3.392921 -1.869858 -1.893274 -2.230785 -2.453644 -2.525518 -3.196283 -3.207017 -2.074168 -1.747358 -0.973710 -2.164750 -3.178071 -3.774656 -3.980004 -2.493374 -1.590530 -1.446043 -1.279810 -1.671683 -2.440537 -4.364670 -2.937019 -3.048363 -3.047487 -3.415916 -3.098679 -3.007464 -4.501374 -3.929293 -4.953374 -5.512929 -3.654191 -1.708150 -2.469263 -2.985601 -2.646750 -2.923613 -4.982528 -3.919847 -2.231007 -3.380820 -2.194454 -3.086474 -3.423389 -5.417968 -4.936088 -3.792901 -3.295302 -2.185174 -2.349553 -2.628747 -3.121467 -3.200791 -1.701507 -0.838861 -1.285863 -1.611801 -2.767954 -2.998255 -1.162741 -1.212671 -0.920023 -1.093355 -2.214659 -2.714673 -3.203159 -2.932342 -3.646133 -3.927542 -5.377105 -6.037436 -5.367984 -5.532871 -4.710961 -5.791188 -6.489006 -7.077228 -6.852980 -6.954469 -6.406585 -5.450786 -5.892106 -6.338259 -7.047855 -7.833169 -8.217897 -7.636965 -6.703937 -6.587775 -7.793368 -9.541422 -9.964998 -9.090425 -8.489518 -9.043494 -8.641499 -8.489030 -8.009018 -7.523508 -8.735476 -10.178593 -11.166872 -10.440942 -9.160254 -9.763220 -10.534048 -11.250690 -11.852051 -12.232297 -12.555120 -12.790075 -12.158999 -12.507771 -10.904415 -11.506006 -13.066801 -12.885821 -14.393932 -13.728424 -13.744832 -14.342376 -13.252302 -12.709712 -13.440400 -13.016204 -13.012469 -12.553722 -13.438996 -14.006165 -12.931674 -13.607483 -12.144003 -12.387923 -14.590009 -15.730087 -15.390983 -17.396398 -18.534398 -19.290014 -19.297286 -18.949827 -18.946222 -19.341703 -19.512433 -21.187296 -21.652302 -21.436264 -21.164237 -20.795792 -21.353820 -21.059758 -20.311547 -21.306940 -22.186082 -22.999508 -22.995696 -22.185875 -21.478331 -20.466572 -21.515241 -22.930315 -22.429034 -22.886970 -23.264415 -23.433497 -21.743584 -21.028829 -20.279289 -20.487361 -20.525997 -21.754109 -21.969529 -20.809742 -20.998600 -18.512860 -18.764546 -18.627607 -19.606290 -20.432679 -19.588706 -19.954872 -18.809696 -19.028420 -17.576907 -16.933558 -17.666400 -17.464313 -17.336060 -18.671566 -18.356837 -17.789135 -15.886575 -13.890881 -14.555727 -15.675173 -16.640144 -15.935110 -14.599211 -14.052278 -12.688850 -12.524327 -12.177639 -11.238716 -10.504145 -10.569999 -10.361268 -11.784611 -9.436832 -7.720440 -7.307504 -6.857682 -7.902078 -9.719787 -8.928581 -8.493769 -7.530271 -7.143188 -6.103538 -5.868498 -6.092007 -5.726657 -6.320375 -5.342754 -3.614188 -2.448327 -2.677637 -2.965977 -2.776130 -2.310247 -0.676905 0.178945 0.981421 1.013269 1.538409 2.769778 2.761408 2.802824 2.337545 3.195929 4.655053 4.791327 4.290589 4.218248 4.482850 5.135647 6.831527 6.586563 5.814249 5.133517 6.631372 8.547669 9.130291 8.727993 6.592801 5.392621 7.572930 8.492713 9.917969 10.028281 6.090296 5.778617 6.593248 8.705776 8.398390 7.949699 8.313308 8.140693 9.002716 10.017210 9.199585 9.137020 8.749034 8.811666 11.093064 10.447686 9.043758 8.856207 9.079714 10.287491 11.047617 10.655737 8.568784 7.247473 6.456583 7.620740 7.867459 7.174500 9.292473 8.567125 8.678869 7.389602 8.198755 7.232427 6.881303 8.560407 9.173073 9.216048 8.206036 6.787322 6.566392 6.317723 7.969729 8.730089 8.324505 8.818895 7.559553 6.236953 5.801115 7.038531 8.146748 8.346419 8.536882 6.342559 4.689363 5.845847 6.931287 7.044101 8.198434 9.987093 9.142719 9.939581 9.221398 7.842988 8.244579 9.885740 11.047079 10.610947 8.833597 7.270472 7.404876 8.557366 9.871821 8.882232 7.289387 7.312343 6.420555 5.266361 5.734792 5.817253 5.089658 4.509403 4.489472 3.573351 2.835268 3.930261 3.518447 3.363092 3.560914 3.172944 3.188187 2.233021 3.399916 2.534610 2.380394 1.535084 0.128005 0.727570 0.347750 -0.374133 -0.973204 -1.553477 -1.491357 -0.485694 -0.861260 -1.741744 -2.849839 -1.756399 -0.034568 -0.455088 -0.901798 -0.340617 -1.707470 -0.218321 0.359420 -0.419973 0.000562 0.332774 0.503028 -0.509494 -1.303513 -1.223584 -1.445564 -0.277775 0.968561 1.512202 0.884132 -0.208010 -1.477040 -0.699823 0.542674 1.640444 0.198131 -0.154921 -1.755536 -2.211392 -0.468304 -0.854921 -1.982354 -1.822942 -2.606429 -2.869694 -2.950445 -3.022099 -2.921003 -2.763537 -2.175799 -4.187005 -3.996023 -3.863241 -3.674695 -1.818933 -0.810128 -1.776319 -1.940833 -2.680095 -1.699324 -1.051679 -1.043317 0.177657 0.431435 -1.470512 -0.918903 -0.933107 -0.102339 -0.589779 -1.480998 -2.394693 -2.283636 -2.890506 -1.251620 -1.009338 -1.809486 -3.127086 -2.846117 -1.880087 -0.320383 -1.259114 -1.778355 -1.494516 -1.695397 -0.223797 0.961343 -0.712317 -1.446907 -1.863593 -1.854037 -1.449573 -0.882694 0.585873 -1.068406 -3.166423 -3.923298 -3.663474 -2.577885 -1.883520 -0.978167 -2.865525 -4.327027 -4.120066 -4.198381 -4.444383 -4.880687 -3.969088 -5.138126 -5.597784 -6.196796 -7.029480 -6.808147 -6.209971 -4.778703 -5.148263 -3.665168 -4.576291 -4.716185 -5.988134 -6.551134 -6.431263 -6.893077 -4.642151 -5.448953 -6.278102 -7.605726 -9.022783 -8.049466 -6.198460 -4.835697 -4.207086 -4.698966 -4.937600 -6.216042 -6.710401 -6.938180 -6.504414 -4.954182 -5.415895 -5.350688 -5.087587 -5.656624 -6.794092 -7.470350 -6.535086 -4.822062 -3.080582 -3.527850 -5.789301 -7.332276 -6.699194 -5.371633 -3.601804 -3.305397 -2.402041 -1.963823 -2.873085 -3.518902 -2.655466 -1.548233 -0.120175 -0.425481 -2.275689 -1.973177 -1.750635 -0.274196 -0.574815 -1.368163 -1.682582 -2.838589 -0.988513 0.798094 1.168615 1.745559 1.261506 0.958970 0.993104 2.471888 3.893300 5.099007 6.279600 4.063554 2.460767 2.921221 2.984696 5.288068 6.488321 6.640533 5.475536 5.028283 4.836481 5.061402 5.562645 7.014527 8.101343 6.481701 5.066153 5.761099 5.275459 5.830911 5.790602 5.297566 5.019993 4.582459 5.910279 5.816748 5.639461 4.675447 4.799986 5.922477 4.896496 5.056452 4.754565 5.422894 5.220905 5.701086 4.524371 3.451619 2.978477 2.277670 2.588547 1.833886 0.858758 0.545303 -0.111328 0.521119 -0.881603 -1.724144 -2.632374 -2.956022 -1.822187 -1.577795 -1.712159 -2.844496 -4.690310 -6.418847 -5.893799 -6.285317 -4.093517 -3.856326 -4.004927 -4.673666 -5.585835 -5.485364 -5.427306 -4.623804 -3.988134 -3.177261 -1.536173 -3.585328 -5.764500 -5.939270 -6.234360 -4.395427 -2.633826 -2.165251 -3.065888 -4.706381 -5.316509 -4.967224 -4.415588 -3.600938 -2.448616 -1.501602 -1.803938 -4.535891 -6.437456 -4.955227 -4.659688 -3.126543 -2.169861 -3.821022 -4.861071 -4.771986 -5.016037 -5.999312 -4.645376 -3.219011 -3.374079 -2.655844 -3.222650 -4.995267 -5.524411 -2.943093 -2.757403 -2.960774 -2.008551 -2.548134 -4.235908 -3.510405 -2.273350 -1.813946 0.363049 -0.707101 -2.250026 -3.794687 -2.960155 -0.722221 -0.040119 -0.637426 -1.103421 -2.562574 -3.220315 -1.702464 -0.105306 1.431965 0.854332 -0.365986 -1.718379 -1.374716 0.222113 1.589645 2.582011 1.280689 -1.208314 -2.176457 -1.294485 -0.476885 0.554784 1.316860 -0.200346 -0.445640 -0.633694 -1.019577 -0.883243 -0.280981 0.733782 0.866226 1.672758 1.465036 0.604487 1.476275 1.188910 1.517709 2.063542 3.568385 3.445703 2.162954 0.215654 -0.617116 -0.710216 -0.089853 2.052416 0.957055 -0.062368 0.038529 -0.440091 -1.167299 -1.471118 -0.245035 -0.825848 -1.581910 -0.996230 -0.933280 -1.666454 -2.447513 -4.028675 -3.631404 0.396714 1.283665 0.168816 -1.247345 -2.124830 -1.676559 -1.218740 1.514360 1.991880 1.426274 0.731100 -0.127082 -0.595330 -0.139125 2.310436 3.230243 2.941067 2.491141 2.509731 2.403479 0.999655 2.111911 3.315980 2.537907 4.049546 3.954863 1.805268 2.147434 1.816344 3.255696 4.224691 4.191254 3.752352 4.408013 4.576685 2.502812 3.366942 4.254678 5.553158 6.450778 7.442853 6.538517 5.212862 4.962947 5.574710 4.998979 4.931672 6.351049 6.442917 5.430623 4.836517 4.790174 4.483862 6.143467 8.243897 9.175641 9.006244 7.479010 6.895671 6.743875 7.008743 9.245456 10.429474 9.008676 7.947117 6.839188 5.697288 6.445941 9.010062 9.636439 8.331976 6.741389 6.419150 6.317853 8.918323 9.130943 7.985531 8.785161 8.810675 8.443448 8.585646 8.923209 11.740391 11.227091 10.059428 8.249988 8.367824 9.805514 10.560585 10.103126 7.899868 7.450479 7.618084 7.611543 8.619711 9.012898 7.492488 6.147917 6.389641 6.211703 5.640543 6.877187 7.403587 6.488348 4.695588 2.984887 3.787784 5.594863 6.091210 5.898951 5.779913 4.228445 2.987617 3.969780 3.500107 2.269762 2.221259 2.167858 1.208418 1.278553 1.332736 0.824228 0.456541 -0.451714 -0.578243 0.771203 1.312828 1.835527 0.532327 -1.198747 -1.813717 -1.274204 0.462545 0.215263 -0.363337 -0.456984 -0.996612 -0.380164 -0.305749 0.118170 2.667849 2.935691 3.062963 1.125076 1.074428 1.047988 1.196730 2.129364 1.220452 1.422503 0.983834 1.023659 2.052832 0.544125 -0.512679 -0.085426 0.674703 1.393246 1.440701 1.476397 0.275385 -1.579088 -0.892218 -0.206927 0.470301 0.265384 1.606169 0.790887 -0.491851 -0.490856 1.427330 2.607588 2.824421 2.734857 0.770067 -0.383252 0.352143 0.104239 0.582516 0.238258 0.449489 -1.608012 -2.529470 -1.595742 -1.106164 -1.340157 -1.249123 -1.520819 -3.144558 -2.803956 -3.280780 -4.206661 -3.287792 -3.525132 -2.855692 -2.775921 -3.339523 -2.524474 -1.007982 -0.252286 1.781852 2.006256 1.383329 1.843679 3.265272 3.335392 2.847103 1.156690 1.583981 2.307054 2.679057 2.758855 1.161552 1.686214 0.986761 2.411401 2.806308 3.204097 3.095794 2.713125 3.293533 2.847280 3.807160 4.283326 3.381769 4.214376 3.464152 1.204875 2.543924 1.923942 2.488413 3.390941 2.292307 1.640472 0.950038 0.118988 -0.106634 0.595402 1.066019 1.160199 1.160772 0.455644 -0.248799 -0.113494 -0.925945 -1.763294 -2.842952 -2.584330 -1.389427 -2.246033 -3.604927 -5.107825 -6.048039 -4.063955 -2.119430 -1.799268 -4.352230 -5.375920 -4.934505 -5.059395 -2.793363 -2.805770 -2.259638 -3.460387 -3.364213 -3.439252 -3.992619 -4.294628 -4.714745 -3.799014 -3.342957 -4.300720 -4.979225 -6.229275 -6.093417 -5.620710 -4.850464 -4.203213 -4.280666 -4.261353 -4.376375 -4.073491 -4.511658 -4.931323 -4.903736 -6.368730 -5.466032 -4.685942 -5.240933 -4.839873 -6.204954 -6.510199 -6.791700 -5.594677 -4.891696 -4.746878 -5.369086 -5.566407 -3.670044 -2.507581 -3.450821 -3.202453 -3.285735 -2.898050 -2.337104 -0.471139 -0.319363 -2.266634 -1.957066 -3.616589 -3.008886 -0.426159 -1.036335 -0.430636 -1.241058 -2.535783 -2.268396 -1.872049 -1.313762 0.432355 0.483017 -0.437482 -1.700586 -3.008201 -3.427467 -3.511188 -1.841718 -1.634513 -2.025293 -2.023143 -2.733589 -3.614332 -5.324378 -4.041200 -3.702221 -2.270850 -0.343959 -2.175930 -4.120098 -4.438713 -3.910757 -2.323936 -1.403248 -0.960097 -2.184310 -2.233556 -2.532955 -3.241495 -3.028552 -1.697416 -1.776300 -1.857897 -2.071512 -1.802926 -2.060185 -2.632994 -3.485049 -2.945088 -2.491972 -0.678471 -0.372174 -1.951047 -2.982760 -3.804273 -2.743543 -1.184929 -0.103880 -0.548614 -0.038063 -1.881185 -0.725721 0.211425 0.563868 0.890970 1.322701 0.858030 1.368481 1.455836 0.538781 0.029255 -1.006573 -0.460117 0.602903 1.902026 2.612485 0.872997 -0.105357 -0.013426 -0.961271 1.026293 2.468666 3.306060 3.479571 0.948244 0.598278 -0.143306 0.921318 3.706237 4.170846 4.557606 4.157133 3.569116 3.387436 5.221828 7.894152 7.311486 6.584431 6.862310 6.772542 7.015128 7.192952 7.082033 7.305980 8.163304 7.873493 6.366768 5.351431 5.982435 7.889030 7.973893 8.275467 8.133978 6.267912 6.735983 8.112173 8.734334 7.278100 6.475482 6.030812 6.013321 7.743521 8.587971 9.068452 8.824117 7.502615 7.026691 7.939297 7.172532 6.433713 6.995396 6.408932 6.220977 5.048713 4.272679 3.930644 2.303905 4.017889 5.233587 4.371391 3.963000 2.312950 2.404625 2.805677 4.239036 6.472524 5.666384 3.363812 3.646954 3.829319 4.134713 3.873448 2.565237 2.402088 1.599886 3.985315 3.210509 1.546395 0.398876 -0.492776 1.551863 2.705134 2.715315 1.408866 -0.370285 -0.984596 -0.964529 -1.325961 -0.972044 -0.296925 -0.116977 -0.218849 -0.194595 -1.334036 -2.938583 -1.574126 -0.753144 -0.716832 -0.008920 0.225439 -1.023067 -1.692831 -2.060253 -1.801804 -0.653501 0.089974 -0.109935 -1.350275 -2.502549 -2.522182 -2.731914 -3.036581 -2.588351 -2.325190 -1.124295 -0.516280 -1.135635 -2.089094 -1.388774 -0.579922 -0.386627 0.842158 0.140634 -0.186224 -0.089768 -0.068465 -1.015353 -1.895482 -0.871105 -0.480294 -0.084512 -0.119604 -2.204964 -3.156175 -1.748987 -1.741940 0.038599 1.578065 0.264782 -0.853984 -2.615505 -1.461065 -1.310504 0.037074 1.558841 0.007444 -1.442982 -2.612621 -3.453120 -3.535060 -4.256975 -2.962675 -1.567411 -1.036939 -3.609096 -5.027455 -5.277870 -3.669180 -3.123889 -2.553718 -2.587102 -4.538384 -3.809123 -3.588434 -3.634558 -3.776168 -3.439113 -1.705356 -0.775893 0.319271 0.022366 -1.723246 0.164508 -0.310046 -1.159165 -1.205307 -0.628120 -0.043670 1.213791 0.379602 -1.177447 -1.700541 -1.936695 -0.486905 0.888538 2.080201 0.851975 -0.673459 -0.538377 -1.288627 -1.921222 0.339406 1.003132 1.957679 0.651741 0.290069 -0.908682 -0.891316 1.395083 3.425444 2.702875 3.387693 2.877136 2.427562 3.174446 3.480764 4.570676 4.470348 4.413331 5.796932 4.921416 3.307458 3.552662 4.491359 5.259789 5.658708 4.721967 3.340393 3.383807 5.842230 6.753970 5.137851 3.686956 4.410748 4.548030 5.102981 5.619927 5.148234 4.850169 3.553302 4.663309 4.589678 4.848836 3.213906 3.514842 3.641181 1.168033 1.761888 2.202754 3.668111 3.264312 2.250314 1.707251 0.842107 1.135739 1.389960 1.991108 2.906112 2.916154 1.648089 0.099920 -0.078339 -0.054973 1.004499 1.591532 1.914335 0.467404 -1.104874 -0.709538 -0.205158 0.933752 1.573991 1.915626 1.216652 0.700056 1.276034 1.443961 2.315426 2.337312 4.053836 3.836153 3.506186 2.759427 1.731327 2.815666 4.833614 6.627471 5.690868 3.790842 1.952557 2.566617 3.616867 4.518288 3.812367 2.001433 0.877554 0.379867 -0.383037 -0.358570 -0.389621 0.292790 -0.011119 0.278967 -1.102062 -1.600431 -0.262333 -0.207044 -0.884030 -0.505892 0.610134 0.266619 0.113938 -1.170836 -3.376823 -2.314281 -0.650389 0.300956 0.048440 -0.901604 -2.931810 -3.237992 -2.235495 0.211567 0.052649 -1.667968 -1.696646 -2.761871 -1.862547 -0.398097 0.262206 -0.709053 -0.278414 -0.932227 -2.282766 -0.678910 -0.474561 -0.815932 -0.740476 -0.817921 -1.167692 -1.022846 0.626676 1.035569 1.930767 2.103575 1.241146 0.850986 2.356287 0.638708 0.831207 2.985836 2.902564 1.683160 0.739912 0.617739 0.152314 1.179805 1.206752 0.458805 -0.468188 -1.190141 -1.435495 -1.484782 -1.503796 -2.183111 -1.857550 -1.317222 -0.506507 -1.345212 -0.405266 -0.551711 -0.562664 -0.444644 0.159662 -0.854847 -0.501021 -0.637736 -0.183838 -0.090661 0.065146 -0.926749 -0.809160 -0.467093 1.030282 1.475123 -0.084781 -0.971055 -1.875827 -0.595670 1.110500 0.410829 0.277925 -1.869950 -0.795297 -0.668618 -0.365154 0.359720 -1.156369 0.027221 0.199876 0.590971 0.766823 -0.258255 -0.732055 -0.352683 0.583294 1.559850 1.191746 1.030144 1.307298 -0.537779 0.434795 1.542396 2.351418 2.934798 2.654419 2.148874 2.255956 2.782661 3.526211 5.370252 5.108958 4.005049 4.015688 4.228819 5.252405 4.901308 3.613920 5.197684 5.521281 5.691196 5.251654 4.374695 4.356820 5.317312 6.785472 6.594895 6.762855 6.437333 5.811550 5.440425 6.861832 7.878871 7.435526 8.168060 7.213579 6.620143 7.193466 8.514423 9.405748 8.713614 9.311673 8.462044 7.859246 7.709226 9.110440 7.574975 7.552583 7.516452 7.584613 7.391988 6.181324 5.322554 6.069691 7.151895 7.325991 6.051639 6.516039 6.585762 5.851710 6.504277 5.956680 5.680837 5.138260 5.251849 4.589128 4.449020 3.323610 3.524968 4.080521 4.566416 4.609366 5.261517 5.868843 5.991829 4.597802 4.235913 5.191549 5.800462 6.562934 6.002372 4.969028 3.935843 3.722209 4.565303 3.808427 4.760171 7.297746 7.435362 8.576239 7.257083 5.671003 5.796976 7.242906 8.946971 7.928370 6.735935 6.647625 5.341395 4.904532 5.224018 3.422873 3.238394 5.000262 5.325643 4.899254 4.328644 3.904251 3.775237 4.653270 6.296807 5.051575 5.142342 4.113323 3.757305 2.775095 2.254541 2.484101 3.147297 3.529095 4.417223 3.982913 2.657312 2.723919 3.413753 5.640195 5.896907 5.422490 4.050234 1.816447 2.270232 2.917831 4.635149 4.747118 3.750735 3.484552 2.936250 3.643547 2.776108 2.349606 3.070568 2.954066 4.167975 4.367723 3.158627 2.667074 1.591441 1.188485 1.898325 1.906094 2.704413 2.997049 1.453229 1.250226 1.250888 1.789918 1.163504 2.001984 3.541085 3.896813 3.216955 2.887577 1.548237 1.812750 3.294383 4.321911 4.765332 3.291762 2.326547 2.665873 4.304487 5.375490 4.944368 5.156306 5.614591 5.079466 3.839983 3.291209 3.346084 3.467301 5.164542 6.846044 6.548188 5.628657 4.761146 4.443975 4.696120 5.301666 7.063812 7.944698 7.881602 7.051435 4.999554 5.249355 5.335757 6.670671 7.510456 7.839790 6.905428 6.780693 7.621177 7.090580 6.725189 5.990565 5.289693 6.375830 7.345541 7.673384 7.646472 7.182082 6.029508 5.264042 5.654581 6.690350 8.604155 8.122883 7.330379 6.032216 5.498421 4.998231 5.766956 7.247975 6.177894 6.029327 5.931597 5.129293 4.566672 2.439522 2.409054 2.988338 4.142097 5.374588 5.194688 2.711993 1.841324 2.372900 3.339073 3.334231 2.581669 2.726165 3.568065 4.637532 3.214439 1.532517 1.723420 1.921252 3.344039 3.710646 3.210123 2.185927 1.875841 2.987788 3.762909 3.785043 4.361514 3.462173 3.043183 3.136362 4.814850 4.866917 4.982994 6.140272 4.948128 4.578050 4.927995 3.539193 2.815114 3.858846 4.336219 3.619753 3.399540 3.624504 3.828220 3.019831 2.820506 2.768974 2.352584 3.339025 2.944470 3.164108 2.887805 1.723197 1.770027 1.541886 1.560254 3.212671 3.766514 2.961975 3.073953 3.731594 4.721898 5.512773 5.330914 4.708901 5.518154 6.788158 6.809659 5.474544 5.870030 6.400304 6.383445 8.101034 8.135572 6.791010 7.344040 6.622758 5.841515 6.295937 5.732795 7.122684 7.454675 8.180072 8.795315 7.903435 8.331671 8.325171 10.219590 10.854917 9.747852 10.392562 9.219425 8.827746 9.347129 9.886496 10.411923 10.905189 11.928371 11.000003 10.695291 10.042931 9.865933 9.863300 10.268632 11.380515 11.012356 10.767245 9.305655 9.057932 8.947160 11.030686 12.476160 13.524240 13.914379 11.893520 11.287690 12.139459 12.823874 13.801826 13.761779 12.983868 10.968729 11.036884 10.797367 9.417073 9.414261 10.698737 10.494880 10.567762 9.827255 8.948277 9.570700 9.470543 9.337151 10.897175 11.723039 10.698902 11.886544 10.941618 8.567298 9.361052 10.708408 11.406181 11.732529 12.258120 11.959769 11.076996 11.311516 11.353236 10.223298 10.302328 11.022201 10.233054 8.464627 8.706281 8.010708 8.635763 10.341451 10.852527 10.918872 10.160465 9.338010 8.497384 8.031842 9.600392 9.518394 10.008870 9.910410 8.406548 8.155069 6.140174 6.518507 8.184052 8.789182 8.402904 6.669467 6.758253 7.147892 6.483225 7.651379 7.392484 8.321294 8.599159 7.822307 6.887953 7.050351 6.668637 8.214552 9.230533 8.826285 7.805129 7.600924 8.195406 8.566183 7.715586 8.300487 9.081216 8.240285 7.294443 6.918992 6.490164 6.637841 7.899934 7.265277 7.158268 7.432857 8.197707 7.902109 7.942123 9.156571 9.100679 10.017157 9.983892 8.859883 7.920239 8.138448 7.070234 8.171157 8.487268 9.352783 9.366889 8.003131 8.319416 8.036697 6.763599 6.231249 5.490644 6.720434 7.849630 6.882497 6.123700 4.051862 4.002114 5.173509 6.062098 6.926657 5.400839 5.931441 5.454629 5.586565 5.253305 6.741181 6.622516 6.459292 5.983403 5.745334 6.132577 5.701438 5.152643 5.208758 4.932722 5.124890 4.617258 4.076931 3.892435 4.155332 4.533443 4.758766 4.708397 4.909900 5.870790 4.631602 5.087058 3.035758 2.504243 4.449452 5.335567 7.246105 5.529233 3.515414 2.809581 4.171900 5.869469 5.778893 6.791957 5.591602 5.164512 6.239836 5.381631 5.003914 5.499728 7.268797 7.017558 6.119990 6.125504 4.713886 5.991219 6.384141 6.203878 5.936868 4.997775 5.576463 6.241797 5.543071 5.247399 3.849703 4.748705 6.120754 5.526836 4.628533 4.251043 4.113667 3.528916 4.040875 5.609937 5.469834 3.726597 3.652675 4.684064 3.037444 2.496453 4.150929 5.946589 5.597146 5.346067 5.188557 4.081115 3.543074 3.804149 4.843536 3.769569 4.284578 4.917455 3.877265 3.373509 3.618645 2.264076 1.260977 1.777766 2.887123 3.025968 2.458850 3.113243 3.086027 3.168148 3.214747 3.048917 4.009760 4.703001 4.864602 5.810844 5.100319 5.333829 4.155899 5.258007 6.842219 6.875396 6.329792 5.611717 4.767031 4.058428 4.606535 5.307926 5.740256 6.569926 5.140530 3.850573 3.303292 3.957509 5.991269 6.383906 6.591593 5.666759 5.838733 7.105515 8.665263 8.358549 8.283219 7.587501 8.709396 10.211710 9.753823 9.008535 7.023160 7.494474 8.256985 9.445663 9.687716 8.733509 10.257032 9.031481 8.912309 9.316547 9.348692 9.552964 9.062443 9.597440 8.244512 8.694565 8.729421 8.841747 8.284749 6.510315 5.800980 7.874871 10.290276 11.177665 11.475537 10.060733 8.502060 8.604040 11.155285 13.856559 13.670439 11.942357 10.640483 7.963814 7.912511 9.604426 10.781313 11.597695 9.336458 9.173543 8.299691 8.310361 10.284990 10.748702 11.579168 11.583952 11.514004 12.039617 10.091219 11.400498 12.530457 13.312197 13.926899 12.528160 11.083487 11.216399 12.475558 13.387328 13.993274 13.331400 10.024591 9.221021 9.788758 10.463248 10.465552 9.940362 8.715311 8.473451 9.877038 8.481615 7.056374 6.397776 6.837389 7.675094 7.865776 7.946223 6.448436 4.676896 5.012757 5.591221 6.873930 6.789476 5.020895 4.255350 3.381788 2.027561 3.179517 3.104925 2.585994 1.649865 1.057008 0.729446 -1.202413 -1.400317 -0.377539 1.222702 2.076898 0.659251 -0.737696 -3.122422 -2.117488 -2.454910 -1.694217 -1.197449 -2.050193 -4.202160 -4.893922 -4.367914 -5.381424 -5.692943 -4.929343 -3.896854 -4.962098 -5.681997 -6.971031 -8.483921 -9.158451 -9.465632 -9.359249 -9.331154 -9.628589 -9.224105 -11.063483 -10.478474 -11.209297 -12.041982 -11.441503 -11.655279 -10.903736 -9.937757 -11.872225 -12.271073 -13.756036 -14.938568 -15.389415 -14.687815 -13.582680 -14.532421 -15.367403 -16.577717 -16.330618 -16.340238 -16.015542 -16.631963 -15.552798 -15.192976 -16.556435 -16.230399 -17.463247 -18.019095 -17.147362 -16.480529 -15.905062 -16.383422 -15.544895 -15.511650 -15.491711 -15.616680 -14.326643 -14.890348 -12.228627 -10.931935 -12.076124 -12.829507 -14.079194 -12.770951 -12.467179 -11.925858 -11.642643 -12.493681 -11.661218 -10.319804 -9.829957 -11.539578 -12.892853 -12.934747 -11.430769 -7.865084 -7.604626 -10.180932 -10.985218 -11.073373 -10.645840 -9.648957 -8.931878 -8.910722 -7.990721 -7.367414 -6.837882 -6.904892 -7.384359 -6.533154 -6.168690 -4.669377 -3.813639 -4.754711 -4.667523 -3.592539 -3.154844 -2.849756 -3.148277 -1.860072 -0.978356 -1.329784 -0.133662 0.297549 0.638413 1.397733 1.060828 1.939170 2.873553 3.590940 2.445847 3.281907 2.121932 2.367634 3.009624 3.389020 3.533120 3.338788 3.147730 3.146036 2.891273 3.621419 4.356167 5.766425 6.103095 6.422993 6.911980 5.306056 7.064024 8.277296 8.217757 8.600557 8.626592 8.585237 8.231102 8.074044 8.695864 8.020791 7.102521 9.043313 10.887225 9.675616 8.837414 8.253765 7.616458 8.139960 9.381766 11.539828 12.263124 11.672274 10.907200 10.026195 10.998736 12.609446 13.845982 14.554193 14.421570 13.974991 11.330154 11.844546 12.501361 13.785143 14.242037 14.840011 13.162351 11.436833 11.867433 12.698525 14.075093 14.104971 13.196052 13.245349 12.664593 11.634832 12.153925 10.914454 10.452149 11.860089 11.333469 11.460038 10.002298 9.782855 9.359321 8.896944 11.672327 12.624531 12.484442 10.945717 10.202933 9.575563 8.796848 12.026762 12.913889 12.528997 10.756784 8.778340 8.469637 8.912794 11.283020 11.062901 10.177105 9.386873 8.183558 8.704141 8.727349 6.765787 8.052879 8.939193 8.424531 7.201315 6.437015 7.293652 6.896019 7.944510 7.617320 7.183390 6.621812 6.529808 7.811078 7.642907 6.521878 5.996881 5.113423 4.310064 4.883739 6.187874 6.135756 5.536942 5.644488 5.631601 4.176692 4.255209 5.693710 6.181883 6.241931 5.945178 4.416934 3.647531 4.711559 5.914042 5.643863 3.774008 2.934514 4.500713 4.406356 4.531379 3.704381 1.835721 1.738671 3.246182 6.692287 6.147447 4.560516 3.203551 2.934036 3.634657 4.497024 4.550345 5.520487 5.233444 4.773027 4.687484 4.513767 4.575518 6.249779 6.334136 6.435075 7.370199 6.655125 6.174042 5.752657 5.047511 4.228713 3.916013 5.012945 4.411766 3.901738 1.998222 1.534637 0.883237 2.175450 3.454083 3.122332 2.715122 1.651651 1.765297 1.520164 2.799275 4.738191 3.920539 2.468654 1.867617 0.261656 0.337232 1.560854 2.891230 2.164150 0.786260 0.269087 0.584883 0.642605 2.819530 2.737084 3.537434 3.293893 3.315808 3.411164 3.023477 3.409620 3.887835 4.212968 3.606639 4.010771 3.379618 2.996620 3.842924 4.307903 3.560419 4.861201 3.250434 2.840876 2.677589 2.899341 4.352018 4.815822 3.997464 3.438096 2.138189 4.408181 6.584827 6.541087 6.242089 5.368464 5.279051 4.647842 5.563363 4.952331 4.505128 2.931226 2.148827 1.963126 1.358872 1.839195 1.129215 0.409552 0.453523 1.086550 1.824654 1.037067 0.673780 1.271221 1.945988 1.617718 2.121445 2.520650 2.219860 2.699686 2.043276 2.171092 1.203418 3.305026 5.233871 5.836847 4.441360 1.912731 2.326662 3.274376 3.343945 2.962472 2.081986 0.416211 0.849990 0.987815 0.480452 -1.025351 -2.106142 -0.614510 -0.039662 0.669602 -0.064719 -1.002696 -1.469652 -2.182427 -2.439026 -0.566728 -0.469835 -0.279387 -1.047088 -1.260506 -1.308594 -1.633073 -0.612420 1.389772 0.352930 0.154193 -0.789939 -1.801629 -0.782023 0.489547 0.560270 1.698275 0.877858 -0.140672 -1.612281 -1.751974 -1.656583 -2.324519 -0.829817 0.283012 -1.626908 -2.002379 -3.361993 -2.719398 -0.745837 -0.875413 0.008167 -0.328669 -0.183570 -0.836568 -0.892876 -0.949847 -2.440207 -2.126096 -0.736210 0.013587 -0.333287 -2.583454 -2.858212 -2.357868 -0.253052 -0.429418 -1.821510 -0.598997 -1.064428 0.482869 0.805915 0.356705 -0.903128 -2.820181 -0.639076 0.386967 1.628759 0.928007 -0.333032 -1.614113 -2.498525 -2.305816 -1.653820 -0.414168 0.761165 -1.541426 -2.091097 -2.258037 -1.390501 -0.885871 -0.922107 0.224245 -0.211881 -1.036164 -1.350904 -1.678080 -0.927903 -1.408416 -0.192167 0.951843 1.817199 0.826706 -0.130084 -0.225267 -0.615503 1.103968 2.817807 3.433258 1.895322 0.773896 0.582999 1.542259 2.948497 4.058384 5.583311 4.086315 2.497781 2.887166 3.805728 4.050542 4.695322 5.381652 4.286273 3.786908 3.265996 2.775776 2.559580 2.225809 2.374315 3.193334 1.962404 2.412362 2.168974 1.658102 1.171824 0.343200 0.963720 1.669258 1.061845 0.873568 0.263378 0.764578 -0.758921 -1.624914 -1.094667 -0.605903 0.428057 1.077454 -0.757595 -1.835475 -2.111573 -0.736557 0.081337 0.495800 0.348076 -0.046710 0.904504 -0.521551 -2.309581 -1.116895 -0.402057 1.671154 1.885555 0.270130 -0.664430 -1.900980 -1.132344 0.341815 0.936691 1.839138 0.586622 -0.351742 -1.161549 -0.817134 0.756353 1.420901 1.446697 0.850879 -0.037415 -0.990835 0.074722 1.583368 1.919388 2.565647 1.338042 0.895533 0.811951 2.085800 3.138359 3.380460 4.128301 3.593084 3.192449 3.083814 3.442896 3.699108 2.654064 2.191873 3.977800 4.048766 2.920485 3.330153 2.441528 2.072246 2.510392 4.340394 4.165448 3.485325 2.515228 2.346621 2.025294 0.957860 4.073570 2.956658 3.190378 1.663175 0.625753 0.697491 -0.215687 -0.542350 -1.135028 -0.726706 0.148381 0.168497 -0.382156 -1.485556 -3.120538 -3.323944 -2.077736 -1.309168 -1.289284 -1.374018 -2.340077 -2.600566 -3.802894 -4.081958 -2.768021 -0.210566 -0.535698 -0.267942 -1.658128 -2.990577 -1.029463 -0.808251 0.641480 2.796303 1.038285 -0.120469 -1.060638 -1.692762 -2.539484 -2.572672 -1.479542 -1.454670 -1.064148 -0.763763 -2.473373 -2.943791 -2.628164 -1.844966 -1.017941 1.559653 1.731933 -0.335918 -0.549405 -0.757013 -1.263267 -0.209278 1.053226 1.632546 0.566871 0.025328 0.476660 1.156284 1.777182 2.511810 2.200328 2.109407 2.275601 1.756917 1.090887 0.569653 1.684763 3.106131 4.449858 3.774272 3.927359 3.478958 3.645979 4.399636 2.721750 3.151839 4.885260 5.064344 5.902760 5.136353 4.234170 2.851482 4.214948 5.387672 4.704316 6.377758 5.018792 4.883796 4.943717 5.107711 6.281315 7.463723 7.428283 7.663406 6.470836 6.655590 7.532021 7.233500 8.772705 9.501991 8.805534 7.588416 6.837872 8.659349 9.517301 9.772243 9.443494 8.738570 10.329530 10.696505 9.239401 8.938844 8.963998 9.241087 9.490114 10.258382 9.046624 7.571596 8.494519 9.647889 9.255178 9.846937 10.586081 8.777755 7.991084 8.469276 8.219374 7.023033 7.999346 9.153400 7.994189 6.885601 6.978458 7.080649 6.857947 6.691533 7.351015 8.513848 6.840429 6.331134 6.776830 5.981182 6.280873 7.477723 8.071209 7.529552 7.478045 7.159943 6.612264 5.639906 5.076868 4.610488 6.239078 5.984879 6.096027 4.082493 4.146644 2.590878 2.503402 3.083725 4.964743 5.359169 4.892769 4.918498 4.004238 3.268725 2.564256 4.380280 5.726031 6.089913 5.374591 4.801321 3.666215 2.742056 3.575956 4.725898 4.005421 3.698543 3.287398 2.308401 2.294693 1.720084 3.630019 4.485459 5.006898 4.565183 4.209298 3.157708 1.916895 2.638691 2.725233 3.665896 4.069613 3.216995 3.910365 3.159403 2.677726 1.999914 1.942265 3.992004 3.741027 3.054088 2.311737 1.107120 0.347566 0.851407 0.138622 0.881193 1.496912 2.185945 1.429464 0.796279 0.968275 -0.314348 1.714324 3.135018 2.577732 1.994591 0.946783 0.855610 1.077111 1.804360 1.590050 1.556933 1.422053 1.537270 1.134516 0.830124 0.581901 0.275219 1.823237 2.754650 3.698995 3.218406 2.345020 0.734807 0.790540 2.098825 3.381828 3.826094 3.997406 1.974742 1.508274 2.171001 1.447634 2.506996 4.185380 4.396565 4.480938 3.345192 3.317109 3.127000 3.164046 4.353206 4.857952 4.711718 4.653430 4.385694 4.734729 4.189443 3.970633 4.618746 5.165648 6.619451 6.521481 6.121541 3.892409 2.948322 3.447955 3.432754 4.646698 3.669636 3.453622 2.730560 3.156022 2.988346 2.477883 1.859861 2.961227 4.619995 4.594801 3.673616 3.146908 2.638296 2.961850 4.839563 6.231916 5.682817 5.060504 5.112046 6.083949 4.716474 5.367502 6.611945 7.040933 6.051795 5.647360 5.241010 4.543755 4.540780 4.615779 6.230242 7.604639 7.327556 7.514601 6.344413 5.463767 7.361622 8.965740 9.375133 9.070703 7.048957 8.180741 8.097209 8.515872 9.214873 8.410809 8.765202 8.091179 7.655463 7.566514 7.437325 6.558557 6.794670 6.215068 5.857365 6.187937 7.473326 8.230982 7.372002 7.339053 6.327440 5.508492 6.408776 6.635080 6.921202 7.411727 7.109471 6.412504 5.412960 4.498093 4.732929 5.113879 6.644644 6.477117 5.160024 3.833490 4.077762 3.101242 3.526265 3.839018 3.288539 3.515220 4.891296 4.438127 3.936786 3.166965 2.516144 3.180371 3.919799 3.116593 2.953155 2.571957 2.808608 3.117868 2.638026 3.550241 4.749614 5.185960 4.349628 3.149161 2.188296 2.264789 2.390005 3.707323 5.486063 4.519518 3.416033 2.635186 1.944084 2.390124 2.895415 