23.844424 23.694093 23.544556 23.395813 23.247858 23.100689 22.954304 22.808699 22.663870 23.607981 24.276987 23.106411 23.253497 23.474712 23.930208 25.262816 23.805935 23.320454 23.997248 22.521218 22.088559 23.469854 23.574793 22.588154 21.279861 19.540612 19.082979 18.794512 19.748107 18.930803 17.629813 17.310039 16.152689 13.850732 15.867920 15.069280 14.957968 13.415113 13.811791 13.355934 13.393950 13.826159 13.190682 12.172149 12.410507 13.505643 15.641106 14.392223 13.512607 13.152377 10.140098 11.231990 12.741125 13.589765 13.603144 13.345422 12.010576 12.736219 12.047383 11.460420 12.651615 12.972600 13.969019 12.885143 12.242247 12.493381 11.679633 10.670449 11.814765 12.300772 11.751294 11.651932 12.336978 9.944884 8.868106 9.834765 10.638165 11.975104 11.763906 12.670250 11.888843 10.874151 10.794164 10.204449 11.462250 11.914963 11.713037 12.792635 11.733264 10.638451 9.871097 8.920434 11.601367 10.642596 10.648887 11.576248 11.246916 12.008935 12.932692 12.832222 12.541810 13.301022 14.038979 14.572365 14.070361 12.726771 13.162251 13.380621 15.358676 15.490556 15.554172 14.548673 14.394717 14.966983 14.403326 13.963163 14.912498 13.614973 14.598099 14.379871 14.758531 13.165880 10.396314 11.050921 12.350830 13.697786 14.284752 13.508216 12.669355 12.325088 12.605031 11.727174 10.939798 12.498744 13.154187 12.200233 12.478977 10.760512 11.784878 11.185249 11.879592 12.422318 12.627974 12.045881 12.171034 9.689173 12.428570 12.384185 11.852983 9.559300 9.351451 9.701525 10.112129 8.844224 8.991039 7.087370 6.368408 7.489387 8.027650 7.495299 7.427078 7.304563 5.998518 6.553866 6.913596 5.993446 5.746334 6.296433 7.711181 7.161055 5.037234 4.361996 3.650115 4.156415 5.459291 7.060259 6.641611 4.578730 3.892680 5.605997 5.416174 4.891507 3.764383 4.112181 5.602676 6.200281 7.296286 6.095336 4.897806 4.308175 4.031850 4.679194 5.216260 5.542988 5.650026 4.825497 3.823697 1.888929 1.814515 4.012505 5.052321 3.904477 3.778915 3.128888 2.433870 4.558009 5.371363 5.426334 3.967851 3.808227 4.323608 4.290733 4.677443 3.025142 1.130086 1.755191 0.998809 1.279430 1.139808 1.113823 0.272271 -0.439195 -0.786862 0.376749 0.783283 1.833346 1.464687 1.705413 1.225249 1.510777 0.422131 1.557335 2.065010 3.232164 3.129806 2.611384 0.585047 0.512095 -1.159302 1.378373 2.233065 2.788500 2.096678 -0.466743 -1.018706 0.721546 1.987058 3.815949 0.945593 0.683810 1.319392 3.398650 3.724583 5.009630 4.362652 3.046222 3.352488 3.673254 3.966927 3.935472 3.461605 3.838741 3.530333 2.760305 1.922595 -0.124321 0.847295 2.194616 1.858207 0.320480 0.255963 -0.857630 -1.327613 -0.113494 0.718462 1.112518 -0.267281 -0.708141 -0.930195 -1.101319 -0.560792 -2.536210 -1.766728 -1.345788 -1.382218 -1.386068 -1.446659 -2.061109 -1.671780 -1.096260 -1.372209 -2.090383 -1.845150 -1.352679 -1.514165 -2.714515 -2.447911 -1.972934 -1.663724 -2.164537 -2.267810 -2.717147 -2.827062 -2.992024 -2.483710 -2.726894 -4.561765 -4.724643 -4.326442 -4.003907 -2.591007 -2.368332 -3.044799 -5.078860 -6.266412 -5.368751 -5.215756 -3.270555 -2.418515 -4.091483 -4.593311 -5.046825 -3.470350 -2.091231 -1.578612 -1.297329 -1.105867 -0.938551 -0.172447 -0.229753 -0.328357 -0.937369 0.772411 1.179940 0.384003 0.488690 0.271271 -0.641533 -0.694751 0.234119 1.645180 1.406406 2.522994 2.804050 2.055104 2.045601 3.291806 3.634514 4.857129 5.170411 5.718409 5.504444 4.545882 3.984997 4.480830 5.634507 6.616498 6.944570 6.468560 4.924971 5.079131 4.695866 4.857173 3.752529 4.912234 6.275320 6.508371 8.113986 7.542569 4.634537 3.658104 5.444120 7.884442 9.522818 8.537370 7.817863 5.856306 4.690624 5.421432 6.216283 7.582883 7.422556 5.991852 4.987111 4.756103 5.962943 6.769824 7.995961 7.806802 5.549590 5.592684 4.994342 4.863357 4.496343 4.506390 3.846040 2.839849 3.693674 3.619945 3.176037 2.697274 2.511064 5.821334 4.590817 3.548552 4.908241 6.084007 5.194333 5.663939 4.421558 3.378615 3.500752 5.136937 4.455965 2.419936 2.917737 3.191358 3.920920 4.386551 5.000895 4.483989 3.434689 3.605676 3.131448 2.258464 3.485317 3.355604 4.183444 3.677671 3.016390 1.843440 0.955277 2.979585 4.437061 4.344919 5.662196 4.375007 2.499217 2.201696 2.713690 3.245428 2.820030 5.046523 4.386407 2.335336 0.438168 -0.827468 -0.094646 0.639136 -0.564320 0.658605 0.281853 -0.061728 -0.485881 -1.368099 -1.861180 -2.684037 -2.741495 -1.468085 -1.488515 -1.421655 -3.424874 -3.090343 -3.086579 -3.060294 -3.882612 -3.572538 -2.493760 -2.955526 -3.238588 -2.881939 -4.590931 -4.638159 -3.721753 -1.855403 -2.910475 -3.647202 -3.594083 -2.915195 -2.314682 -3.089394 -3.755347 -5.016985 -3.686351 -2.960101 -2.373593 -1.840412 -3.471913 -5.210097 -6.329601 -5.955912 -3.146161 -1.528303 -0.709409 -2.216297 -4.327950 -6.800961 -6.233068 -4.566282 -1.765121 -1.025229 -2.017140 -3.196083 -3.187850 -3.696480 -2.551394 -1.223206 -0.513132 -1.098352 -0.777750 -1.472005 -2.688233 -3.703462 -3.963739 -3.067904 -1.356006 -0.830165 -2.374559 -2.951350 -3.636071 -3.059838 -2.718128 -2.714686 -2.819168 -1.871407 -0.923697 -0.320740 -1.902471 -2.070553 -3.043743 -1.703288 0.207648 -0.549452 -1.184042 -1.102063 -1.798705 -1.766358 -2.426216 -2.001931 -0.984451 -0.804059 -1.633122 -2.870602 -1.758621 -3.301339 -2.214328 -1.179316 -0.682015 -2.474937 -2.517449 -2.463889 -2.077430 -3.492028 -2.980481 -1.882748 -0.512481 -1.354724 -1.695304 -2.316149 -0.819872 -2.599954 -4.231337 -1.432564 -1.826857 -1.171538 -1.823336 -2.345411 -3.286690 -4.344524 -3.094916 -0.879089 -1.580359 -1.608555 -2.941461 -2.776913 -3.263623 -2.171302 -1.524141 -2.763612 -2.702627 -2.814132 -2.831864 -2.357845 -3.297769 -3.086954 -3.139062 -3.381012 -2.286652 -1.895312 -3.180366 -3.964039 -5.108267 -4.186191 -3.768815 -2.835920 -3.784162 -4.035730 -4.300171 -6.132442 -7.435565 -6.950440 -5.730375 -4.931667 -6.117953 -6.141002 -5.750452 -5.454519 -6.106225 -5.653788 -5.360709 -3.830891 -4.308826 -4.099169 -5.609320 -7.047336 -6.822977 -4.444422 -4.101313 -3.800098 -5.231097 -5.820107 -6.029530 -5.298072 -5.611821 -5.787315 -5.658746 -5.532114 -4.931407 -4.343693 -5.753951 -6.685148 -6.698421 -6.826866 -5.154015 -2.980108 -3.881633 -2.486992 -3.785356 -4.415812 -5.929525 -4.311713 -3.710445 -2.943371 -2.719496 -3.069651 -3.718390 -4.657088 -4.162774 -3.578343 -2.506464 -3.642217 -3.067667 -2.635617 -2.570122 -3.000361 -2.828405 -3.469259 -2.622997 -2.785049 -3.592348 -5.001742 -5.414308 -5.001254 -3.375605 -4.393756 -3.882811 -2.702280 -3.108172 -4.952695 -5.867544 -5.586305 -3.869341 -1.707609 -0.397659 -1.774342 -4.253869 -5.878018 -5.594886 -5.171252 -4.783767 -5.031310 -4.993443 -5.673251 -6.505710 -8.253152 -8.349417 -7.966952 -8.273230 -7.146114 -5.974970 -6.197840 -7.268452 -8.525660 -8.696918 -7.380778 -6.431831 -6.844861 -7.678859 -8.316532 -6.870702 -6.386301 -6.240443 -6.423180 -7.396367 -7.038910 -7.554862 -5.901034 -4.875138 -5.228837 -5.113470 -5.795532 -6.886490 -6.288119 -5.705188 -4.665926 -4.074674 -2.853113 -4.169878 -5.662486 -4.704762 -2.952231 -2.625060 -2.504929 -1.565865 -1.947787 -1.883704 -1.002820 -0.152573 0.175587 -0.005638 0.915008 0.617754 0.207095 0.295125 1.208842 1.342535 0.387681 -0.530366 -1.911650 -0.878318 0.481475 -0.011975 -1.071040 -1.969852 -1.842827 -1.982420 -2.818843 -2.738563 -2.499755 -3.339581 -3.746473 -4.441092 -6.370581 -5.437543 -4.200804 -4.695446 -3.910243 -4.874302 -5.847607 -6.310842 -6.755939 -6.282044 -5.059238 -4.388335 -3.911945 -4.956159 -4.815020 -5.020529 -5.853377 -4.646645 -3.802165 -3.467894 -2.535572 -4.743503 -5.477524 -5.505932 -6.531515 -5.173479 -3.973581 -5.081061 -5.873029 -6.998190 -7.826664 -7.856136 -7.742622 -7.289114 -8.015190 -7.504824 -7.986575 -8.426223 -8.495218 -8.276685 -8.959804 -9.327955 -8.595151 -8.842147 -9.162406 -8.592364 -9.570188 -10.556595 -11.624578 -9.846438 -8.585708 -6.986327 -8.938372 -9.204730 -10.634681 -11.185209 -10.589544 -8.744995 -7.309821 -7.406896 -8.048657 -10.160971 -10.549852 -9.707459 -8.674296 -7.622219 -7.006832 -8.780857 -9.127524 -9.218292 -8.256206 -6.156281 -6.092901 -6.307097 -5.852004 -6.587561 -5.674313 -3.711303 -2.712103 -3.554325 -4.050768 -3.801556 -3.918750 -4.351015 -1.236070 -1.074028 -1.299612 -2.131657 -2.697523 -1.606778 -0.808612 -1.113189 0.192910 -0.046229 0.464513 0.393404 -0.300257 -1.700478 -0.772571 0.313387 0.731623 -2.312836 -1.726293 -0.834665 -0.501348 -1.182355 -2.297233 -4.372461 -4.537278 -3.461030 -3.099974 -2.922085 -3.954892 -4.309551 -4.863238 -5.437290 -5.438904 -5.898542 -4.605372 -3.111617 -3.834118 -5.117581 -5.427586 -4.481051 -4.906267 -5.828285 -5.198364 -5.241137 -4.537631 -3.982161 -5.073884 -7.168225 -8.470357 -9.209848 -8.534806 -6.207369 -4.614694 -6.580524 -7.329860 -8.757971 -9.128834 -7.580141 -7.748906 -6.421423 -7.438618 -7.997669 -6.686434 -6.381501 -6.671544 -7.207064 -6.982862 -4.673335 -4.205289 -3.098763 -2.232233 -3.869177 -4.452482 -3.839748 -2.867342 -1.278202 -1.607535 -1.169016 -1.510405 -3.715885 -4.584467 -3.127442 -1.845444 -1.696096 -1.785139 -0.545891 -2.968483 -4.417818 -2.001224 -1.902972 -1.611774 -1.162080 0.261348 0.284491 -1.772067 -1.929965 -1.457143 0.011677 1.244864 0.987119 -0.463802 -0.704499 -1.418005 -0.668625 0.869027 0.284425 -0.011267 0.547640 1.129392 1.181177 0.404948 -1.080349 -1.680902 -0.515709 -0.076440 -0.062040 -0.345900 -0.406551 -1.731907 -0.873672 -0.740637 -0.966040 -2.042462 -1.544896 -1.623451 -1.962502 -0.547518 1.594933 0.597612 -0.100428 -0.339196 -0.942802 0.979883 2.781102 4.276464 2.551876 1.082417 0.408752 0.052176 0.744012 0.850306 1.315510 0.823700 -0.468066 -1.011987 -1.729965 -1.501173 -0.998438 -0.432174 -0.278286 -0.838666 0.229046 -0.219721 -1.688646 -2.553737 -1.862340 -1.630753 -1.276545 0.318578 0.611974 0.183040 -0.112276 0.214684 1.865595 0.956989 1.610630 2.529816 1.264284 1.722388 1.589394 2.139052 1.575607 -0.020386 1.603703 1.862310 2.030277 3.258920 1.841187 0.856302 -0.022568 0.868776 1.172056 2.660925 1.876019 1.954828 0.903418 0.506828 -0.856084 -0.690452 -0.213577 -0.791436 -0.356566 0.153468 -0.999894 -0.968315 -1.818884 -0.546741 -0.042316 0.153048 1.216544 1.176463 2.570887 0.711876 -0.538896 -0.222313 -1.004961 0.127123 0.702711 -0.100261 -1.316375 -3.075930 -3.885844 -4.120558 -3.446098 -3.722565 -3.225850 -3.038616 -3.277583 -3.576955 -4.305329 -4.993330 -6.078987 -4.870194 -5.940927 -4.561459 -3.720750 -5.369288 -7.393159 -8.593831 -7.997753 -6.464921 -4.319960 -4.463507 -5.567968 -7.013047 -7.235986 -7.277503 -5.666386 -5.634034 -6.514888 -6.689449 -6.359011 -6.569999 -6.483517 -6.968597 -7.438969 -7.089225 -5.339662 -4.875465 -5.392275 -4.278042 -5.975428 -6.744344 -5.679829 -5.062416 -3.121734 -3.068239 -4.066347 -4.790198 -5.009400 -5.744276 -4.680041 -4.623396 -3.571604 -4.899890 -4.175460 -4.903372 -4.888327 -6.476406 -5.911262 -4.976691 -4.717642 -4.671001 -4.602306 -5.044496 -5.606201 -6.063221 -6.075912 -6.490768 -6.020290 -4.331547 -4.463343 -3.980406 -4.821851 -6.922962 -7.559776 -6.890643 -3.185331 -2.586724 -5.762189 -6.112915 -7.536601 -7.274569 -7.127838 -5.626717 -5.234263 -7.044288 -6.904478 -6.640959 -7.031381 -7.501862 -7.524024 -7.815384 -6.095729 -5.305475 -5.499346 -6.153280 -7.258211 -8.872765 -9.138370 -7.384197 -5.648385 -6.229827 -6.013792 -6.994962 -8.118095 -8.941579 -7.707477 -6.622461 -6.407887 -6.926314 -7.014651 -5.597006 -5.506768 -5.527993 -5.205211 -5.311648 -6.219670 -4.754882 -3.702285 -2.961554 -3.966917 -3.812812 -5.186740 -5.418125 -5.361648 -4.594872 -2.581464 -2.054815 -4.706448 -5.405772 -5.833672 -6.231431 -5.208991 -5.150426 -3.007208 -2.618763 -3.553003 -3.857264 -4.336306 -4.845882 -4.650412 -1.569140 -0.093488 -0.642311 -1.201096 -1.303792 -1.954450 -0.891594 -0.034688 0.774184 0.761544 0.574439 -0.027704 -0.634350 -0.579438 -0.681173 -0.791641 -0.962741 0.234636 0.857367 1.053726 -0.094046 -0.202016 -1.284025 -0.878275 0.096259 0.513063 -0.177923 -0.392700 -0.747330 -1.051907 -1.628045 -0.599288 1.223304 0.419047 0.846163 1.039671 -0.331662 -0.900623 -0.128006 1.009230 1.312410 1.290349 1.499539 0.620138 -0.074659 1.601885 1.368695 2.841558 4.095333 3.728296 3.005795 3.211352 3.101046 3.118265 2.708378 3.894900 4.127703 3.315752 4.316688 2.788642 1.842498 0.574314 -0.362822 1.275184 2.075157 1.338885 1.193692 -0.332748 -0.658700 -1.112383 -1.233255 0.717093 2.256079 0.293470 -0.486801 -0.942741 -0.778235 -0.716573 -0.257108 0.564201 0.782635 -0.362019 -1.049849 -2.144909 -1.404574 -1.796794 -0.233354 -0.116862 -0.814182 -1.546514 -1.629455 -1.277982 -1.063811 -0.622975 -1.533898 -1.521908 -1.231786 -0.301573 -0.744510 -1.452676 -2.552029 -2.125834 -2.710224 -1.555898 -0.025374 1.080189 -0.824606 -1.344637 -2.489318 -1.406842 -2.082893 -1.519869 0.091734 -0.466147 -1.137892 -2.255436 -2.623043 -2.448137 -3.271245 -2.743402 -1.306374 -0.873156 -1.091088 -2.115888 -3.812331 -4.206984 -4.115922 -2.147370 -1.445106 -0.675377 -1.326980 -4.087296 -3.150017 -2.194145 -1.900697 -1.014358 -1.845374 -1.963742 -1.670259 -1.857045 -1.090172 -1.691947 -0.536474 -0.141209 -0.656880 -1.285344 -1.211172 -1.855262 -0.985847 -1.329204 -1.865253 -2.780441 -2.578912 -1.668545 -1.444275 -2.088351 -2.583381 -1.760965 -1.308318 -0.018473 0.962516 -0.843286 -1.094383 -1.679655 -0.393916 -0.608879 -0.511103 1.357342 0.665864 -0.412771 -1.554175 -1.473887 -1.186859 -0.706124 -1.102160 -0.166908 -0.965317 -1.256142 -1.397429 -1.548301 -1.301857 -1.167493 -1.798738 -0.614537 -1.160364 -2.152780 -0.599432 -2.142233 -3.103075 -3.972336 -4.101904 -2.125229 -1.519188 -1.851634 -2.904141 -5.480255 -5.096175 -3.523089 -2.793892 -2.589825 -3.421659 -4.253375 -3.684636 -5.402935 -5.534946 -4.403615 -5.112055 -4.905578 -3.737318 -3.010300 -3.943686 -5.847885 -5.663201 -4.958474 -4.413404 -2.639909 -3.013668 -4.985189 -6.044178 -6.219497 -5.787141 -6.422624 -4.557805 -5.152065 -5.547387 -5.986291 -5.515818 -6.439108 -5.717340 -6.446322 -5.567368 -5.944169 -4.267060 -5.444790 -6.585747 -5.890126 -5.074110 -6.285654 -4.555215 -4.022762 -1.509609 -3.901178 -5.330534 -5.573506 -5.940880 -4.671526 -3.995982 -4.046803 -4.393072 -4.964265 -5.313385 -5.872623 -6.288591 -7.239045 -5.932483 -4.417374 -5.058552 -4.961085 -5.807938 -6.088112 -5.915143 -5.268287 -5.850654 -5.875021 -6.018612 -5.416527 -5.893171 -6.541682 -6.694893 -6.878266 -5.232945 -3.893382 -4.606407 -5.904649 -6.257077 -5.973729 -5.273787 -5.315973 -5.775213 -5.516050 -4.274160 -3.721879 -5.267201 -6.944228 -7.356697 -6.327210 -4.119386 -3.107722 -3.833779 -5.182353 -7.032379 -6.377668 -6.120563 -3.436649 -1.552694 -2.123372 -3.492924 -4.727595 -5.976437 -3.693959 -2.096460 -2.316733 -2.089015 -2.109333 -2.444159 -3.474496 -3.572025 -3.193991 -3.380029 -2.434150 -0.430714 0.033328 -1.803091 -1.161745 -2.617951 -3.709601 -3.651457 -1.613056 -0.955146 -0.132232 -0.612605 -1.861148 -5.231190 -4.882889 -3.399014 -2.807826 -2.555619 -2.661288 -3.569762 -4.041035 -3.905274 -3.600980 -3.551598 -3.511978 -3.794303 -2.545565 -2.075212 -2.355896 -4.380194 -4.270446 -4.591722 -2.682884 -1.979027 -1.274207 -1.862800 -1.279005 -2.595949 -1.858226 -1.789617 -0.964713 -0.727781 -0.342424 0.461642 0.557885 -1.328831 -0.779581 -0.951524 -1.200819 -1.975465 -0.475036 -0.166654 -0.706462 -0.837472 -2.050340 -2.785106 -2.724575 -1.919659 -0.551518 -0.543833 -1.687478 -1.583492 -1.247457 -1.936730 -0.519673 0.380477 0.736372 0.912547 0.046123 -0.769126 -1.969026 -0.845243 0.965368 2.474858 4.472737 2.420369 1.203645 1.339527 1.232004 2.987192 6.332602 6.151838 5.113193 3.359637 4.316649 4.029748 4.164494 4.114014 4.323876 5.158499 4.753243 4.521871 2.303895 1.956485 2.877486 5.329124 5.541949 5.414179 4.411606 4.845858 4.744617 5.372036 5.178131 5.463833 6.936023 6.911383 5.599676 4.595834 4.831613 3.029693 2.873522 3.639454 2.678609 2.936891 3.223039 3.401282 3.256040 1.654847 1.849973 3.671084 3.867663 5.032255 4.042535 3.230881 3.770938 4.013940 4.114563 3.339322 3.397243 3.389500 2.852585 3.808843 4.551328 5.119022 4.902235 5.165014 4.951138 4.536708 4.219439 5.550978 5.619787 4.919801 3.715916 4.872735 4.751098 4.082568 4.117117 3.654233 3.004351 3.115575 2.854599 3.383697 4.128015 3.280172 3.222237 1.396438 1.771337 1.405973 2.960366 2.285005 2.308100 1.692766 0.359704 -0.023696 0.048615 -0.331425 -0.062707 0.454517 0.385144 -0.418019 -0.453981 -1.159601 -0.979499 -1.332288 -1.391227 -0.142361 -1.083415 -1.348661 -1.183887 -1.704991 -2.339809 -2.774375 -3.543176 -3.625256 -2.034842 -2.528741 -2.419996 -4.472493 -4.925971 -5.350781 -5.587023 -4.339980 -3.886745 -4.676889 -4.636823 -5.992383 -5.238704 -2.960131 -1.963975 -2.218631 -3.372613 -3.353612 -2.875777 -1.723231 -0.208807 -0.475577 -1.999717 -1.900442 -2.333187 -1.464260 -0.869894 -1.294890 -0.896561 -1.662990 -2.836307 -1.650955 -2.807375 -1.002168 -1.052066 -1.850108 -2.354367 -3.095434 -1.332387 0.568545 0.430816 0.227364 -2.634230 -1.962316 -1.099776 -0.059549 1.457983 0.460914 0.558013 0.237850 -0.540972 0.828757 0.531089 -0.199619 1.113399 0.488782 0.302641 0.577937 0.399302 1.095370 1.316136 0.984863 3.181247 2.217484 1.319886 0.692830 1.651594 1.604831 1.966163 1.878145 1.456701 1.195141 -0.202082 0.691413 -0.011747 -1.798099 -1.905876 0.387258 0.846306 0.376638 -1.503518 -2.930662 -2.888696 -1.727603 -0.625648 0.401803 0.486335 0.009681 -0.588554 -1.348167 -0.987964 0.484871 0.795035 -0.115815 -0.294361 -0.560166 -1.428131 -2.819559 -1.388860 -1.909743 -0.737352 -0.162541 -0.505316 1.000721 -0.512398 -0.792153 -0.597828 -0.326844 1.137610 1.386889 0.750241 0.413175 0.092209 -0.195779 -0.297844 -0.484417 -0.806186 0.394250 -0.360509 -0.710130 -1.720491 -2.094944 -1.687980 -0.643758 0.707871 0.852249 0.344822 1.294016 0.372910 1.554951 1.398233 1.810205 1.313216 2.197638 2.990385 2.358175 -0.655761 -0.330144 0.247185 1.441540 3.117124 3.165551 2.936838 0.819305 0.468507 1.106063 0.472309 1.012265 2.537695 1.924500 1.137931 -0.683013 -0.827111 -1.965326 -1.609292 -0.863730 0.791380 0.406911 -1.167165 -1.530188 -0.597057 0.100919 -0.436495 -0.284538 -0.636514 0.242595 0.308148 -0.355927 0.308762 -2.358705 -3.241783 -0.787381 0.411733 1.439776 0.605362 -1.185424 -1.045186 -1.244976 0.602283 2.172031 1.491975 0.575790 0.291546 -0.247480 -0.006459 -0.869276 1.127859 1.576596 0.751491 1.417410 2.256711 0.799405 1.668584 1.526692 3.650553 2.267120 1.634165 2.681720 2.820428 1.770992 1.022290 -0.081268 0.232339 0.482753 1.185912 1.747934 -0.232055 -0.187755 0.580707 0.933972 1.334151 1.432451 0.026878 0.395909 -0.644020 0.129259 0.536623 -0.836488 -0.664865 -1.005305 -1.217538 -0.546831 -0.295015 -0.251572 0.625752 2.488412 1.390232 1.241162 1.113141 0.204546 0.968734 2.487007 3.809021 3.808182 3.755423 0.340540 0.482548 1.695633 2.949654 4.541346 4.272251 2.594171 2.391880 1.194649 3.883959 3.944683 4.801066 5.165154 3.671997 1.442334 1.530897 3.458784 5.390765 5.131383 4.428976 2.048861 2.155266 4.067035 6.203273 5.750909 5.016377 5.241709 6.209559 5.655388 5.412627 4.028332 3.983296 4.517792 5.101216 4.453759 3.196718 3.067324 3.911308 4.670907 4.229182 3.456889 2.828695 2.462400 3.919743 3.940328 3.029400 1.785357 0.171500 0.798557 1.315144 2.196335 2.447251 1.355533 0.889204 0.876776 -1.305250 -1.420798 -0.573528 -0.278904 0.800991 0.098077 0.175993 0.512424 -1.777056 -0.519342 -0.541689 -0.219476 1.539423 -0.223262 -0.132409 0.895695 1.036888 0.166673 -0.217972 0.667434 0.694211 0.545501 1.237284 2.589945 1.687085 0.951113 0.718265 -0.426252 0.860128 2.179811 3.570342 2.759157 0.109779 0.242478 -0.653735 -0.571262 0.817547 0.112687 0.703873 0.127846 -0.655627 -2.028683 -2.943634 -2.808842 -2.578684 -0.125546 -0.412727 -0.340975 -1.240989 -3.311788 -3.330594 -3.257451 -1.762952 -1.061613 -1.800341 -1.386739 -1.317514 -2.819780 -3.603298 -2.712640 -1.766747 -0.634087 -0.692895 -0.850774 -2.363229 -4.186334 -2.290477 -0.973920 -0.237054 -0.602863 -1.187104 -2.614661 -3.437708 -3.200627 -2.516422 -2.811304 -2.489439 -2.938606 -3.895934 -2.571303 -1.987807 -1.820192 -2.506199 -2.458515 -1.204195 -0.609565 -1.827248 0.868601 -0.871384 -2.360023 -1.542358 -2.061384 -2.627145 -2.715272 -1.006842 -1.037659 -2.180798 -2.396586 -1.222126 -0.923450 -0.978842 0.282142 -0.872036 -0.702644 -0.729725 -0.639760 -0.540354 -0.488422 -0.872599 1.377805 -0.423803 -0.369241 -1.009838 -1.763334 -2.611517 -1.983884 -0.573095 -0.782025 -0.892746 0.195524 -2.473273 -1.511791 -0.618642 1.116389 0.951786 0.777081 0.389329 -0.491724 -0.827127 -0.258824 1.927433 1.411618 1.582163 0.190154 -0.895879 -0.153504 0.104784 -0.046191 -0.177872 0.222989 0.655270 -0.364073 -1.043369 -1.818095 -1.880875 -2.177895 -1.785368 0.099965 0.126912 -0.548436 -1.446739 -2.507844 -2.409606 -1.887755 -0.019265 -1.861395 -2.861881 -3.669915 -3.642195 -3.369021 -1.520933 -1.327185 -2.183486 -3.352817 -3.795205 -3.858584 -3.623832 -4.329808 -4.867947 -4.675171 -5.698355 -6.758723 -6.683219 -6.414467 -7.045325 -6.336473 -7.102053 -6.269269 -5.145950 -7.142239 -6.970722 -6.381562 -6.835946 -6.345711 -6.145475 -4.962510 -4.694960 -5.555703 -5.088537 -5.853926 -7.614776 -6.811043 -4.380687 -2.268152 -2.328017 -2.591566 -5.267841 -6.175299 -5.653256 -4.428472 -4.034486 -3.041470 -5.647627 -6.317699 -6.685362 -5.539856 -5.444117 -5.791860 -4.366425 -3.954436 -4.908259 -3.960125 -3.156438 -4.860615 -4.616749 -3.933184 -3.500972 -3.405975 -3.985580 -3.515174 -4.000526 -5.020163 -5.599734 -4.222287 -3.194781 -2.795064 -3.103844 -3.449312 -4.688200 -5.362551 -6.178094 -3.761653 -3.519488 -4.035265 -5.372261 -6.486440 -7.103056 -7.419028 -6.706827 -5.423692 -5.307907 -6.001557 -6.604440 -7.703114 -7.336145 -6.014359 -6.027938 -5.348521 -5.379026 -5.524123 -6.617801 -7.168809 -7.360747 -7.258348 -6.576512 -5.882512 -5.823719 -7.868487 -7.858910 -7.847412 -8.917110 -8.022661 -7.355272 -6.937409 -7.307806 -7.377339 -7.970370 -8.093007 -7.572034 -7.278430 -6.421261 -6.037041 -6.411800 -5.997466 -6.487273 -7.346277 -7.474217 -7.012505 -4.748453 -4.604377 -5.775288 -6.857047 -7.646090 -8.154163 -6.532747 -5.013996 -4.581674 -5.256561 -6.059088 -6.072814 -5.992690 -4.341709 -3.548548 -4.247982 -3.929744 -4.968138 -4.649901 -4.665608 -3.754291 -4.198270 -3.205484 -2.899835 -3.553987 -3.420798 -1.910054 -2.407041 -1.806061 -0.757150 -1.237594 -1.208331 -1.988261 -2.082150 -1.383471 -2.491191 -2.678547 -3.243623 -3.036809 -2.326633 -2.437023 -4.585209 -5.074492 -5.311318 -5.065019 -4.489806 -3.696338 -2.648533 -3.391002 -3.111084 -2.954936 -3.324872 -4.395759 -3.901149 -4.978843 -4.363634 -4.960403 -4.351314 -4.463804 -4.507488 -6.184882 -7.773240 -8.226292 -5.408886 -3.811412 -3.589263 -4.904497 -5.576751 -6.519591 -7.369635 -6.594617 -4.507105 -5.466708 -6.055069 -6.478307 -6.212906 -7.119287 -6.466695 -5.879840 -4.998086 -4.397438 -3.829470 -2.928353 -4.194630 -4.553010 -4.871404 -4.189969 -3.155034 -1.146410 -2.326595 -2.462225 -3.533103 -4.059045 -4.618557 -3.495071 -2.944464 -1.727783 -0.977686 -0.138592 -1.580035 -2.551155 -1.474288 -1.218393 1.737611 2.706234 3.396975 2.454959 0.804317 -0.799719 -0.440513 1.566060 2.604126 3.429626 1.537951 -0.772731 1.549205 2.138613 2.387773 3.208147 2.408697 3.112096 1.512290 2.715966 2.946646 1.831390 2.282899 2.791541 2.262704 2.928285 2.069779 3.391129 2.754423 2.501501 3.463353 3.107754 3.062522 3.678910 1.987216 1.501517 1.986599 2.900083 3.974815 3.442788 3.391608 2.499527 1.885811 0.783557 0.507617 2.090731 3.343662 3.087166 2.381895 0.242928 -0.531760 -0.075360 1.401424 1.886290 3.006936 0.269368 -0.092318 0.373568 -0.898511 -1.216693 -1.744078 -0.123700 0.405184 -1.342159 -1.002095 -1.652449 -1.378241 -0.685271 0.060661 1.525440 1.256462 0.403187 -0.151943 0.275852 1.275970 2.049960 1.696261 2.301080 1.125699 0.341648 -0.384881 1.446244 0.858276 -0.000756 -2.301114 -0.962195 -1.329109 -0.547033 -0.687960 0.222568 -1.318747 -1.752232 -1.774260 -0.520896 -0.042698 0.989879 -0.039181 -0.534278 -0.803121 -0.634072 -0.642257 0.669609 2.074187 2.605605 -0.072531 -0.328751 -1.058509 0.200331 0.654731 1.120709 2.372632 0.203255 -0.542437 0.510323 -0.036322 -0.074254 -0.283119 -1.169629 -0.359287 -0.206160 1.479346 2.280824 1.014708 -0.190538 -0.253540 0.450121 1.269333 1.524968 3.004725 1.815952 0.879738 -1.012569 -1.312134 -1.023283 -0.586554 1.313452 0.886239 0.460074 1.067838 1.245609 1.667767 1.820097 1.444007 4.134485 3.892947 4.360815 3.469390 2.875585 2.324046 1.654145 0.795797 1.831934 1.638906 2.422609 3.007172 2.137353 0.901547 1.340768 3.952964 4.148676 5.295481 4.728287 3.462824 3.573392 2.962186 4.598394 5.536014 4.925144 5.181177 3.912994 4.464905 4.226191 3.623277 4.352335 5.140721 6.170049 5.999913 6.324892 5.312631 4.256621 4.465905 4.617522 4.377050 6.382398 5.965607 5.298088 4.369117 3.593259 3.887868 3.933209 5.757340 6.288930 4.873742 3.338616 3.911112 3.587748 4.326178 5.059371 5.128816 3.490246 2.043356 1.506212 1.355073 2.192143 2.428063 2.941756 1.518993 0.357035 -0.493186 0.087976 1.740978 1.138805 0.589818 0.990652 0.180984 -0.362385 -0.430648 0.288283 -0.055181 0.313870 -0.757393 -1.310118 -1.665445 -1.112078 -0.655477 0.501574 0.093406 -0.117512 -0.323740 -0.502325 0.297732 0.201186 1.637266 1.787115 0.900410 -0.340338 0.427247 -0.226727 -0.198852 -1.207342 -0.136283 0.681065 0.162682 0.672440 0.427139 0.000746 0.859437 -0.178538 -0.826107 -0.507708 0.841029 2.412992 1.317556 0.815421 -0.275986 -0.793614 0.628969 1.373727 3.107467 2.459348 2.115594 2.439439 0.461171 1.599047 2.862089 3.745768 3.603572 1.962358 1.729725 1.656143 1.258003 3.000517 3.328480 3.708935 2.565658 1.626196 2.258844 2.916638 2.891457 3.536614 4.282464 3.136578 2.047929 1.972074 1.764682 1.788681 1.553569 2.068045 1.968588 0.591869 -0.152508 0.342235 0.408428 0.399994 0.845158 0.717505 1.185612 0.317629 1.512808 3.188551 1.545356 1.041015 1.961018 3.029748 1.246167 -0.279268 0.029566 0.592443 1.491315 3.185141 1.833561 1.629356 0.036429 2.014650 2.086678 2.936859 3.617618 1.755490 0.760344 2.045253 2.800969 3.074722 2.562753 2.843417 2.444631 4.235988 5.103047 3.654255 3.184763 4.102902 3.644960 5.314616 5.215866 3.438118 1.932432 2.055991 3.188250 4.069066 4.651069 5.442324 4.693530 3.662211 3.557380 3.890742 3.975165 4.908956 4.996778 5.181256 4.919023 4.502910 3.745161 3.886961 5.139167 5.447842 5.298828 5.472814 6.628018 6.493138 7.233269 7.060685 8.568707 8.205455 8.689073 8.418686 9.259175 9.326398 8.622344 7.554639 8.201123 9.888210 10.073320 10.114099 10.035518 9.478987 9.482404 9.824050 10.485271 9.851439 11.784991 11.551333 10.148456 10.341025 10.957714 8.450344 10.244639 11.489521 11.048434 10.408957 10.755396 9.962531 10.097693 10.326269 12.859487 13.604170 11.810363 10.403906 10.553196 10.830788 11.950564 12.036766 12.213316 11.839362 10.988296 9.570831 9.925865 8.968281 8.202990 8.145003 8.960062 9.505936 10.272175 7.860616 7.029101 5.484591 6.020090 5.942375 7.015678 6.968935 6.037289 4.545877 4.725315 4.523530 5.970681 4.021170 3.515906 4.123707 5.388865 5.994452 5.857057 3.190178 1.974525 2.352069 3.067388 2.711012 2.097005 1.329069 1.466970 2.725029 2.098620 0.709400 0.880176 1.465712 2.623463 3.227540 3.147127 2.736753 1.310313 2.064269 2.120810 3.038471 5.698830 4.772580 2.949634 1.474074 1.079687 0.896027 2.271445 4.327585 3.159553 0.904716 -0.084660 0.073665 0.632838 0.604587 -0.140738 0.830859 0.620393 2.339777 1.983986 0.241580 0.819317 0.584864 2.489283 3.105355 3.131165 2.161948 1.291876 2.087593 3.166194 3.021338 2.483866 2.438052 2.692409 1.495802 2.922836 2.265382 1.146740 -0.096606 1.163645 3.641090 3.485014 1.289211 0.514181 -0.258509 1.590326 1.794004 2.884570 2.475270 1.730000 2.755391 1.502716 1.896270 1.559721 0.674624 0.665373 1.532545 0.832891 1.990484 1.274142 0.480436 1.562591 0.108364 0.478618 1.609257 2.516782 2.102726 0.752207 0.559728 -0.598977 -1.760303 0.430536 2.127491 3.088130 2.676112 0.870182 -0.243655 0.107143 0.901099 1.810077 1.945759 -0.092293 1.720713 2.696837 1.819253 0.505718 -0.203091 0.054114 0.988024 1.251831 1.677565 0.991022 -0.292816 -1.457648 -0.921879 -0.217462 -1.211269 -1.891993 -0.366610 -0.032354 -0.005623 -0.130335 -0.423668 -0.022330 1.034751 1.418878 2.425619 2.110821 -0.378561 -0.963288 -0.439926 0.270517 1.050119 1.411296 1.528552 1.270141 -0.647503 -0.670333 -1.095259 0.512386 1.897265 2.216120 4.238234 3.327485 0.848551 -0.121831 0.780562 2.018292 4.063147 4.530416 4.085745 1.407350 0.793397 0.506153 1.196070 0.742154 1.368704 1.475781 1.293044 0.970777 0.751001 1.377087 1.462135 0.748020 2.619593 2.294419 2.013914 1.519524 1.187571 0.210932 -0.569151 0.006329 -0.233286 -1.304062 -1.215372 0.394630 -0.558423 -0.104355 -1.115266 -1.022506 -2.665568 -2.945618 -1.973978 -2.287293 -2.023137 -1.464585 -2.304384 -2.252135 -3.829096 -4.723008 -4.208874 -3.757948 -2.599266 -2.549262 -3.039585 -3.619622 -4.612633 -5.058017 -4.147886 -3.588186 -2.860310 -1.321130 -3.173572 -2.385190 -3.219826 -3.213396 -3.326371 -1.867217 -1.434890 -0.465618 -0.423783 -0.906162 -2.845980 -4.212635 -4.386964 -3.409156 -2.447659 -1.035406 -0.388226 -2.264657 -3.553904 -4.203932 -2.831122 -0.621209 0.454302 0.181983 0.642867 -0.050740 -0.093757 -0.510110 -1.625757 -1.761440 -1.256235 -0.501920 -0.466065 -2.004807 -3.025422 -3.904574 -3.198087 -2.039573 -0.525769 -0.191364 -1.148896 -1.762590 -2.642145 -2.042755 -0.390761 0.367014 -0.144890 -0.624313 -0.031382 -0.141399 -1.258289 -0.688436 0.374301 1.029084 2.038783 0.990813 0.042787 0.047059 1.603191 0.597949 1.204410 1.179237 0.830085 -0.040798 0.733162 0.678391 1.185909 1.851094 1.787754 2.175961 0.883218 0.211939 0.977498 1.881344 1.705777 2.668672 0.960184 1.174963 0.778974 1.400412 3.206826 2.624302 2.570708 3.525223 1.863656 2.593279 1.213274 -0.152098 0.820472 0.272185 -1.296720 -2.222687 -2.205361 -2.009787 -3.525339 -3.363430 -3.542778 -2.898457 -3.111140 -1.830029 -1.937207 -3.111592 -5.819193 -3.862017 -3.232849 -3.176533 -3.454656 -4.408769 -5.146841 -6.106756 -6.118588 -4.979243 -4.014932 -3.477170 -3.599300 -5.295995 -5.523775 -5.961452 -4.923061 -3.605577 -3.148439 -3.707706 -3.651445 -3.589139 -4.592245 -4.316340 -5.028300 -3.176712 -2.220777 -2.941653 -3.517246 -4.370180 -4.968902 -5.967158 -5.143372 -3.204351 -3.481660 -3.352640 -3.895275 -4.677345 -6.006317 -5.339184 -3.124407 -3.609712 -4.499491 -3.289023 -3.954972 -4.031390 -3.563333 -2.698773 -2.889267 -3.617568 -0.864077 -1.153930 -2.966056 -3.043455 -2.987303 -3.350818 -3.197201 -2.920571 -2.263238 -2.990152 -1.484625 -2.369841 -3.809142 -4.143422 -3.547779 -3.320262 -0.864895 -0.681276 -1.456940 -3.819608 -4.987768 -4.285716 -2.145746 -0.441510 0.636770 -0.725990 -2.096954 -1.762318 -0.856731 0.496905 1.460965 2.646640 3.363853 2.108948 1.954011 1.220196 2.105027 2.290325 3.099822 2.450682 2.605013 1.820285 3.104444 1.724094 0.432655 1.160669 0.577614 2.278511 3.218014 2.851845 1.603519 1.203914 2.516349 4.317333 4.174376 5.997874 4.467134 3.796330 5.709933 4.874384 4.949076 5.901208 6.086683 5.511977 4.947757 4.741282 3.799059 2.775375 2.186220 2.314423 2.892515 1.887463 2.718221 2.655913 3.121406 3.404006 1.939264 1.905672 2.688061 3.678381 5.512509 5.230868 5.498339 4.847637 2.002860 1.703345 2.673305 3.888810 3.907777 4.377515 3.205967 1.423172 0.891861 1.274269 2.614467 3.134610 2.636319 2.005618 1.556989 2.202131 2.380677 1.076818 2.054693 3.848489 4.897733 4.700161 3.721056 2.352247 2.387712 1.505234 2.779950 3.533318 3.939731 2.884511 1.400794 0.185450 -0.294144 -0.497695 1.058634 2.598641 3.096298 2.049834 0.430579 -2.522352 -2.196473 -0.236648 0.769286 1.942726 2.092831 0.564201 -2.102260 -1.304837 -0.570931 0.310702 0.300832 0.705264 -0.321791 -0.169755 0.527962 1.753850 0.624429 -0.069480 -1.133373 0.358177 2.175688 2.645803 2.443726 0.996365 0.169453 -0.796954 -0.327325 1.670625 2.868597 1.925031 1.968075 0.900740 0.899037 2.526201 2.954302 3.814206 4.244359 3.253525 0.763766 1.233749 1.326565 1.531453 1.387155 2.814115 1.941947 1.191732 0.733573 0.131561 -0.813468 -0.145804 0.751321 1.352213 1.879697 1.649747 -0.490330 -0.831802 -1.541715 -0.977721 -0.733168 0.006695 0.337323 -0.040716 -0.455630 -0.933620 -1.527060 -1.284070 -1.769355 -0.243947 -0.847997 -2.726914 -1.056082 -1.195871 -2.997149 -3.671739 -3.221988 0.005354 -0.510745 -1.216183 -1.555653 -3.097671 -2.891050 -0.835486 -0.648541 -0.946394 -2.157417 -2.515203 -2.882364 -2.767951 -3.446586 -4.139724 -5.818249 -4.651289 -2.747628 -3.082489 -3.090461 -4.729972 -3.986597 -3.700986 -2.150255 -1.386270 -2.382269 -1.840513 -2.186800 -4.316386 -3.508124 -3.872647 -3.803634 -3.080054 -0.902086 -2.568601 -5.085623 -5.120922 -1.711760 -1.191961 -1.625384 -1.199406 -0.655953 -0.353658 -0.429641 -0.611321 -0.535977 -1.768621 -2.300594 -2.029207 -2.654288 -2.759568 -2.585237 -3.121030 -3.899531 -4.194866 -4.276250 -4.070832 -3.804073 -3.398850 -3.767249 -3.390332 -3.871674 -4.094617 -3.742702 -3.704569 -3.486130 -3.699023 -4.220809 -3.856962 -2.584198 -2.968320 -2.922963 -2.493618 -0.742555 -1.807571 -1.834255 -1.821483 -2.265864 -2.524063 -1.328717 -2.365216 -3.847841 -5.344739 -3.869527 -2.216980 -2.974320 -2.120659 -2.053567 -3.816350 -3.669819 -3.607408 -1.164564 -1.123652 -2.143701 -1.573147 -2.684348 -4.058561 -2.199251 -0.738462 0.169974 -1.278180 -2.846913 -2.401222 -2.297494 -2.998808 -0.869082 0.521776 1.820264 1.468160 -0.068017 -1.175519 -0.271311 1.740418 3.084401 2.976450 2.351743 2.039835 1.726091 1.048250 2.700813 3.374062 3.306197 3.313564 3.139789 1.978207 3.183167 3.898962 4.062996 3.623220 4.438125 3.736288 3.341400 4.301061 4.016972 3.206627 2.067367 2.761014 2.746965 3.256620 2.478924 2.621336 2.154909 1.640494 1.536564 1.648165 0.489300 2.538072 2.831646 2.239829 0.649908 1.169210 0.558580 1.350637 1.536507 1.791302 2.371965 1.463508 1.265925 2.889129 3.871626 4.073002 3.106409 3.735261 2.100499 2.234917 3.946571 6.326335 5.202039 3.899453 2.877887 4.559834 3.042483 4.275174 3.729209 2.926458 4.491967 3.304558 2.234237 0.614491 -0.357723 1.024546 0.638346 0.580204 0.954862 -0.050828 -1.134324 -1.422656 -2.862568 -2.827082 -2.855648 -1.817336 -1.268067 -3.430291 -3.873289 -3.833010 -3.029414 -3.072717 -1.626163 -0.217962 -0.667161 -3.508388 -4.952029 -5.112051 -4.600024 -4.668433 -3.863640 -6.221102 -8.077186 -8.466781 -10.034487 -9.889219 -7.804428 -6.742253 -7.629992 -8.782651 -9.692760 -10.100469 -9.465040 -7.778129 -7.490739 -8.434435 -9.252322 -10.322561 -9.952093 -8.473321 -8.088174 -8.213028 -8.633164 -9.073624 -9.845393 -8.040055 -6.742122 -7.730162 -8.521648 -9.471936 -9.417140 -6.435343 -5.262725 -5.711246 -6.640839 -7.351273 -7.706313 -7.867621 -6.643845 -5.273150 -4.330450 -4.536730 -4.898519 -5.264528 -6.684658 -6.590706 -4.474820 -2.316628 -2.916618 -3.282437 -5.322520 -5.939338 -5.025798 -1.938597 -1.386254 -2.321977 -2.653826 -3.129920 -3.201244 -1.520958 -0.815044 -1.025998 -0.487798 -1.335677 -3.528282 -2.362751 -0.782810 -0.916990 -0.466954 -0.245635 0.254384 -1.995140 -1.681996 0.938534 -0.179251 -1.161626 0.274787 -0.948353 -1.076456 -1.407470 0.261934 -0.131851 -0.972428 -0.882276 -0.860644 -1.465390 -0.761898 -0.808263 -0.935424 -2.555318 -2.427846 -2.001671 -1.096517 -0.113770 1.165497 -0.340156 -0.707417 -1.410087 -0.270476 0.872529 2.178316 2.383813 1.858250 0.340021 1.189255 0.658453 1.418467 3.528731 1.357717 1.461596 2.054206 1.761153 2.422848 1.854622 2.551800 1.632769 0.952700 0.748029 -0.353621 1.435398 1.052621 1.739058 1.024509 -1.303662 -1.465774 -1.206326 0.448753 1.985845 -0.173035 -2.319801 -1.545581 -1.331248 -0.747742 -1.107016 -0.094300 0.346388 -1.477424 -1.525551 -2.475551 -0.722013 0.105021 1.378697 0.909053 -0.237015 -1.404591 -0.921021 0.100149 1.286195 1.145119 -0.067947 -1.403759 -2.127231 -1.175378 -0.295983 -0.069381 -0.515764 -0.473778 -1.732396 -1.268441 1.013367 1.425004 2.186690 1.647622 0.843553 0.479728 1.853149 3.771807 3.816417 3.224582 2.347847 1.383370 1.084258 0.975413 2.984291 2.655160 2.355958 3.224959 2.616566 1.728790 1.052068 1.281242 1.563062 3.062289 3.016589 2.153015 1.500285 1.117740 0.494537 1.070787 0.948267 1.608598 0.469787 2.342459 0.698739 0.984768 1.380158 2.690274 2.011064 1.734077 1.487448 3.158908 2.053998 4.110420 4.271600 4.116918 4.285295 4.344199 3.858037 1.781449 2.776454 4.216073 3.983585 2.835668 2.594404 1.340881 0.884094 0.619002 2.007375 1.159555 1.315444 2.006675 2.308007 1.195411 1.108575 0.478277 0.409660 1.535526 1.494449 1.110236 0.292361 0.427015 0.831097 1.344965 0.973430 0.437336 0.780165 0.336297 0.144510 1.077057 2.038479 1.479974 1.541148 0.241983 1.763451 3.071399 3.803865 3.269428 1.592904 1.344427 1.910866 4.151644 5.448967 4.796251 3.834249 3.232249 3.844801 3.869427 3.322439 2.949693 3.983420 3.637415 4.034474 2.718367 1.447239 2.210474 2.617019 2.868938 3.841774 0.625011 1.172375 2.022421 1.748891 2.427686 2.262541 0.836133 1.769790 0.329243 0.983831 1.418323 0.549814 1.060034 1.709961 3.518069 3.826635 2.425931 1.601905 0.780086 -1.027503 -0.376932 1.554775 2.517032 2.000318 0.868005 0.998208 -0.349166 0.279894 1.671037 2.223375 2.604818 2.723964 1.530425 1.793873 1.963252 2.254892 2.709469 3.963849 3.212427 2.862252 1.684443 2.603368 2.297496 1.728297 2.256847 2.847517 2.956438 2.440641 1.514691 0.776411 -0.250335 0.592424 1.035645 2.544231 2.850247 2.675464 0.823686 1.499200 2.139841 2.065874 3.423054 4.119933 3.217716 3.326357 2.555149 1.879385 2.542173 2.356563 3.763867 3.959642 3.348555 3.924033 4.217790 4.162063 6.240623 7.345916 8.532482 9.445221 8.909159 7.370306 5.110410 6.464006 7.344677 8.582843 8.356353 8.700993 6.757556 5.505077 4.876687 6.071954 6.086797 6.156578 7.424573 7.563934 6.039019 5.994239 4.899722 3.493248 5.151014 5.818425 6.334849 5.643759 3.851910 3.026182 3.537907 4.014425 3.129978 4.547933 4.768881 4.018646 2.801162 1.769908 1.371222 3.144853 3.897834 4.480189 3.055985 2.871474 2.544089 2.916895 3.539328 2.780152 2.766974 2.936029 3.192708 3.733622 3.476013 1.168832 0.286129 0.645832 3.336602 4.955908 4.463663 3.615985 1.092952 0.589018 1.530127 3.143801 4.158456 3.802862 4.493253 3.613023 3.151108 3.200865 2.837611 3.398549 4.622280 5.889833 5.254134 3.952855 4.590973 3.683359 2.307025 4.138432 5.152277 5.088368 5.745673 4.088848 3.745822 4.105781 4.669701 5.649936 5.985104 5.662557 5.027614 4.551983 4.304640 3.435745 2.725571 2.341092 4.017266 5.262772 5.782899 5.341857 4.468138 2.751213 3.388206 3.418030 6.351006 7.598981 6.778523 4.839349 5.057070 4.076438 2.121076 3.485614 4.064295 4.418564 3.413785 4.022577 3.585875 2.037718 0.639667 2.109695 2.028767 2.931475 2.355426 1.376934 1.098958 1.120112 1.124810 1.406664 0.555241 1.397079 2.524371 0.669332 2.068348 2.888048 2.627636 2.572830 3.101671 2.842260 1.913879 3.067732 2.523222 1.869418 2.292776 2.548132 2.982614 2.329240 1.793197 1.766273 0.403453 1.224940 2.339711 2.034670 0.983303 1.608077 1.376992 1.529260 0.607039 0.478903 1.129799 2.753173 2.759812 3.795557 3.730042 2.721801 0.767914 2.363411 3.188215 4.381063 4.796914 4.496512 3.342284 0.678647 1.230308 2.563741 3.117666 3.081330 3.319607 4.220522 4.063712 1.253221 0.497438 0.504833 1.545048 3.779930 4.989971 3.852812 2.124106 1.151797 1.108064 1.510368 1.429200 0.242429 0.746404 0.834273 0.922938 0.939948 -1.187497 -1.204405 -2.144615 -1.991618 -0.373762 0.539447 0.497771 -1.348238 -0.336553 0.166460 -1.732255 -0.775635 0.331649 1.015787 1.130963 1.272704 1.632204 0.933041 -0.364862 0.489955 0.516982 0.687328 1.023538 -0.003887 -0.169940 -0.356348 -0.602190 1.181909 1.997529 3.154028 3.290726 1.188786 1.048090 1.523127 0.331618 1.377557 1.797855 1.398747 -0.322446 -1.355045 -2.973770 -3.179881 -4.836281 -4.628791 -3.757433 -3.565458 -4.499031 -6.106657 -6.104253 -4.835107 -5.436828 -5.284988 -5.437429 -4.974663 -5.773418 -6.143824 -7.589140 -7.095036 -8.366286 -7.265702 -6.370062 -7.206212 -8.654550 -9.055399 -9.078754 -8.037221 -8.157032 -9.693162 -8.770666 -8.789299 -8.600660 -8.997633 -9.404018 -10.669532 -9.679091 -10.248982 -10.158504 -10.228569 -9.071192 -7.905312 -8.487284 -9.511257 -9.600086 -10.823339 -11.990261 -11.749432 -11.084557 -11.191805 -10.738455 -11.117072 -12.306387 -13.480954 -13.390534 -11.332138 -9.618622 -9.797593 -10.393979 -11.226444 -10.755067 -9.849800 -9.426580 -8.007492 -8.566126 -7.991445 -6.679040 -7.618916 -7.035605 -6.496186 -5.631555 -7.462910 -6.561906 -6.472367 -5.885275 -5.222741 -4.781823 -5.956050 -7.589331 -6.081495 -5.313604 -6.054482 -4.791106 -4.033403 -5.260889 -5.530616 -5.028123 -4.520394 -5.949449 -5.964745 -4.961716 -4.064321 -4.328845 -4.348249 -5.264262 -5.952278 -6.050158 -5.038729 -4.610970 -4.918005 -4.492957 -4.755639 -5.471213 -5.308337 -5.829600 -4.634406 -2.742789 -2.073656 -1.800893 -3.479438 -4.254501 -4.304991 -3.544991 -2.758827 -2.087572 -1.337757 -1.011784 -2.771588 -3.694256 -2.327433 -2.550183 -1.220710 0.739208 1.541407 1.082118 1.445913 1.759072 1.203427 0.829749 3.111819 3.325267 2.174460 1.147987 1.609726 1.168627 1.220003 1.750880 2.050814 1.777067 3.077835 2.384880 2.424672 1.785687 1.699648 2.909952 3.516681 3.888653 2.716117 3.209607 2.772981 2.680279 2.897880 3.333796 4.897696 4.491101 3.388816 2.851200 3.476532 2.828377 3.092185 3.160589 4.903043 5.523112 6.160442 5.871129 6.358479 7.020071 6.255733 7.103815 8.198580 8.138521 7.458515 6.344284 5.119968 5.358775 4.213000 6.074348 4.194268 3.533088 2.688967 1.380817 2.730685 2.895442 4.897468 6.135710 4.312448 3.938577 3.515617 4.279309 5.517890 6.035107 7.054527 5.701048 5.450958 5.315685 4.816843 3.583383 2.607038 4.355527 5.172302 4.190824 5.257569 4.154240 4.261739 2.378219 3.258022 4.696131 3.723730 4.256138 4.393396 3.142517 4.207775 3.155983 4.362382 4.735683 4.492873 4.530091 3.564253 2.588982 2.481074 1.752082 3.500059 2.252679 1.974768 2.098195 1.770397 0.571075 0.340090 0.573123 1.254508 0.769036 1.476726 1.187841 0.953731 0.554254 0.466735 -1.223116 0.248935 0.447486 1.221903 2.634050 2.062445 0.236267 0.766529 0.977597 1.266263 1.919599 2.351584 1.835847 0.966391 0.215836 -0.787038 -1.256363 -0.917336 0.524416 1.075196 0.520477 -1.056157 -2.095941 -2.073802 -1.591365 -0.809274 0.912053 1.294874 0.351986 0.149076 -0.853652 -1.233977 -0.385989 0.429979 0.679089 0.733837 -1.175677 -0.540594 -1.112383 -1.638698 -1.168557 0.537931 0.015602 -0.657290 -1.272645 -2.090200 -1.585601 -0.935114 0.545135 0.952189 0.687950 -0.419882 -0.362908 -0.901611 -0.889971 -1.255018 -1.087223 0.559719 0.834587 -0.865291 -2.642621 -3.290774 -3.808734 -4.226553 -2.061195 -0.295194 -0.728526 -2.144618 -3.215888 -5.761648 -3.570440 -3.464370 -2.321691 -2.354653 -3.111128 -3.819208 -3.794555 -4.752906 -2.700812 -3.456807 -3.869527 -2.228362 -0.918114 -1.266851 -2.611589 -4.190869 -2.390555 -2.087092 -0.869754 0.860625 -0.746382 -2.445589 -1.961630 -1.206298 -1.396152 -2.299871 -1.611416 -0.614883 -0.907981 -0.420628 -2.115937 -3.154243 -1.831186 -2.352797 -3.320193 -2.380606 -2.751162 -3.498169 -2.298038 -2.292591 -2.736864 -3.173013 -2.676839 -1.520693 -2.343468 -1.151472 0.740764 -0.718914 -2.347509 