-5.13563227410764699954 -7.67869837610552785634 -7.67869837610552785634 -7.67869837610552785634 -7.67869837610552785634 -7.67869837610552785634 -5.13563227410764699954 -2.59256617210976614274 -7.67869837610552785634 -10.22176447810340782496 -10.22176447810340782496 -7.67869837610552785634 -5.13563227410764699954 -5.13563227410764699954 -12.76483058010128956994 -10.22176447810340782496 -2.59256617210976614274 -7.67869837610552785634 -7.67869837610552785634 -0.04950007011188599371 -2.59256617210976614274 -7.67869837610552785634 -7.67869837610552785634 -10.22176447810340782496 -5.13563227410764699954 -2.59256617210976614274 -2.59256617210976614274 -2.59256617210976614274 -5.13563227410764699954 -7.67869837610552785634 -5.13563227410764699954 -10.22176447810340782496 -10.22176447810340782496 -5.13563227410764699954 -0.04950007011188599371 -2.59256617210976614274 -10.22176447810340782496 -5.13563227410764699954 -10.22176447810340782496 -10.22176447810340782496 -7.67869837610552785634 -10.22176447810340782496 -5.13563227410764699954 -2.59256617210976614274 -5.13563227410764699954 -7.67869837610552785634 -7.67869837610552785634 -5.13563227410764699954 -7.67869837610552785634 -0.04950007011188599371 -0.04950007011188599371 -0.04950007011188599371 -2.59256617210976614274 -0.04950007011188599371 -7.67869837610552785634 -7.67869837610552785634 -5.13563227410764699954 -2.59256617210976614274 -7.67869837610552785634 -2.59256617210976614274 -2.59256617210976614274 -5.13563227410764699954 -5.13563227410764699954 -2.59256617210976614274 -5.13563227410764699954 -5.13563227410764699954 -2.59256617210976614274 -2.59256617210976614274 -0.04950007011188599371 -5.13563227410764699954 -5.13563227410764699954 -10.22176447810340782496 -7.67869837610552785634 -7.67869837610552785634 -7.67869837610552785634 -7.67869837610552785634 -2.59256617210976614274 -2.59256617210976614274 -2.59256617210976614274 -10.22176447810340782496 -10.22176447810340782496 -7.67869837610552785634 -10.22176447810340782496 -5.13563227410764699954 -2.59256617210976614274 -2.59256617210976614274 -5.13563227410764699954 -10.22176447810340782496 -10.22176447810340782496 -7.67869837610552785634 -5.13563227410764699954 -5.13563227410764699954 -5.13563227410764699954 -7.67869837610552785634 -7.67869837610552785634 -5.13563227410764699954 -5.13563227410764699954 -2.59256617210976614274 -2.59256617210976614274 -2.59256617210976614274 2.49356603188599468268 -7.67869837610552785634 -0.04950007011188599371 -5.13563227410764699954 -2.59256617210976614274 -5.13563227410764699954 -7.67869837610552785634 -0.04950007011188599371 -0.04950007011188599371 -2.59256617210976614274 -0.04950007011188599371 -2.59256617210976614274 -2.59256617210976614274 -0.04950007011188599371 -5.13563227410764699954 -7.67869837610552785634 -0.04950007011188599371 2.49356603188599468268 -0.04950007011188599371 -10.22176447810340782496 2.49356603188599468268 -0.04950007011188599371 -5.13563227410764699954 2.49356603188599468268 2.49356603188599468268 -2.59256617210976614274 -0.04950007011188599371 2.49356603188599468268 -2.59256617210976614274 -5.13563227410764699954 5.03663213388387465130 2.49356603188599468268 5.03663213388387465130 2.49356603188599468268 -0.04950007011188599371 2.49356603188599468268 -0.04950007011188599371 -2.59256617210976614274 -0.04950007011188599371 2.49356603188599468268 -2.59256617210976614274 5.03663213388387465130 5.03663213388387465130 2.49356603188599468268 5.03663213388387465130 10.12276433787963547672 -0.04950007011188599371 -2.59256617210976614274 -0.04950007011188599371 10.12276433787963547672 5.03663213388387465130 2.49356603188599468268 7.57969823588175550810 5.03663213388387465130 -2.59256617210976614274 -2.59256617210976614274 2.49356603188599468268 2.49356603188599468268 -2.59256617210976614274 -2.59256617210976614274 -0.04950007011188599371 -0.04950007011188599371 -0.04950007011188599371 2.49356603188599468268 5.03663213388387465130 2.49356603188599468268 5.03663213388387465130 -0.04950007011188599371 2.49356603188599468268 2.49356603188599468268 5.03663213388387465130 -0.04950007011188599371 2.49356603188599468268 2.49356603188599468268 5.03663213388387465130 5.03663213388387465130 -0.04950007011188599371 -0.04950007011188599371 -2.59256617210976614274 -5.13563227410764699954 -5.13563227410764699954 2.49356603188599468268 2.49356603188599468268 -0.04950007011188599371 -5.13563227410764699954 -0.04950007011188599371 -5.13563227410764699954 -7.67869837610552785634 -10.22176447810340782496 -5.13563227410764699954 -2.59256617210976614274 -5.13563227410764699954 -5.13563227410764699954 -5.13563227410764699954 -7.67869837610552785634 -2.59256617210976614274 -2.59256617210976614274 -0.04950007011188599371 2.49356603188599468268 -0.04950007011188599371 -5.13563227410764699954 -2.59256617210976614274 -2.59256617210976614274 -5.13563227410764699954 -2.59256617210976614274 -0.04950007011188599371 -2.59256617210976614274 2.49356603188599468268 -5.13563227410764699954 -5.13563227410764699954 -5.13563227410764699954 -5.13563227410764699954 -5.13563227410764699954 -7.67869837610552785634 -2.59256617210976614274 -7.67869837610552785634 -12.76483058010128956994 -7.67869837610552785634 -10.22176447810340782496 -5.13563227410764699954 -5.13563227410764699954 -5.13563227410764699954 -5.13563227410764699954 -5.13563227410764699954 -10.22176447810340782496 -10.22176447810340782496 -5.13563227410764699954 -7.67869837610552785634 -7.67869837610552785634 2.49356603188599468268 -17.85096278409704950718 -7.67869837610552785634 -10.22176447810340782496 -5.13563227410764699954 -7.67869837610552785634 -7.67869837610552785634 -12.76483058010128956994 -5.13563227410764699954 -10.22176447810340782496 -10.22176447810340782496 -10.22176447810340782496 -10.22176447810340782496 -5.13563227410764699954 -12.76483058010128956994 -5.13563227410764699954 -10.22176447810340782496 -5.13563227410764699954 -7.67869837610552785634 -10.22176447810340782496 -7.67869837610552785634 -7.67869837610552785634 -7.67869837610552785634 -15.30789668209916953856 -7.67869837610552785634 -10.22176447810340782496 -10.22176447810340782496 -12.76483058010128956994 -7.67869837610552785634 -12.76483058010128956994 -12.76483058010128956994 -12.76483058010128956994 -7.67869837610552785634 -12.76483058010128956994 -15.30789668209916953856 -10.22176447810340782496 -15.30789668209916953856 -7.67869837610552785634 -10.22176447810340782496 -7.67869837610552785634 -12.76483058010128956994 -10.22176447810340782496 -12.76483058010128956994 -17.85096278409704950718 -12.76483058010128956994 -12.76483058010128956994 -12.76483058010128956994 -15.30789668209916953856 -12.76483058010128956994 -15.30789668209916953856 -20.39402888609492947580 -17.85096278409704950718 -12.76483058010128956994 -15.30789668209916953856 -15.30789668209916953856 -17.85096278409704950718 -15.30789668209916953856 -22.93709498809281299714 -20.39402888609492947580 -20.39402888609492947580 -17.85096278409704950718 -15.30789668209916953856 -20.39402888609492947580 -17.85096278409704950718 -17.85096278409704950718 -17.85096278409704950718 -22.93709498809281299714 -17.85096278409704950718 -22.93709498809281299714 -17.85096278409704950718 -15.30789668209916953856 -15.30789668209916953856 -17.85096278409704950718 -17.85096278409704950718 -22.93709498809281299714 -22.93709498809281299714 -17.85096278409704950718 -15.30789668209916953856 -17.85096278409704950718 -22.93709498809281299714 -22.93709498809281299714 -17.85096278409704950718 -22.93709498809281299714 -20.39402888609492947580 -20.39402888609492947580 -20.39402888609492947580 -15.30789668209916953856 -15.30789668209916953856 -17.85096278409704950718 -20.39402888609492947580 -20.39402888609492947580 -20.39402888609492947580 -15.30789668209916953856 -17.85096278409704950718 -20.39402888609492947580 -15.30789668209916953856 -15.30789668209916953856 -17.85096278409704950718 -17.85096278409704950718 -22.93709498809281299714 -17.85096278409704950718 -15.30789668209916953856 -20.39402888609492947580 -10.22176447810340782496 -15.30789668209916953856 -20.39402888609492947580 -22.93709498809281299714 -25.48016109009069296576 -15.30789668209916953856 -12.76483058010128956994 -17.85096278409704950718 -15.30789668209916953856 -15.30789668209916953856 -17.85096278409704950718 -17.85096278409704950718 -15.30789668209916953856 -12.76483058010128956994 -15.30789668209916953856 -10.22176447810340782496 -17.85096278409704950718 -17.85096278409704950718 -17.85096278409704950718 -17.85096278409704950718 -17.85096278409704950718 -15.30789668209916953856 -12.76483058010128956994 -12.76483058010128956994 -17.85096278409704950718 -17.85096278409704950718 -12.76483058010128956994 -10.22176447810340782496 -17.85096278409704950718 -7.67869837610552785634 -10.22176447810340782496 -10.22176447810340782496 -17.85096278409704950718 -12.76483058010128956994 -10.22176447810340782496 -10.22176447810340782496 -5.13563227410764699954 -10.22176447810340782496 -12.76483058010128956994 -7.67869837610552785634 -15.30789668209916953856 -12.76483058010128956994 -10.22176447810340782496 -12.76483058010128956994 -10.22176447810340782496 -5.13563227410764699954 -12.76483058010128956994 -7.67869837610552785634 -7.67869837610552785634 -7.67869837610552785634 -7.67869837610552785634 -7.67869837610552785634 -7.67869837610552785634 -10.22176447810340782496 -10.22176447810340782496 -7.67869837610552785634 -2.59256617210976614274 -5.13563227410764699954 -10.22176447810340782496 -5.13563227410764699954 -7.67869837610552785634 -7.67869837610552785634 -7.67869837610552785634 -10.22176447810340782496 -10.22176447810340782496 -10.22176447810340782496 -7.67869837610552785634 -10.22176447810340782496 -10.22176447810340782496 -5.13563227410764699954 -2.59256617210976614274 -5.13563227410764699954 -5.13563227410764699954 -5.13563227410764699954 -5.13563227410764699954 -5.13563227410764699954 -5.13563227410764699954 -7.67869837610552785634 -2.59256617210976614274 -2.59256617210976614274 -2.59256617210976614274 -7.67869837610552785634 -2.59256617210976614274 -7.67869837610552785634 -7.67869837610552785634 -2.59256617210976614274 -2.59256617210976614274 -0.04950007011188599371 -2.59256617210976614274 -2.59256617210976614274 -2.59256617210976614274 -10.22176447810340782496 -7.67869837610552785634 -5.13563227410764699954 -10.22176447810340782496 -0.04950007011188599371 -10.22176447810340782496 -7.67869837610552785634 -10.22176447810340782496 -12.76483058010128956994 -10.22176447810340782496 -7.67869837610552785634 -15.30789668209916953856 -10.22176447810340782496 -10.22176447810340782496 -12.76483058010128956994 -12.76483058010128956994 -7.67869837610552785634 -15.30789668209916953856 -7.67869837610552785634 -10.22176447810340782496 -12.76483058010128956994 -17.85096278409704950718 -15.30789668209916953856 -17.85096278409704950718 -15.30789668209916953856 -17.85096278409704950718 -10.22176447810340782496 -15.30789668209916953856 -17.85096278409704950718 -17.85096278409704950718 -17.85096278409704950718 -20.39402888609492947580 -12.76483058010128956994 -12.76483058010128956994 -17.85096278409704950718 -17.85096278409704950718 -15.30789668209916953856 -20.39402888609492947580 -17.85096278409704950718 -22.93709498809281299714 -15.30789668209916953856 -17.85096278409704950718 -17.85096278409704950718 -15.30789668209916953856 -15.30789668209916953856 -17.85096278409704950718 -15.30789668209916953856 -15.30789668209916953856 -15.30789668209916953856 -17.85096278409704950718 -15.30789668209916953856 -20.39402888609492947580 -15.30789668209916953856 -20.39402888609492947580 -17.85096278409704950718 -12.76483058010128956994 -17.85096278409704950718 -12.76483058010128956994 -10.22176447810340782496 -12.76483058010128956994 -12.76483058010128956994 -17.85096278409704950718 -20.39402888609492947580 -20.39402888609492947580 -20.39402888609492947580 -15.30789668209916953856 -10.22176447810340782496 -12.76483058010128956994 -10.22176447810340782496 -12.76483058010128956994 -17.85096278409704950718 -20.39402888609492947580 -15.30789668209916953856 -10.22176447810340782496 -15.30789668209916953856 -10.22176447810340782496 -12.76483058010128956994 -12.76483058010128956994 -17.85096278409704950718 -10.22176447810340782496 -10.22176447810340782496 -17.85096278409704950718 -7.67869837610552785634 -12.76483058010128956994 -12.76483058010128956994 -17.85096278409704950718 -10.22176447810340782496 -12.76483058010128956994 -12.76483058010128956994 -12.76483058010128956994 -17.85096278409704950718 -12.76483058010128956994 -15.30789668209916953856 -12.76483058010128956994 -7.67869837610552785634 -10.22176447810340782496 -5.13563227410764699954 -10.22176447810340782496 -12.76483058010128956994 -12.76483058010128956994 -7.67869837610552785634 -2.59256617210976614274 -5.13563227410764699954 -7.67869837610552785634 -12.76483058010128956994 -7.67869837610552785634 -10.22176447810340782496 -10.22176447810340782496 -7.67869837610552785634 -7.67869837610552785634 -7.67869837610552785634 -2.59256617210976614274 -10.22176447810340782496 -2.59256617210976614274 -5.13563227410764699954 -5.13563227410764699954 -7.67869837610552785634 -5.13563227410764699954 -2.59256617210976614274 -7.67869837610552785634 -7.67869837610552785634 -15.30789668209916953856 -7.67869837610552785634 -7.67869837610552785634 -0.04950007011188599371 -5.13563227410764699954 -10.22176447810340782496 -7.67869837610552785634 -7.67869837610552785634 -7.67869837610552785634 -12.76483058010128956994 -10.22176447810340782496 -7.67869837610552785634 -0.04950007011188599371 -2.59256617210976614274 -10.22176447810340782496 -10.22176447810340782496 -10.22176447810340782496 -12.76483058010128956994 -7.67869837610552785634 -10.22176447810340782496 -5.13563227410764699954 -10.22176447810340782496 -12.76483058010128956994 -7.67869837610552785634 -10.22176447810340782496 -5.13563227410764699954 -5.13563227410764699954 -5.13563227410764699954 -5.13563227410764699954 -5.13563227410764699954 -5.13563227410764699954 -7.67869837610552785634 -10.22176447810340782496 -10.22176447810340782496 -7.67869837610552785634 -2.59256617210976614274 -7.67869837610552785634 -7.67869837610552785634 -2.59256617210976614274 -5.13563227410764699954 -10.22176447810340782496 -5.13563227410764699954 -10.22176447810340782496 -5.13563227410764699954 -5.13563227410764699954 -10.22176447810340782496 -5.13563227410764699954 -2.59256617210976614274 -5.13563227410764699954 -10.22176447810340782496 -7.67869837610552785634 -2.59256617210976614274 -2.59256617210976614274 2.49356603188599468268 2.49356603188599468268 -5.13563227410764699954 2.49356603188599468268 -7.67869837610552785634 -5.13563227410764699954 -0.04950007011188599371 -2.59256617210976614274 -5.13563227410764699954 -2.59256617210976614274 -7.67869837610552785634 -7.67869837610552785634 -5.13563227410764699954 -7.67869837610552785634 -2.59256617210976614274 5.03663213388387465130 -2.59256617210976614274 -0.04950007011188599371 -2.59256617210976614274 -2.59256617210976614274 -7.67869837610552785634 -2.59256617210976614274 2.49356603188599468268 -0.04950007011188599371 2.49356603188599468268 -2.59256617210976614274 -5.13563227410764699954 -0.04950007011188599371 -0.04950007011188599371 -5.13563227410764699954 -2.59256617210976614274 -2.59256617210976614274 2.49356603188599468268 5.03663213388387465130 -0.04950007011188599371 -2.59256617210976614274 -0.04950007011188599371 -5.13563227410764699954 -2.59256617210976614274 -0.04950007011188599371 -0.04950007011188599371 5.03663213388387465130 -2.59256617210976614274 -0.04950007011188599371 5.03663213388387465130 -0.04950007011188599371 2.49356603188599468268 -0.04950007011188599371 2.49356603188599468268 5.03663213388387465130 -2.59256617210976614274 -0.04950007011188599371 -0.04950007011188599371 -2.59256617210976614274 2.49356603188599468268 7.57969823588175550810 7.57969823588175550810 7.57969823588175550810 7.57969823588175550810 -0.04950007011188599371 -5.13563227410764699954 10.12276433787963547672 5.03663213388387465130 7.57969823588175550810 10.12276433787963547672 2.49356603188599468268 10.12276433787963547672 7.57969823588175550810 2.49356603188599468268 -0.04950007011188599371 5.03663213388387465130 -0.04950007011188599371 12.66583043987751722170 10.12276433787963547672 2.49356603188599468268 2.49356603188599468268 2.49356603188599468268 7.57969823588175550810 5.03663213388387465130 10.12276433787963547672 7.57969823588175550810 7.57969823588175550810 7.57969823588175550810 5.03663213388387465130 10.12276433787963547672 12.66583043987751722170 7.57969823588175550810 7.57969823588175550810 7.57969823588175550810 5.03663213388387465130 5.03663213388387465130 -5.13563227410764699954 15.20889654187539719032 2.49356603188599468268 17.75196264387327715895 5.03663213388387465130 5.03663213388387465130 2.49356603188599468268 -2.59256617210976614274 10.12276433787963547672 10.12276433787963547672 7.57969823588175550810 5.03663213388387465130 -2.59256617210976614274 2.49356603188599468268 -0.04950007011188599371 2.49356603188599468268 5.03663213388387465130 5.03663213388387465130 7.57969823588175550810 2.49356603188599468268 -2.59256617210976614274 5.03663213388387465130 -0.04950007011188599371 2.49356603188599468268 2.49356603188599468268 2.49356603188599468268 2.49356603188599468268 -0.04950007011188599371 -0.04950007011188599371 -2.59256617210976614274 -2.59256617210976614274 2.49356603188599468268 -2.59256617210976614274 -2.59256617210976614274 2.49356603188599468268 -5.13563227410764699954 -0.04950007011188599371 -0.04950007011188599371 -5.13563227410764699954 -0.04950007011188599371 2.49356603188599468268 -2.59256617210976614274 -0.04950007011188599371 -7.67869837610552785634 -0.04950007011188599371 2.49356603188599468268 5.03663213388387465130 -0.04950007011188599371 -0.04950007011188599371 -7.67869837610552785634 -7.67869837610552785634 -5.13563227410764699954 -2.59256617210976614274 -5.13563227410764699954 2.49356603188599468268 -5.13563227410764699954 -5.13563227410764699954 -2.59256617210976614274 -5.13563227410764699954 -5.13563227410764699954 -2.59256617210976614274 -2.59256617210976614274 -2.59256617210976614274 -0.04950007011188599371 -2.59256617210976614274 -7.67869837610552785634 -0.04950007011188599371 -2.59256617210976614274 -5.13563227410764699954 -7.67869837610552785634 -5.13563227410764699954 -2.59256617210976614274 -2.59256617210976614274 -12.76483058010128956994 -10.22176447810340782496 -5.13563227410764699954 -12.76483058010128956994 -5.13563227410764699954 -2.59256617210976614274 -5.13563227410764699954 -7.67869837610552785634 -10.22176447810340782496 -10.22176447810340782496 -5.13563227410764699954 -10.22176447810340782496 -5.13563227410764699954 -5.13563227410764699954 -5.13563227410764699954 -2.59256617210976614274 -15.30789668209916953856 -10.22176447810340782496 -2.59256617210976614274 -0.04950007011188599371 -7.67869837610552785634 -2.59256617210976614274 -10.22176447810340782496 -7.67869837610552785634 -7.67869837610552785634 -7.67869837610552785634 -7.67869837610552785634 -0.04950007011188599371 -5.13563227410764699954 -5.13563227410764699954 -5.13563227410764699954 -0.04950007011188599371 -5.13563227410764699954 -7.67869837610552785634 -10.22176447810340782496 -7.67869837610552785634 -2.59256617210976614274 5.03663213388387465130 -0.04950007011188599371 -5.13563227410764699954 -5.13563227410764699954 -5.13563227410764699954 -2.59256617210976614274 -5.13563227410764699954 -7.67869837610552785634 -5.13563227410764699954 -7.67869837610552785634 -5.13563227410764699954 -7.67869837610552785634 -5.13563227410764699954 -2.59256617210976614274 -0.04950007011188599371 -0.04950007011188599371 2.49356603188599468268 -2.59256617210976614274 5.03663213388387465130 -5.13563227410764699954 -0.04950007011188599371 -5.13563227410764699954 -0.04950007011188599371 2.49356603188599468268 -0.04950007011188599371 -2.59256617210976614274 -5.13563227410764699954 2.49356603188599468268 -0.04950007011188599371 -5.13563227410764699954 -0.04950007011188599371 7.57969823588175550810 -0.04950007011188599371 -2.59256617210976614274 -0.04950007011188599371 -5.13563227410764699954 -2.59256617210976614274 -2.59256617210976614274 -5.13563227410764699954 -0.04950007011188599371 -5.13563227410764699954 2.49356603188599468268 -2.59256617210976614274 2.49356603188599468268 -0.04950007011188599371 7.57969823588175550810 -0.04950007011188599371 7.57969823588175550810 -0.04950007011188599371 -2.59256617210976614274 -2.59256617210976614274 -0.04950007011188599371 -5.13563227410764699954 2.49356603188599468268 -2.59256617210976614274 2.49356603188599468268 -0.04950007011188599371 -2.59256617210976614274 -2.59256617210976614274 -7.67869837610552785634 5.03663213388387465130 -2.59256617210976614274 5.03663213388387465130 7.57969823588175550810 -2.59256617210976614274 -2.59256617210976614274 -10.22176447810340782496 -2.59256617210976614274 -5.13563227410764699954 -0.04950007011188599371 2.49356603188599468268 2.49356603188599468268 5.03663213388387465130 -2.59256617210976614274 -7.67869837610552785634 -5.13563227410764699954 -2.59256617210976614274 -0.04950007011188599371 2.49356603188599468268 -0.04950007011188599371 -0.04950007011188599371 -2.59256617210976614274 -5.13563227410764699954 -7.67869837610552785634 -0.04950007011188599371 -2.59256617210976614274 -2.59256617210976614274 -2.59256617210976614274 2.49356603188599468268 -0.04950007011188599371 -10.22176447810340782496 -7.67869837610552785634 -5.13563227410764699954 -5.13563227410764699954 -0.04950007011188599371 -0.04950007011188599371 -2.59256617210976614274 -2.59256617210976614274 -7.67869837610552785634 -2.59256617210976614274 -2.59256617210976614274 -7.67869837610552785634 -0.04950007011188599371 2.49356603188599468268 -0.04950007011188599371 -2.59256617210976614274 -5.13563227410764699954 -2.59256617210976614274 -5.13563227410764699954 -5.13563227410764699954 -5.13563227410764699954 -0.04950007011188599371 -2.59256617210976614274 -2.59256617210976614274 -2.59256617210976614274 -5.13563227410764699954 -7.67869837610552785634 -2.59256617210976614274 2.49356603188599468268 2.49356603188599468268 -5.13563227410764699954 -5.13563227410764699954 -2.59256617210976614274 -2.59256617210976614274 -2.59256617210976614274 -2.59256617210976614274 -2.59256617210976614274 2.49356603188599468268 -2.59256617210976614274 2.49356603188599468268 -7.67869837610552785634 -7.67869837610552785634 -7.67869837610552785634 -10.22176447810340782496 -2.59256617210976614274 2.49356603188599468268 -5.13563227410764699954 -2.59256617210976614274 -5.13563227410764699954 -5.13563227410764699954 -0.04950007011188599371 -0.04950007011188599371 -2.59256617210976614274 -0.04950007011188599371 -0.04950007011188599371 -2.59256617210976614274 -7.67869837610552785634 -7.67869837610552785634 -2.59256617210976614274 -2.59256617210976614274 2.49356603188599468268 -2.59256617210976614274 -0.04950007011188599371 -2.59256617210976614274 -5.13563227410764699954 -2.59256617210976614274 -2.59256617210976614274 -2.59256617210976614274 -0.04950007011188599371 -0.04950007011188599371 -2.59256617210976614274 -10.22176447810340782496 -0.04950007011188599371 -7.67869837610552785634 -5.13563227410764699954 -7.67869837610552785634 -0.04950007011188599371 -0.04950007011188599371 -5.13563227410764699954 -0.04950007011188599371 -7.67869837610552785634 -7.67869837610552785634 -2.59256617210976614274 2.49356603188599468268 -5.13563227410764699954 -0.04950007011188599371 2.49356603188599468268 -0.04950007011188599371 -12.76483058010128956994 -5.13563227410764699954 -2.59256617210976614274 -10.22176447810340782496 -0.04950007011188599371 -5.13563227410764699954 2.49356603188599468268 -7.67869837610552785634 -0.04950007011188599371 -2.59256617210976614274 -0.04950007011188599371 -0.04950007011188599371 -2.59256617210976614274 -2.59256617210976614274 -5.13563227410764699954 -5.13563227410764699954 -0.04950007011188599371 2.49356603188599468268 -0.04950007011188599371 2.49356603188599468268 -2.59256617210976614274 -2.59256617210976614274 2.49356603188599468268 -5.13563227410764699954 -2.59256617210976614274 -2.59256617210976614274 -5.13563227410764699954 -5.13563227410764699954 -5.13563227410764699954 -2.59256617210976614274 -5.13563227410764699954 -2.59256617210976614274 -10.22176447810340782496 -7.67869837610552785634 -5.13563227410764699954 -7.67869837610552785634 -2.59256617210976614274 -7.67869837610552785634 -5.13563227410764699954 -7.67869837610552785634 -5.13563227410764699954 -10.22176447810340782496 -5.13563227410764699954 -2.59256617210976614274 -5.13563227410764699954 -5.13563227410764699954 -7.67869837610552785634 -10.22176447810340782496 -12.76483058010128956994 -10.22176447810340782496 -7.67869837610552785634 -5.13563227410764699954 -7.67869837610552785634 -10.22176447810340782496 -7.67869837610552785634 -5.13563227410764699954 -7.67869837610552785634 -12.76483058010128956994 -7.67869837610552785634 -7.67869837610552785634 -5.13563227410764699954 -5.13563227410764699954 -10.22176447810340782496 -12.76483058010128956994 -15.30789668209916953856 -12.76483058010128956994 -10.22176447810340782496 -12.76483058010128956994 -10.22176447810340782496 -7.67869837610552785634 -7.67869837610552785634 -10.22176447810340782496 -12.76483058010128956994 -15.30789668209916953856 -12.76483058010128956994 -17.85096278409704950718 -7.67869837610552785634 -12.76483058010128956994 -12.76483058010128956994 -7.67869837610552785634 -15.30789668209916953856 -10.22176447810340782496 -15.30789668209916953856 -17.85096278409704950718 -12.76483058010128956994 -10.22176447810340782496 -15.30789668209916953856 -7.67869837610552785634 -7.67869837610552785634 -5.13563227410764699954 -12.76483058010128956994 -15.30789668209916953856 -12.76483058010128956994 -20.39402888609492947580 -12.76483058010128956994 -17.85096278409704950718 -20.39402888609492947580 -17.85096278409704950718 -10.22176447810340782496 -22.93709498809281299714 -20.39402888609492947580 -22.93709498809281299714 -20.39402888609492947580 -20.39402888609492947580 -20.39402888609492947580 -20.39402888609492947580 -15.30789668209916953856 -22.93709498809281299714 -22.93709498809281299714 -22.93709498809281299714 -22.93709498809281299714 -22.93709498809281299714 -25.48016109009069296576 -20.39402888609492947580 -15.30789668209916953856 -20.39402888609492947580 -22.93709498809281299714 -25.48016109009069296576 -25.48016109009069296576 -25.48016109009069296576 -25.48016109009069296576 -20.39402888609492947580 -22.93709498809281299714 -22.93709498809281299714 -17.85096278409704950718 -22.93709498809281299714 -25.48016109009069296576 -28.02322719208857293438 -20.39402888609492947580 -22.93709498809281299714 -17.85096278409704950718 -20.39402888609492947580 -15.30789668209916953856 -22.93709498809281299714 -22.93709498809281299714 -22.93709498809281299714 -28.02322719208857293438 -15.30789668209916953856 -22.93709498809281299714 -15.30789668209916953856 -20.39402888609492947580 -17.85096278409704950718 -17.85096278409704950718 -22.93709498809281299714 -20.39402888609492947580 -25.48016109009069296576 -15.30789668209916953856 -17.85096278409704950718 -17.85096278409704950718 -15.30789668209916953856 -12.76483058010128956994 -22.93709498809281299714 -20.39402888609492947580 -22.93709498809281299714 -15.30789668209916953856 -10.22176447810340782496 -15.30789668209916953856 -15.30789668209916953856 -15.30789668209916953856 -12.76483058010128956994 -15.30789668209916953856 -17.85096278409704950718 -12.76483058010128956994 -12.76483058010128956994 -10.22176447810340782496 -7.67869837610552785634 -5.13563227410764699954 -7.67869837610552785634 -7.67869837610552785634 -20.39402888609492947580 -7.67869837610552785634 -10.22176447810340782496 -10.22176447810340782496 -7.67869837610552785634 -7.67869837610552785634 -12.76483058010128956994 -5.13563227410764699954 -10.22176447810340782496 -7.67869837610552785634 -7.67869837610552785634 -2.59256617210976614274 -5.13563227410764699954 -5.13563227410764699954 -5.13563227410764699954 -10.22176447810340782496 -5.13563227410764699954 -2.59256617210976614274 -0.04950007011188599371 -2.59256617210976614274 -0.04950007011188599371 -0.04950007011188599371 -0.04950007011188599371 2.49356603188599468268 -0.04950007011188599371 2.49356603188599468268 -0.04950007011188599371 2.49356603188599468268 5.03663213388387465130 2.49356603188599468268 2.49356603188599468268 -0.04950007011188599371 5.03663213388387465130 7.57969823588175550810 5.03663213388387465130 2.49356603188599468268 5.03663213388387465130 5.03663213388387465130 5.03663213388387465130 10.12276433787963547672 5.03663213388387465130 5.03663213388387465130 2.49356603188599468268 10.12276433787963547672 12.66583043987751722170 12.66583043987751722170 10.12276433787963547672 2.49356603188599468268 -0.04950007011188599371 7.57969823588175550810 2.49356603188599468268 10.12276433787963547672 12.66583043987751722170 -0.04950007011188599371 10.12276433787963547672 10.12276433787963547672 15.20889654187539719032 5.03663213388387465130 7.57969823588175550810 7.57969823588175550810 7.57969823588175550810 7.57969823588175550810 10.12276433787963547672 7.57969823588175550810 12.66583043987751722170 10.12276433787963547672 10.12276433787963547672 20.29502874587115712757 10.12276433787963547672 5.03663213388387465130 5.03663213388387465130 5.03663213388387465130 7.57969823588175550810 10.12276433787963547672 10.12276433787963547672 7.57969823588175550810 10.12276433787963547672 5.03663213388387465130 10.12276433787963547672 5.03663213388387465130 2.49356603188599468268 15.20889654187539719032 7.57969823588175550810 12.66583043987751722170 5.03663213388387465130 15.20889654187539719032 2.49356603188599468268 5.03663213388387465130 7.57969823588175550810 10.12276433787963547672 10.12276433787963547672 7.57969823588175550810 5.03663213388387465130 7.57969823588175550810 5.03663213388387465130 10.12276433787963547672 10.12276433787963547672 10.12276433787963547672 15.20889654187539719032 7.57969823588175550810 2.49356603188599468268 -0.04950007011188599371 5.03663213388387465130 5.03663213388387465130 7.57969823588175550810 12.66583043987751722170 7.57969823588175550810 7.57969823588175550810 12.66583043987751722170 10.12276433787963547672 5.03663213388387465130 10.12276433787963547672 15.20889654187539719032 7.57969823588175550810 15.20889654187539719032 7.57969823588175550810 5.03663213388387465130 7.57969823588175550810 12.66583043987751722170 12.66583043987751722170 12.66583043987751722170 7.57969823588175550810 5.03663213388387465130 7.57969823588175550810 7.57969823588175550810 10.12276433787963547672 5.03663213388387465130 5.03663213388387465130 10.12276433787963547672 5.03663213388387465130 -0.04950007011188599371 5.03663213388387465130 5.03663213388387465130 2.49356603188599468268 2.49356603188599468268 5.03663213388387465130 2.49356603188599468268 2.49356603188599468268 7.57969823588175550810 2.49356603188599468268 5.03663213388387465130 5.03663213388387465130 2.49356603188599468268 2.49356603188599468268 -2.59256617210976614274 5.03663213388387465130 -2.59256617210976614274 2.49356603188599468268 -2.59256617210976614274 -2.59256617210976614274 2.49356603188599468268 -0.04950007011188599371 -2.59256617210976614274 -2.59256617210976614274 -2.59256617210976614274 -2.59256617210976614274 2.49356603188599468268 -2.59256617210976614274 -2.59256617210976614274 -5.13563227410764699954 2.49356603188599468268 5.03663213388387465130 -0.04950007011188599371 -0.04950007011188599371 5.03663213388387465130 -5.13563227410764699954 2.49356603188599468268 -2.59256617210976614274 -5.13563227410764699954 -0.04950007011188599371 2.49356603188599468268 2.49356603188599468268 -0.04950007011188599371 -0.04950007011188599371 -0.04950007011188599371 -2.59256617210976614274 -0.04950007011188599371 2.49356603188599468268 5.03663213388387465130 2.49356603188599468268 -0.04950007011188599371 -5.13563227410764699954 -0.04950007011188599371 -0.04950007011188599371 2.49356603188599468268 -5.13563227410764699954 2.49356603188599468268 -5.13563227410764699954 -2.59256617210976614274 2.49356603188599468268 -2.59256617210976614274 -5.13563227410764699954 -0.04950007011188599371 -5.13563227410764699954 -5.13563227410764699954 -5.13563227410764699954 -5.13563227410764699954 -2.59256617210976614274 -0.04950007011188599371 2.49356603188599468268 -7.67869837610552785634 -0.04950007011188599371 -5.13563227410764699954 -5.13563227410764699954 -0.04950007011188599371 2.49356603188599468268 -2.59256617210976614274 2.49356603188599468268 -2.59256617210976614274 2.49356603188599468268 -0.04950007011188599371 -2.59256617210976614274 2.49356603188599468268 2.49356603188599468268 -7.67869837610552785634 -0.04950007011188599371 -2.59256617210976614274 2.49356603188599468268 -2.59256617210976614274 -2.59256617210976614274 -5.13563227410764699954 -0.04950007011188599371 -7.67869837610552785634 2.49356603188599468268 -0.04950007011188599371 -0.04950007011188599371 -5.13563227410764699954 -0.04950007011188599371 -0.04950007011188599371 5.03663213388387465130 -5.13563227410764699954 -2.59256617210976614274 -0.04950007011188599371 -2.59256617210976614274 2.49356603188599468268 5.03663213388387465130 -2.59256617210976614274 -0.04950007011188599371 -2.59256617210976614274 -5.13563227410764699954 -5.13563227410764699954 -2.59256617210976614274 5.03663213388387465130 -2.59256617210976614274 -5.13563227410764699954 -5.13563227410764699954 -2.59256617210976614274 -2.59256617210976614274 -2.59256617210976614274 2.49356603188599468268 -5.13563227410764699954 -5.13563227410764699954 -5.13563227410764699954 -7.67869837610552785634 -10.22176447810340782496 -10.22176447810340782496 -2.59256617210976614274 -7.67869837610552785634 -2.59256617210976614274 -5.13563227410764699954 -5.13563227410764699954 -5.13563227410764699954 -5.13563227410764699954 -2.59256617210976614274 -7.67869837610552785634 2.49356603188599468268 -7.67869837610552785634 -2.59256617210976614274 -12.76483058010128956994 -10.22176447810340782496 -12.76483058010128956994 -12.76483058010128956994 -0.04950007011188599371 -5.13563227410764699954 -0.04950007011188599371 -5.13563227410764699954 -7.67869837610552785634 -7.67869837610552785634 -5.13563227410764699954 -7.67869837610552785634 -5.13563227410764699954 -5.13563227410764699954 -2.59256617210976614274 -7.67869837610552785634 -7.67869837610552785634 -10.22176447810340782496 -7.67869837610552785634 -2.59256617210976614274 -7.67869837610552785634 -2.59256617210976614274 -0.04950007011188599371 -2.59256617210976614274 -10.22176447810340782496 -12.76483058010128956994 -10.22176447810340782496 -5.13563227410764699954 -0.04950007011188599371 -2.59256617210976614274 -5.13563227410764699954 -5.13563227410764699954 -2.59256617210976614274 -5.13563227410764699954 -2.59256617210976614274 -5.13563227410764699954 2.49356603188599468268 2.49356603188599468268 -2.59256617210976614274 -5.13563227410764699954 -0.04950007011188599371 -0.04950007011188599371 2.49356603188599468268 -2.59256617210976614274 -7.67869837610552785634 -0.04950007011188599371 -2.59256617210976614274 2.49356603188599468268 -2.59256617210976614274 -0.04950007011188599371 -0.04950007011188599371 -5.13563227410764699954 2.49356603188599468268 5.03663213388387465130 5.03663213388387465130 7.57969823588175550810 5.03663213388387465130 2.49356603188599468268 -0.04950007011188599371 2.49356603188599468268 2.49356603188599468268 7.57969823588175550810 12.66583043987751722170 2.49356603188599468268 2.49356603188599468268 5.03663213388387465130 -0.04950007011188599371 7.57969823588175550810 7.57969823588175550810 10.12276433787963547672 7.57969823588175550810 10.12276433787963547672 5.03663213388387465130 5.03663213388387465130 2.49356603188599468268 7.57969823588175550810 10.12276433787963547672 2.49356603188599468268 2.49356603188599468268 10.12276433787963547672 5.03663213388387465130 7.57969823588175550810 5.03663213388387465130 5.03663213388387465130 5.03663213388387465130 2.49356603188599468268 7.57969823588175550810 5.03663213388387465130 7.57969823588175550810 2.49356603188599468268 7.57969823588175550810 10.12276433787963547672 2.49356603188599468268 5.03663213388387465130 2.49356603188599468268 7.57969823588175550810 2.49356603188599468268 7.57969823588175550810 -0.04950007011188599371 2.49356603188599468268 -0.04950007011188599371 -2.59256617210976614274 -0.04950007011188599371 -2.59256617210976614274 -2.59256617210976614274 -0.04950007011188599371 -0.04950007011188599371 5.03663213388387465130 -2.59256617210976614274 -2.59256617210976614274 -7.67869837610552785634 -7.67869837610552785634 -5.13563227410764699954 -5.13563227410764699954 -2.59256617210976614274 -2.59256617210976614274 -5.13563227410764699954 -10.22176447810340782496 -5.13563227410764699954 -12.76483058010128956994 -0.04950007011188599371 -5.13563227410764699954 -0.04950007011188599371 -2.59256617210976614274 -2.59256617210976614274 -5.13563227410764699954 -7.67869837610552785634 -7.67869837610552785634 -7.67869837610552785634 -2.59256617210976614274 5.03663213388387465130 -5.13563227410764699954 -7.67869837610552785634 -5.13563227410764699954 -10.22176447810340782496 -5.13563227410764699954 -2.59256617210976614274 -0.04950007011188599371 -0.04950007011188599371 -2.59256617210976614274 -5.13563227410764699954 -5.13563227410764699954 -7.67869837610552785634 -7.67869837610552785634 -2.59256617210976614274 2.49356603188599468268 2.49356603188599468268 -7.67869837610552785634 -10.22176447810340782496 -2.59256617210976614274 -10.22176447810340782496 -5.13563227410764699954 -2.59256617210976614274 -5.13563227410764699954 -2.59256617210976614274 -0.04950007011188599371 -5.13563227410764699954 -10.22176447810340782496 -2.59256617210976614274 -2.59256617210976614274 -5.13563227410764699954 -0.04950007011188599371 -2.59256617210976614274 -7.67869837610552785634 -7.67869837610552785634 2.49356603188599468268 -5.13563227410764699954 -2.59256617210976614274 2.49356603188599468268 -0.04950007011188599371 -7.67869837610552785634 -2.59256617210976614274 -2.59256617210976614274 -2.59256617210976614274 7.57969823588175550810 -2.59256617210976614274 -2.59256617210976614274 -7.67869837610552785634 -2.59256617210976614274 -0.04950007011188599371 -0.04950007011188599371 -2.59256617210976614274 2.49356603188599468268 -2.59256617210976614274 -5.13563227410764699954 -0.04950007011188599371 2.49356603188599468268 7.57969823588175550810 2.49356603188599468268 -0.04950007011188599371 -5.13563227410764699954 -2.59256617210976614274 -2.59256617210976614274 -0.04950007011188599371 5.03663213388387465130 2.49356603188599468268 -2.59256617210976614274 -2.59256617210976614274 -0.04950007011188599371 -2.59256617210976614274 -0.04950007011188599371 2.49356603188599468268 -2.59256617210976614274 2.49356603188599468268 -0.04950007011188599371 -2.59256617210976614274 -2.59256617210976614274 -0.04950007011188599371 2.49356603188599468268 2.49356603188599468268 7.57969823588175550810 5.03663213388387465130 2.49356603188599468268 5.03663213388387465130 -2.59256617210976614274 -2.59256617210976614274 -2.59256617210976614274 5.03663213388387465130 2.49356603188599468268 2.49356603188599468268 -2.59256617210976614274 -0.04950007011188599371 -2.59256617210976614274 -2.59256617210976614274 5.03663213388387465130 -2.59256617210976614274 -0.04950007011188599371 2.49356603188599468268 -0.04950007011188599371 -5.13563227410764699954 -5.13563227410764699954 -0.04950007011188599371 -5.13563227410764699954 -5.13563227410764699954 -0.04950007011188599371 2.49356603188599468268 -0.04950007011188599371 -2.59256617210976614274 -10.22176447810340782496 -5.13563227410764699954 10.12276433787963547672 2.49356603188599468268 -0.04950007011188599371 -0.04950007011188599371 -0.04950007011188599371 -2.59256617210976614274 -7.67869837610552785634 2.49356603188599468268 2.49356603188599468268 5.03663213388387465130 2.49356603188599468268 2.49356603188599468268 -0.04950007011188599371 -0.04950007011188599371 5.03663213388387465130 2.49356603188599468268 2.49356603188599468268 2.49356603188599468268 5.03663213388387465130 2.49356603188599468268 -5.13563227410764699954 2.49356603188599468268 5.03663213388387465130 -0.04950007011188599371 10.12276433787963547672 7.57969823588175550810 -0.04950007011188599371 5.03663213388387465130 -2.59256617210976614274 2.49356603188599468268 2.49356603188599468268 2.49356603188599468268 2.49356603188599468268 12.66583043987751722170 10.12276433787963547672 -0.04950007011188599371 7.57969823588175550810 5.03663213388387465130 7.57969823588175550810 5.03663213388387465130 10.12276433787963547672 5.03663213388387465130 5.03663213388387465130 2.49356603188599468268 5.03663213388387465130 -0.04950007011188599371 2.49356603188599468268 10.12276433787963547672 10.12276433787963547672 7.57969823588175550810 7.57969823588175550810 7.57969823588175550810 2.49356603188599468268 7.57969823588175550810 10.12276433787963547672 12.66583043987751722170 12.66583043987751722170 7.57969823588175550810 7.57969823588175550810 5.03663213388387465130 2.49356603188599468268 10.12276433787963547672 12.66583043987751722170 7.57969823588175550810 10.12276433787963547672 7.57969823588175550810 2.49356603188599468268 5.03663213388387465130 12.66583043987751722170 10.12276433787963547672 7.57969823588175550810 5.03663213388387465130 7.57969823588175550810 5.03663213388387465130 15.20889654187539719032 7.57969823588175550810 7.57969823588175550810 15.20889654187539719032 12.66583043987751722170 7.57969823588175550810 7.57969823588175550810 7.57969823588175550810 20.29502874587115712757 10.12276433787963547672 7.57969823588175550810 2.49356603188599468268 10.12276433787963547672 10.12276433787963547672 10.12276433787963547672 7.57969823588175550810 5.03663213388387465130 10.12276433787963547672 7.57969823588175550810 5.03663213388387465130 10.12276433787963547672 12.66583043987751722170 5.03663213388387465130 2.49356603188599468268 5.03663213388387465130 2.49356603188599468268 -0.04950007011188599371 7.57969823588175550810 10.12276433787963547672 10.12276433787963547672 5.03663213388387465130 -0.04950007011188599371 5.03663213388387465130 7.57969823588175550810 2.49356603188599468268 2.49356603188599468268 7.57969823588175550810 2.49356603188599468268 -0.04950007011188599371 5.03663213388387465130 -0.04950007011188599371 -2.59256617210976614274 -0.04950007011188599371 -0.04950007011188599371 -2.59256617210976614274 2.49356603188599468268 2.49356603188599468268 2.49356603188599468268 2.49356603188599468268 -2.59256617210976614274 -2.59256617210976614274 2.49356603188599468268 -0.04950007011188599371 2.49356603188599468268 -2.59256617210976614274 -5.13563227410764699954 -5.13563227410764699954 -2.59256617210976614274 2.49356603188599468268 -0.04950007011188599371 2.49356603188599468268 5.03663213388387465130 2.49356603188599468268 2.49356603188599468268 -2.59256617210976614274 -2.59256617210976614274 7.57969823588175550810 2.49356603188599468268 5.03663213388387465130 -2.59256617210976614274 5.03663213388387465130 -0.04950007011188599371 -0.04950007011188599371 -0.04950007011188599371 -2.59256617210976614274 2.49356603188599468268 -0.04950007011188599371 2.49356603188599468268 7.57969823588175550810 -0.04950007011188599371 -2.59256617210976614274 -0.04950007011188599371 -0.04950007011188599371 -0.04950007011188599371 -0.04950007011188599371 2.49356603188599468268 -0.04950007011188599371 -5.13563227410764699954 -0.04950007011188599371 -0.04950007011188599371 2.49356603188599468268 -0.04950007011188599371 10.12276433787963547672 2.49356603188599468268 -0.04950007011188599371 -2.59256617210976614274 5.03663213388387465130 2.49356603188599468268 2.49356603188599468268 2.49356603188599468268 -2.59256617210976614274 -2.59256617210976614274 -0.04950007011188599371 -5.13563227410764699954 -0.04950007011188599371 -0.04950007011188599371 5.03663213388387465130 -5.13563227410764699954 -2.59256617210976614274 -0.04950007011188599371 -0.04950007011188599371 -5.13563227410764699954 -2.59256617210976614274 -2.59256617210976614274 -7.67869837610552785634 -2.59256617210976614274 -7.67869837610552785634 -7.67869837610552785634 -0.04950007011188599371 -2.59256617210976614274 2.49356603188599468268 2.49356603188599468268 -0.04950007011188599371 2.49356603188599468268 5.03663213388387465130 -0.04950007011188599371 7.57969823588175550810 2.49356603188599468268 -0.04950007011188599371 2.49356603188599468268 7.57969823588175550810 2.49356603188599468268 2.49356603188599468268 -5.13563227410764699954 2.49356603188599468268 2.49356603188599468268 2.49356603188599468268 2.49356603188599468268 -0.04950007011188599371 7.57969823588175550810 -0.04950007011188599371 7.57969823588175550810 2.49356603188599468268 7.57969823588175550810 2.49356603188599468268 2.49356603188599468268 2.49356603188599468268 -0.04950007011188599371 5.03663213388387465130 5.03663213388387465130 2.49356603188599468268 10.12276433787963547672 5.03663213388387465130 -5.13563227410764699954 5.03663213388387465130 -5.13563227410764699954 -0.04950007011188599371 2.49356603188599468268 -0.04950007011188599371 2.49356603188599468268 5.03663213388387465130 -0.04950007011188599371 -0.04950007011188599371 2.49356603188599468268 -0.04950007011188599371 -0.04950007011188599371 -0.04950007011188599371 -2.59256617210976614274 -2.59256617210976614274 -0.04950007011188599371 -5.13563227410764699954 -5.13563227410764699954 -7.67869837610552785634 -2.59256617210976614274 2.49356603188599468268 -2.59256617210976614274 -5.13563227410764699954 -7.67869837610552785634 -10.22176447810340782496 -2.59256617210976614274 -0.04950007011188599371 -0.04950007011188599371 -7.67869837610552785634 -2.59256617210976614274 -2.59256617210976614274 -7.67869837610552785634 -0.04950007011188599371 -5.13563227410764699954 2.49356603188599468268 -5.13563227410764699954 -0.04950007011188599371 -5.13563227410764699954 -5.13563227410764699954 -10.22176447810340782496 -10.22176447810340782496 -5.13563227410764699954 -2.59256617210976614274 -5.13563227410764699954 -2.59256617210976614274 -5.13563227410764699954 -2.59256617210976614274 -5.13563227410764699954 -5.13563227410764699954 -5.13563227410764699954 -5.13563227410764699954 -5.13563227410764699954 -5.13563227410764699954 -2.59256617210976614274 -5.13563227410764699954 -5.13563227410764699954 -5.13563227410764699954 -12.76483058010128956994 -5.13563227410764699954 -5.13563227410764699954 -7.67869837610552785634 -2.59256617210976614274 -7.67869837610552785634 -5.13563227410764699954 -7.67869837610552785634 -2.59256617210976614274 -5.13563227410764699954 -2.59256617210976614274 -7.67869837610552785634 -5.13563227410764699954 2.49356603188599468268 2.49356603188599468268 -5.13563227410764699954 -0.04950007011188599371 -2.59256617210976614274 -2.59256617210976614274 -5.13563227410764699954 2.49356603188599468268 -0.04950007011188599371 -5.13563227410764699954 -0.04950007011188599371 -10.22176447810340782496 -2.59256617210976614274 5.03663213388387465130 -2.59256617210976614274 5.03663213388387465130 2.49356603188599468268 -2.59256617210976614274 -2.59256617210976614274 -5.13563227410764699954 -7.67869837610552785634 2.49356603188599468268 -0.04950007011188599371 -0.04950007011188599371 -0.04950007011188599371 -2.59256617210976614274 -5.13563227410764699954 -7.67869837610552785634 -2.59256617210976614274 -5.13563227410764699954 -2.59256617210976614274 -0.04950007011188599371 -0.04950007011188599371 -2.59256617210976614274 -10.22176447810340782496 -2.59256617210976614274 -7.67869837610552785634 -0.04950007011188599371 5.03663213388387465130 -2.59256617210976614274 -5.13563227410764699954 -2.59256617210976614274 -5.13563227410764699954 -2.59256617210976614274 -2.59256617210976614274 -0.04950007011188599371 -2.59256617210976614274 2.49356603188599468268 -2.59256617210976614274 -5.13563227410764699954 -5.13563227410764699954 -0.04950007011188599371 -5.13563227410764699954 -2.59256617210976614274 -2.59256617210976614274 2.49356603188599468268 -0.04950007011188599371 -2.59256617210976614274 -7.67869837610552785634 -2.59256617210976614274 -5.13563227410764699954 2.49356603188599468268 -0.04950007011188599371 -2.59256617210976614274 -2.59256617210976614274 -5.13563227410764699954 -2.59256617210976614274 -0.04950007011188599371 2.49356603188599468268 -0.04950007011188599371 7.57969823588175550810 -5.13563227410764699954 5.03663213388387465130 -0.04950007011188599371 -0.04950007011188599371 -2.59256617210976614274 2.49356603188599468268 -2.59256617210976614274 5.03663213388387465130 2.49356603188599468268 -0.04950007011188599371 -0.04950007011188599371 -5.13563227410764699954 -2.59256617210976614274 -0.04950007011188599371 5.03663213388387465130 7.57969823588175550810 2.49356603188599468268 2.49356603188599468268 2.49356603188599468268 -7.67869837610552785634 -0.04950007011188599371 -0.04950007011188599371 5.03663213388387465130 7.57969823588175550810 -0.04950007011188599371 5.03663213388387465130 -0.04950007011188599371 2.49356603188599468268 7.57969823588175550810 5.03663213388387465130 7.57969823588175550810 7.57969823588175550810 5.03663213388387465130 2.49356603188599468268 10.12276433787963547672 15.20889654187539719032 7.57969823588175550810 7.57969823588175550810 10.12276433787963547672 7.57969823588175550810 5.03663213388387465130 2.49356603188599468268 2.49356603188599468268 7.57969823588175550810 12.66583043987751722170 10.12276433787963547672 7.57969823588175550810 7.57969823588175550810 10.12276433787963547672 12.66583043987751722170 5.03663213388387465130 7.57969823588175550810 7.57969823588175550810 -0.04950007011188599371 5.03663213388387465130 10.12276433787963547672 12.66583043987751722170 7.57969823588175550810 10.12276433787963547672 7.57969823588175550810 7.57969823588175550810 10.12276433787963547672 7.57969823588175550810 10.12276433787963547672 10.12276433787963547672 5.03663213388387465130 5.03663213388387465130 10.12276433787963547672 2.49356603188599468268 2.49356603188599468268 7.57969823588175550810 5.03663213388387465130 7.57969823588175550810 2.49356603188599468268 2.49356603188599468268 2.49356603188599468268 -5.13563227410764699954 5.03663213388387465130 7.57969823588175550810 5.03663213388387465130 7.57969823588175550810 2.49356603188599468268 5.03663213388387465130 2.49356603188599468268 5.03663213388387465130 10.12276433787963547672 5.03663213388387465130 -2.59256617210976614274 5.03663213388387465130 2.49356603188599468268 2.49356603188599468268 -0.04950007011188599371 -2.59256617210976614274 2.49356603188599468268 -0.04950007011188599371 12.66583043987751722170 2.49356603188599468268 2.49356603188599468268 -2.59256617210976614274 -5.13563227410764699954 -0.04950007011188599371 -0.04950007011188599371 -0.04950007011188599371 -0.04950007011188599371 -0.04950007011188599371 -0.04950007011188599371 -0.04950007011188599371 -5.13563227410764699954 -2.59256617210976614274 -0.04950007011188599371 -0.04950007011188599371 -0.04950007011188599371 2.49356603188599468268 -2.59256617210976614274 -7.67869837610552785634 -0.04950007011188599371 -2.59256617210976614274 -2.59256617210976614274 2.49356603188599468268 5.03663213388387465130 -0.04950007011188599371 -0.04950007011188599371 -5.13563227410764699954 -5.13563227410764699954 -2.59256617210976614274 -2.59256617210976614274 -2.59256617210976614274 -2.59256617210976614274 -2.59256617210976614274 -0.04950007011188599371 -2.59256617210976614274 -5.13563227410764699954 -2.59256617210976614274 -2.59256617210976614274 2.49356603188599468268 2.49356603188599468268 -0.04950007011188599371 -2.59256617210976614274 2.49356603188599468268 -0.04950007011188599371 -2.59256617210976614274 2.49356603188599468268 -2.59256617210976614274 -0.04950007011188599371 -0.04950007011188599371 -0.04950007011188599371 -5.13563227410764699954 -5.13563227410764699954 -0.04950007011188599371 -0.04950007011188599371 2.49356603188599468268 2.49356603188599468268 -5.13563227410764699954 -5.13563227410764699954 -0.04950007011188599371 -7.67869837610552785634 2.49356603188599468268 7.57969823588175550810 2.49356603188599468268 2.49356603188599468268 -5.13563227410764699954 -0.04950007011188599371 -7.67869837610552785634 -2.59256617210976614274 -0.04950007011188599371 -2.59256617210976614274 -2.59256617210976614274 -2.59256617210976614274 -5.13563227410764699954 -5.13563227410764699954 -10.22176447810340782496 -2.59256617210976614274 2.49356603188599468268 5.03663213388387465130 -7.67869837610552785634 -5.13563227410764699954 -7.67869837610552785634 -2.59256617210976614274 -10.22176447810340782496 -5.13563227410764699954 -2.59256617210976614274 -5.13563227410764699954 2.49356603188599468268 -0.04950007011188599371 -0.04950007011188599371 -2.59256617210976614274 -2.59256617210976614274 -0.04950007011188599371 -0.04950007011188599371 2.49356603188599468268 -0.04950007011188599371 -5.13563227410764699954 7.57969823588175550810 -2.59256617210976614274 -5.13563227410764699954 -5.13563227410764699954 -0.04950007011188599371 -0.04950007011188599371 7.57969823588175550810 -0.04950007011188599371 -0.04950007011188599371 -0.04950007011188599371 -5.13563227410764699954 -2.59256617210976614274 -0.04950007011188599371 5.03663213388387465130 -0.04950007011188599371 -0.04950007011188599371 2.49356603188599468268 -2.59256617210976614274 -7.67869837610552785634 2.49356603188599468268 -0.04950007011188599371 7.57969823588175550810 -0.04950007011188599371 5.03663213388387465130 -2.59256617210976614274 -0.04950007011188599371 2.49356603188599468268 7.57969823588175550810 -0.04950007011188599371 10.12276433787963547672 5.03663213388387465130 5.03663213388387465130 5.03663213388387465130 2.49356603188599468268 5.03663213388387465130 2.49356603188599468268 2.49356603188599468268 10.12276433787963547672 5.03663213388387465130 -0.04950007011188599371 5.03663213388387465130 7.57969823588175550810 7.57969823588175550810 7.57969823588175550810 2.49356603188599468268 -0.04950007011188599371 2.49356603188599468268 10.12276433787963547672 7.57969823588175550810 2.49356603188599468268 2.49356603188599468268 10.12276433787963547672 5.03663213388387465130 5.03663213388387465130 5.03663213388387465130 5.03663213388387465130 5.03663213388387465130 -2.59256617210976614274 5.03663213388387465130 2.49356603188599468268 7.57969823588175550810 -2.59256617210976614274 7.57969823588175550810 5.03663213388387465130 -5.13563227410764699954 -0.04950007011188599371 -0.04950007011188599371 7.57969823588175550810 2.49356603188599468268 2.49356603188599468268 2.49356603188599468268 2.49356603188599468268 -0.04950007011188599371 -2.59256617210976614274 -0.04950007011188599371 5.03663213388387465130 5.03663213388387465130 -0.04950007011188599371 -2.59256617210976614274 -0.04950007011188599371 -2.59256617210976614274 -0.04950007011188599371 -0.04950007011188599371 5.03663213388387465130 -0.04950007011188599371 -2.59256617210976614274 -0.04950007011188599371 -0.04950007011188599371 2.49356603188599468268 2.49356603188599468268 5.03663213388387465130 2.49356603188599468268 2.49356603188599468268 2.49356603188599468268 -0.04950007011188599371 2.49356603188599468268 -0.04950007011188599371 10.12276433787963547672 5.03663213388387465130 7.57969823588175550810 2.49356603188599468268 -0.04950007011188599371 2.49356603188599468268 7.57969823588175550810 10.12276433787963547672 5.03663213388387465130 2.49356603188599468268 -2.59256617210976614274 2.49356603188599468268 -0.04950007011188599371 2.49356603188599468268 -0.04950007011188599371 -0.04950007011188599371 -0.04950007011188599371 -0.04950007011188599371 -5.13563227410764699954 -2.59256617210976614274 -2.59256617210976614274 2.49356603188599468268 -0.04950007011188599371 5.03663213388387465130 -2.59256617210976614274 -0.04950007011188599371 2.49356603188599468268 -2.59256617210976614274 -7.67869837610552785634 -2.59256617210976614274 2.49356603188599468268 -0.04950007011188599371 2.49356603188599468268 -2.59256617210976614274 -7.67869837610552785634 -0.04950007011188599371 -0.04950007011188599371 -0.04950007011188599371 -0.04950007011188599371 -0.04950007011188599371 -7.67869837610552785634 -5.13563227410764699954 -5.13563227410764699954 5.03663213388387465130 -0.04950007011188599371 -2.59256617210976614274 2.49356603188599468268 -2.59256617210976614274 -0.04950007011188599371 -0.04950007011188599371 -0.04950007011188599371 -5.13563227410764699954 2.49356603188599468268 -5.13563227410764699954 -7.67869837610552785634 2.49356603188599468268 -0.04950007011188599371 -0.04950007011188599371 2.49356603188599468268 2.49356603188599468268 -0.04950007011188599371 -0.04950007011188599371 2.49356603188599468268 -0.04950007011188599371 5.03663213388387465130 2.49356603188599468268 -0.04950007011188599371 -0.04950007011188599371 7.57969823588175550810 -7.67869837610552785634 -0.04950007011188599371 7.57969823588175550810 5.03663213388387465130 -0.04950007011188599371 -0.04950007011188599371 -0.04950007011188599371 -2.59256617210976614274 -0.04950007011188599371 -5.13563227410764699954 -2.59256617210976614274 -2.59256617210976614274 -2.59256617210976614274 -2.59256617210976614274 -0.04950007011188599371 -0.04950007011188599371 -2.59256617210976614274 -0.04950007011188599371 -0.04950007011188599371 2.49356603188599468268 -5.13563227410764699954 2.49356603188599468268 -2.59256617210976614274 -0.04950007011188599371 -2.59256617210976614274 2.49356603188599468268 -5.13563227410764699954 2.49356603188599468268 -2.59256617210976614274 2.49356603188599468268 -0.04950007011188599371 2.49356603188599468268 -5.13563227410764699954 -0.04950007011188599371 -2.59256617210976614274 5.03663213388387465130 2.49356603188599468268 -2.59256617210976614274 -2.59256617210976614274 -5.13563227410764699954 -0.04950007011188599371 2.49356603188599468268 -2.59256617210976614274 2.49356603188599468268 -5.13563227410764699954 5.03663213388387465130 -2.59256617210976614274 -0.04950007011188599371 -0.04950007011188599371 -5.13563227410764699954 2.49356603188599468268 -0.04950007011188599371 2.49356603188599468268 2.49356603188599468268 -0.04950007011188599371 -2.59256617210976614274 -0.04950007011188599371 -0.04950007011188599371 2.49356603188599468268 -0.04950007011188599371 2.49356603188599468268 5.03663213388387465130 -5.13563227410764699954 2.49356603188599468268 2.49356603188599468268 5.03663213388387465130 5.03663213388387465130 5.03663213388387465130 2.49356603188599468268 5.03663213388387465130 2.49356603188599468268 2.49356603188599468268 10.12276433787963547672 5.03663213388387465130 2.49356603188599468268 5.03663213388387465130 5.03663213388387465130 7.57969823588175550810 2.49356603188599468268 -2.59256617210976614274 10.12276433787963547672 7.57969823588175550810 7.57969823588175550810 5.03663213388387465130 5.03663213388387465130 5.03663213388387465130 7.57969823588175550810 7.57969823588175550810 5.03663213388387465130 10.12276433787963547672 7.57969823588175550810 5.03663213388387465130 2.49356603188599468268 10.12276433787963547672 10.12276433787963547672 7.57969823588175550810 12.66583043987751722170 7.57969823588175550810 7.57969823588175550810 7.57969823588175550810 10.12276433787963547672 10.12276433787963547672 7.57969823588175550810 12.66583043987751722170 7.57969823588175550810 7.57969823588175550810 5.03663213388387465130 12.66583043987751722170 -0.04950007011188599371 7.57969823588175550810 5.03663213388387465130 10.12276433787963547672 7.57969823588175550810 5.03663213388387465130 2.49356603188599468268 10.12276433787963547672 10.12276433787963547672 7.57969823588175550810 2.49356603188599468268 10.12276433787963547672 7.57969823588175550810 2.49356603188599468268 5.03663213388387465130 2.49356603188599468268 5.03663213388387465130 2.49356603188599468268 5.03663213388387465130 2.49356603188599468268 7.57969823588175550810 -0.04950007011188599371 5.03663213388387465130 5.03663213388387465130 7.57969823588175550810 5.03663213388387465130 10.12276433787963547672 10.12276433787963547672 10.12276433787963547672 -0.04950007011188599371 -0.04950007011188599371 2.49356603188599468268 2.49356603188599468268 5.03663213388387465130 5.03663213388387465130 7.57969823588175550810 7.57969823588175550810 7.57969823588175550810 7.57969823588175550810 -0.04950007011188599371 5.03663213388387465130 12.66583043987751722170 7.57969823588175550810 15.20889654187539719032 7.57969823588175550810 5.03663213388387465130 5.03663213388387465130 7.57969823588175550810 7.57969823588175550810 2.49356603188599468268 2.49356603188599468268 7.57969823588175550810 2.49356603188599468268 2.49356603188599468268 5.03663213388387465130 -2.59256617210976614274 2.49356603188599468268 10.12276433787963547672 7.57969823588175550810 7.57969823588175550810 7.57969823588175550810 5.03663213388387465130 2.49356603188599468268 2.49356603188599468268 5.03663213388387465130 -2.59256617210976614274 5.03663213388387465130 -0.04950007011188599371 5.03663213388387465130 -0.04950007011188599371 2.49356603188599468268 2.49356603188599468268 7.57969823588175550810 5.03663213388387465130 10.12276433787963547672 5.03663213388387465130 -0.04950007011188599371 -0.04950007011188599371 -0.04950007011188599371 7.57969823588175550810 5.03663213388387465130 7.57969823588175550810 5.03663213388387465130 -0.04950007011188599371 2.49356603188599468268 -0.04950007011188599371 5.03663213388387465130 2.49356603188599468268 2.49356603188599468268 5.03663213388387465130 5.03663213388387465130 7.57969823588175550810 -0.04950007011188599371 -0.04950007011188599371 2.49356603188599468268 -0.04950007011188599371 5.03663213388387465130 5.03663213388387465130 2.49356603188599468268 5.03663213388387465130 -0.04950007011188599371 -2.59256617210976614274 -0.04950007011188599371 -2.59256617210976614274 2.49356603188599468268 5.03663213388387465130 -0.04950007011188599371 5.03663213388387465130 5.03663213388387465130 5.03663213388387465130 -2.59256617210976614274 2.49356603188599468268 5.03663213388387465130 5.03663213388387465130 -0.04950007011188599371 2.49356603188599468268 -2.59256617210976614274 2.49356603188599468268 5.03663213388387465130 7.57969823588175550810 10.12276433787963547672 5.03663213388387465130 2.49356603188599468268 2.49356603188599468268 5.03663213388387465130 2.49356603188599468268 -0.04950007011188599371 5.03663213388387465130 10.12276433787963547672 7.57969823588175550810 2.49356603188599468268 2.49356603188599468268 2.49356603188599468268 -0.04950007011188599371 5.03663213388387465130 10.12276433787963547672 10.12276433787963547672 10.12276433787963547672 7.57969823588175550810 5.03663213388387465130 2.49356603188599468268 -0.04950007011188599371 5.03663213388387465130 7.57969823588175550810 10.12276433787963547672 10.12276433787963547672 5.03663213388387465130 10.12276433787963547672 5.03663213388387465130 7.57969823588175550810 5.03663213388387465130 7.57969823588175550810 2.49356603188599468268 7.57969823588175550810 10.12276433787963547672 7.57969823588175550810 7.57969823588175550810 5.03663213388387465130 2.49356603188599468268 7.57969823588175550810 7.57969823588175550810 7.57969823588175550810 10.12276433787963547672 10.12276433787963547672 5.03663213388387465130 2.49356603188599468268 2.49356603188599468268 5.03663213388387465130 12.66583043987751722170 7.57969823588175550810 10.12276433787963547672 7.57969823588175550810 7.57969823588175550810 -0.04950007011188599371 2.49356603188599468268 5.03663213388387465130 -0.04950007011188599371 5.03663213388387465130 7.57969823588175550810 7.57969823588175550810 7.57969823588175550810 -2.59256617210976614274 -0.04950007011188599371 -0.04950007011188599371 2.49356603188599468268 5.03663213388387465130 7.57969823588175550810 -0.04950007011188599371 5.03663213388387465130 5.03663213388387465130 5.03663213388387465130 -0.04950007011188599371 -2.59256617210976614274 -0.04950007011188599371 5.03663213388387465130 7.57969823588175550810 -0.04950007011188599371 -0.04950007011188599371 5.03663213388387465130 2.49356603188599468268 5.03663213388387465130 2.49356603188599468268 2.49356603188599468268 -0.04950007011188599371 -0.04950007011188599371 2.49356603188599468268 5.03663213388387465130 5.03663213388387465130 10.12276433787963547672 5.03663213388387465130 5.03663213388387465130 2.49356603188599468268 7.57969823588175550810 -0.04950007011188599371 2.49356603188599468268 7.57969823588175550810 2.49356603188599468268 5.03663213388387465130 7.57969823588175550810 -0.04950007011188599371 -0.04950007011188599371 5.03663213388387465130 2.49356603188599468268 -0.04950007011188599371 2.49356603188599468268 5.03663213388387465130 7.57969823588175550810 2.49356603188599468268 2.49356603188599468268 2.49356603188599468268 -0.04950007011188599371 2.49356603188599468268 -2.59256617210976614274 2.49356603188599468268 2.49356603188599468268 -0.04950007011188599371 2.49356603188599468268 2.49356603188599468268 2.49356603188599468268 10.12276433787963547672 7.57969823588175550810 2.49356603188599468268 5.03663213388387465130 5.03663213388387465130 5.03663213388387465130 5.03663213388387465130 2.49356603188599468268 2.49356603188599468268 10.12276433787963547672 12.66583043987751722170 10.12276433787963547672 5.03663213388387465130 10.12276433787963547672 7.57969823588175550810 2.49356603188599468268 7.57969823588175550810 5.03663213388387465130 2.49356603188599468268 10.12276433787963547672 5.03663213388387465130 5.03663213388387465130 10.12276433787963547672 5.03663213388387465130 12.66583043987751722170 10.12276433787963547672 12.66583043987751722170 12.66583043987751722170 7.57969823588175550810 7.57969823588175550810 5.03663213388387465130 12.66583043987751722170 10.12276433787963547672 7.57969823588175550810 15.20889654187539719032 10.12276433787963547672 10.12276433787963547672 10.12276433787963547672 10.12276433787963547672 10.12276433787963547672 12.66583043987751722170 15.20889654187539719032 10.12276433787963547672 12.66583043987751722170 7.57969823588175550810 7.57969823588175550810 5.03663213388387465130 7.57969823588175550810 12.66583043987751722170 12.66583043987751722170 15.20889654187539719032 10.12276433787963547672 12.66583043987751722170 7.57969823588175550810 15.20889654187539719032 12.66583043987751722170 17.75196264387327715895 17.75196264387327715895 10.12276433787963547672 10.12276433787963547672 12.66583043987751722170 10.12276433787963547672 12.66583043987751722170 12.66583043987751722170 12.66583043987751722170 7.57969823588175550810 12.66583043987751722170 7.57969823588175550810 2.49356603188599468268 5.03663213388387465130 12.66583043987751722170 10.12276433787963547672 15.20889654187539719032 12.66583043987751722170 12.66583043987751722170 15.20889654187539719032 7.57969823588175550810 2.49356603188599468268 10.12276433787963547672 10.12276433787963547672 5.03663213388387465130 17.75196264387327715895 12.66583043987751722170 7.57969823588175550810 15.20889654187539719032 15.20889654187539719032 12.66583043987751722170 12.66583043987751722170 12.66583043987751722170 10.12276433787963547672 7.57969823588175550810 7.57969823588175550810 7.57969823588175550810 5.03663213388387465130 10.12276433787963547672 15.20889654187539719032 12.66583043987751722170 7.57969823588175550810 12.66583043987751722170 5.03663213388387465130 7.57969823588175550810 10.12276433787963547672 10.12276433787963547672 12.66583043987751722170 12.66583043987751722170 10.12276433787963547672 7.57969823588175550810 5.03663213388387465130 10.12276433787963547672 5.03663213388387465130 10.12276433787963547672 10.12276433787963547672 7.57969823588175550810 10.12276433787963547672 -0.04950007011188599371 5.03663213388387465130 10.12276433787963547672 10.12276433787963547672 7.57969823588175550810 5.03663213388387465130 10.12276433787963547672 10.12276433787963547672 2.49356603188599468268 7.57969823588175550810 5.03663213388387465130 12.66583043987751722170 10.12276433787963547672 7.57969823588175550810 5.03663213388387465130 10.12276433787963547672 2.49356603188599468268 10.12276433787963547672 10.12276433787963547672 10.12276433787963547672 7.57969823588175550810 10.12276433787963547672 10.12276433787963547672 10.12276433787963547672 2.49356603188599468268 7.57969823588175550810 10.12276433787963547672 5.03663213388387465130 2.49356603188599468268 5.03663213388387465130 5.03663213388387465130 7.57969823588175550810 12.66583043987751722170 7.57969823588175550810 12.66583043987751722170 12.66583043987751722170 12.66583043987751722170 5.03663213388387465130 5.03663213388387465130 7.57969823588175550810 5.03663213388387465130 10.12276433787963547672 10.12276433787963547672 10.12276433787963547672 10.12276433787963547672 12.66583043987751722170 2.49356603188599468268 10.12276433787963547672 5.03663213388387465130 10.12276433787963547672 7.57969823588175550810 5.03663213388387465130 10.12276433787963547672 10.12276433787963547672 2.49356603188599468268 2.49356603188599468268 -0.04950007011188599371 7.57969823588175550810 10.12276433787963547672 5.03663213388387465130 7.57969823588175550810 2.49356603188599468268 5.03663213388387465130 5.03663213388387465130 5.03663213388387465130 7.57969823588175550810 2.49356603188599468268 10.12276433787963547672 5.03663213388387465130 7.57969823588175550810 2.49356603188599468268 12.66583043987751722170 5.03663213388387465130 7.57969823588175550810 2.49356603188599468268 5.03663213388387465130 5.03663213388387465130 2.49356603188599468268 -0.04950007011188599371 5.03663213388387465130 5.03663213388387465130 7.57969823588175550810 5.03663213388387465130 5.03663213388387465130 5.03663213388387465130 5.03663213388387465130 2.49356603188599468268 2.49356603188599468268 2.49356603188599468268 5.03663213388387465130 10.12276433787963547672 2.49356603188599468268 10.12276433787963547672 -2.59256617210976614274 -0.04950007011188599371 5.03663213388387465130 5.03663213388387465130 12.66583043987751722170 5.03663213388387465130 2.49356603188599468268 2.49356603188599468268 7.57969823588175550810 5.03663213388387465130 2.49356603188599468268 10.12276433787963547672 5.03663213388387465130 7.57969823588175550810 10.12276433787963547672 2.49356603188599468268 2.49356603188599468268 5.03663213388387465130 10.12276433787963547672 5.03663213388387465130 5.03663213388387465130 7.57969823588175550810 2.49356603188599468268 10.12276433787963547672 5.03663213388387465130 5.03663213388387465130 5.03663213388387465130 2.49356603188599468268 5.03663213388387465130 7.57969823588175550810 2.49356603188599468268 5.03663213388387465130 -0.04950007011188599371 7.57969823588175550810 10.12276433787963547672 5.03663213388387465130 2.49356603188599468268 5.03663213388387465130 2.49356603188599468268 -2.59256617210976614274 -0.04950007011188599371 7.57969823588175550810 7.57969823588175550810 2.49356603188599468268 7.57969823588175550810 12.66583043987751722170 -0.04950007011188599371 -2.59256617210976614274 2.49356603188599468268 7.57969823588175550810 2.49356603188599468268 5.03663213388387465130 7.57969823588175550810 7.57969823588175550810 5.03663213388387465130 2.49356603188599468268 5.03663213388387465130 -2.59256617210976614274 2.49356603188599468268 2.49356603188599468268 -0.04950007011188599371 2.49356603188599468268 7.57969823588175550810 -0.04950007011188599371 -0.04950007011188599371 2.49356603188599468268 5.03663213388387465130 2.49356603188599468268 -0.04950007011188599371 5.03663213388387465130 5.03663213388387465130 5.03663213388387465130 2.49356603188599468268 2.49356603188599468268 7.57969823588175550810 7.57969823588175550810 5.03663213388387465130 10.12276433787963547672 5.03663213388387465130 7.57969823588175550810 -2.59256617210976614274 5.03663213388387465130 7.57969823588175550810 7.57969823588175550810 5.03663213388387465130 7.57969823588175550810 5.03663213388387465130 2.49356603188599468268 2.49356603188599468268 2.49356603188599468268 5.03663213388387465130 10.12276433787963547672 2.49356603188599468268 2.49356603188599468268 2.49356603188599468268 5.03663213388387465130 10.12276433787963547672 7.57969823588175550810 10.12276433787963547672 7.57969823588175550810 10.12276433787963547672 10.12276433787963547672 12.66583043987751722170 5.03663213388387465130 7.57969823588175550810 2.49356603188599468268 10.12276433787963547672 12.66583043987751722170 10.12276433787963547672 10.12276433787963547672 5.03663213388387465130 10.12276433787963547672 7.57969823588175550810 10.12276433787963547672 7.57969823588175550810 7.57969823588175550810 17.75196264387327715895 7.57969823588175550810 10.12276433787963547672 10.12276433787963547672 10.12276433787963547672 7.57969823588175550810 5.03663213388387465130 7.57969823588175550810 2.49356603188599468268 10.12276433787963547672 7.57969823588175550810 12.66583043987751722170 10.12276433787963547672 5.03663213388387465130 2.49356603188599468268 12.66583043987751722170 15.20889654187539719032 15.20889654187539719032 17.75196264387327715895 12.66583043987751722170 7.57969823588175550810 5.03663213388387465130 10.12276433787963547672 15.20889654187539719032 12.66583043987751722170 10.12276433787963547672 12.66583043987751722170 2.49356603188599468268 5.03663213388387465130 7.57969823588175550810 10.12276433787963547672 15.20889654187539719032 7.57969823588175550810 15.20889654187539719032 10.12276433787963547672 10.12276433787963547672 12.66583043987751722170 10.12276433787963547672 12.66583043987751722170 12.66583043987751722170 12.66583043987751722170 15.20889654187539719032 5.03663213388387465130 15.20889654187539719032 15.20889654187539719032 17.75196264387327715895 17.75196264387327715895 12.66583043987751722170 7.57969823588175550810 10.12276433787963547672 10.12276433787963547672 10.12276433787963547672 15.20889654187539719032 15.20889654187539719032 5.03663213388387465130 10.12276433787963547672 10.12276433787963547672 10.12276433787963547672 7.57969823588175550810 7.57969823588175550810 5.03663213388387465130 10.12276433787963547672 15.20889654187539719032 5.03663213388387465130 5.03663213388387465130 5.03663213388387465130 7.57969823588175550810 7.57969823588175550810 7.57969823588175550810 10.12276433787963547672 7.57969823588175550810 2.49356603188599468268 5.03663213388387465130 5.03663213388387465130 10.12276433787963547672 7.57969823588175550810 2.49356603188599468268 5.03663213388387465130 2.49356603188599468268 -5.13563227410764699954 2.49356603188599468268 -0.04950007011188599371 2.49356603188599468268 2.49356603188599468268 5.03663213388387465130 5.03663213388387465130 -2.59256617210976614274 -2.59256617210976614274 -0.04950007011188599371 5.03663213388387465130 5.03663213388387465130 -0.04950007011188599371 -0.04950007011188599371 -7.67869837610552785634 -0.04950007011188599371 -10.22176447810340782496 -2.59256617210976614274 -0.04950007011188599371 2.49356603188599468268 -5.13563227410764699954 -0.04950007011188599371 -0.04950007011188599371 -7.67869837610552785634 -10.22176447810340782496 -7.67869837610552785634 -2.59256617210976614274 -7.67869837610552785634 -5.13563227410764699954 -7.67869837610552785634 -7.67869837610552785634 -10.22176447810340782496 -12.76483058010128956994 -12.76483058010128956994 -10.22176447810340782496 -10.22176447810340782496 -5.13563227410764699954 -12.76483058010128956994 -2.59256617210976614274 -10.22176447810340782496 -12.76483058010128956994 -12.76483058010128956994 -15.30789668209916953856 -12.76483058010128956994 -7.67869837610552785634 -17.85096278409704950718 -10.22176447810340782496 -15.30789668209916953856 -17.85096278409704950718 -20.39402888609492947580 -15.30789668209916953856 -12.76483058010128956994 -15.30789668209916953856 -15.30789668209916953856 -17.85096278409704950718 -12.76483058010128956994 -17.85096278409704950718 -17.85096278409704950718 -22.93709498809281299714 -12.76483058010128956994 -15.30789668209916953856 -20.39402888609492947580 -15.30789668209916953856 -20.39402888609492947580 -20.39402888609492947580 -17.85096278409704950718 -17.85096278409704950718 -15.30789668209916953856 -15.30789668209916953856 -10.22176447810340782496 -12.76483058010128956994 -12.76483058010128956994 -17.85096278409704950718 -12.76483058010128956994 -22.93709498809281299714 -7.67869837610552785634 -10.22176447810340782496 -12.76483058010128956994 -12.76483058010128956994 -15.30789668209916953856 -10.22176447810340782496 -15.30789668209916953856 -15.30789668209916953856 -15.30789668209916953856 -15.30789668209916953856 -10.22176447810340782496 -5.13563227410764699954 -5.13563227410764699954 -12.76483058010128956994 -15.30789668209916953856 -17.85096278409704950718 -15.30789668209916953856 -5.13563227410764699954 -10.22176447810340782496 -15.30789668209916953856 -7.67869837610552785634 -7.67869837610552785634 -10.22176447810340782496 -10.22176447810340782496 -10.22176447810340782496 -10.22176447810340782496 -5.13563227410764699954 -7.67869837610552785634 -5.13563227410764699954 -5.13563227410764699954 -7.67869837610552785634 -5.13563227410764699954 -7.67869837610552785634 -2.59256617210976614274 -2.59256617210976614274 -7.67869837610552785634 -5.13563227410764699954 -0.04950007011188599371 -2.59256617210976614274 -2.59256617210976614274 -5.13563227410764699954 2.49356603188599468268 2.49356603188599468268 -2.59256617210976614274 2.49356603188599468268 2.49356603188599468268 2.49356603188599468268 2.49356603188599468268 -2.59256617210976614274 2.49356603188599468268 5.03663213388387465130 5.03663213388387465130 -2.59256617210976614274 7.57969823588175550810 -2.59256617210976614274 2.49356603188599468268 -0.04950007011188599371 2.49356603188599468268 2.49356603188599468268 5.03663213388387465130 2.49356603188599468268 5.03663213388387465130 2.49356603188599468268 5.03663213388387465130 5.03663213388387465130 10.12276433787963547672 7.57969823588175550810 10.12276433787963547672 10.12276433787963547672 -0.04950007011188599371 10.12276433787963547672 7.57969823588175550810 5.03663213388387465130 7.57969823588175550810 10.12276433787963547672 10.12276433787963547672 10.12276433787963547672 7.57969823588175550810 10.12276433787963547672 5.03663213388387465130 -0.04950007011188599371 10.12276433787963547672 15.20889654187539719032 7.57969823588175550810 10.12276433787963547672 10.12276433787963547672 7.57969823588175550810 7.57969823588175550810 7.57969823588175550810 15.20889654187539719032 17.75196264387327715895 15.20889654187539719032 12.66583043987751722170 10.12276433787963547672 12.66583043987751722170 12.66583043987751722170 12.66583043987751722170 15.20889654187539719032 17.75196264387327715895 17.75196264387327715895 5.03663213388387465130 12.66583043987751722170 10.12276433787963547672 15.20889654187539719032 12.66583043987751722170 20.29502874587115712757 12.66583043987751722170 12.66583043987751722170 12.66583043987751722170 12.66583043987751722170 15.20889654187539719032 12.66583043987751722170 10.12276433787963547672 15.20889654187539719032 12.66583043987751722170 7.57969823588175550810 12.66583043987751722170 5.03663213388387465130 7.57969823588175550810 15.20889654187539719032 10.12276433787963547672 15.20889654187539719032 10.12276433787963547672 12.66583043987751722170 7.57969823588175550810 5.03663213388387465130 15.20889654187539719032 15.20889654187539719032 15.20889654187539719032 10.12276433787963547672 12.66583043987751722170 7.57969823588175550810 2.49356603188599468268 15.20889654187539719032 12.66583043987751722170 15.20889654187539719032 10.12276433787963547672 7.57969823588175550810 7.57969823588175550810 7.57969823588175550810 12.66583043987751722170 7.57969823588175550810 10.12276433787963547672 10.12276433787963547672 7.57969823588175550810 10.12276433787963547672 7.57969823588175550810 -2.59256617210976614274 10.12276433787963547672 10.12276433787963547672 7.57969823588175550810 5.03663213388387465130 7.57969823588175550810 12.66583043987751722170 7.57969823588175550810 10.12276433787963547672 5.03663213388387465130 7.57969823588175550810 2.49356603188599468268 2.49356603188599468268 7.57969823588175550810 7.57969823588175550810 5.03663213388387465130 7.57969823588175550810 5.03663213388387465130 2.49356603188599468268 5.03663213388387465130 7.57969823588175550810 5.03663213388387465130 5.03663213388387465130 7.57969823588175550810 7.57969823588175550810 -0.04950007011188599371 2.49356603188599468268 7.57969823588175550810 7.57969823588175550810 7.57969823588175550810 7.57969823588175550810 2.49356603188599468268 2.49356603188599468268 5.03663213388387465130 5.03663213388387465130 2.49356603188599468268 -2.59256617210976614274 -0.04950007011188599371 10.12276433787963547672 5.03663213388387465130 7.57969823588175550810 5.03663213388387465130 -0.04950007011188599371 -0.04950007011188599371 2.49356603188599468268 12.66583043987751722170 5.03663213388387465130 5.03663213388387465130 2.49356603188599468268 5.03663213388387465130 2.49356603188599468268 2.49356603188599468268 -0.04950007011188599371 10.12276433787963547672 7.57969823588175550810 7.57969823588175550810 7.57969823588175550810 7.57969823588175550810 5.03663213388387465130 10.12276433787963547672 2.49356603188599468268 5.03663213388387465130 10.12276433787963547672 5.03663213388387465130 5.03663213388387465130 5.03663213388387465130 2.49356603188599468268 -0.04950007011188599371 -0.04950007011188599371 5.03663213388387465130 2.49356603188599468268 5.03663213388387465130 -2.59256617210976614274 2.49356603188599468268 -2.59256617210976614274 5.03663213388387465130 5.03663213388387465130 5.03663213388387465130 5.03663213388387465130 2.49356603188599468268 2.49356603188599468268 -2.59256617210976614274 2.49356603188599468268 7.57969823588175550810 2.49356603188599468268 -0.04950007011188599371 2.49356603188599468268 -5.13563227410764699954 -2.59256617210976614274 -0.04950007011188599371 5.03663213388387465130 2.49356603188599468268 2.49356603188599468268 2.49356603188599468268 5.03663213388387465130 -0.04950007011188599371 7.57969823588175550810 -0.04950007011188599371 7.57969823588175550810 2.49356603188599468268 5.03663213388387465130 2.49356603188599468268 2.49356603188599468268 2.49356603188599468268 5.03663213388387465130 5.03663213388387465130 2.49356603188599468268 7.57969823588175550810 2.49356603188599468268 2.49356603188599468268 5.03663213388387465130 5.03663213388387465130 -0.04950007011188599371 10.12276433787963547672 -2.59256617210976614274 2.49356603188599468268 -0.04950007011188599371 2.49356603188599468268 7.57969823588175550810 10.12276433787963547672 5.03663213388387465130 7.57969823588175550810 -0.04950007011188599371 10.12276433787963547672 10.12276433787963547672 5.03663213388387465130 5.03663213388387465130 5.03663213388387465130 5.03663213388387465130 -0.04950007011188599371 5.03663213388387465130 -0.04950007011188599371 5.03663213388387465130 -2.59256617210976614274 -0.04950007011188599371 -0.04950007011188599371 -0.04950007011188599371 2.49356603188599468268 -0.04950007011188599371 -0.04950007011188599371 2.49356603188599468268 5.03663213388387465130 5.03663213388387465130 -0.04950007011188599371 -0.04950007011188599371 2.49356603188599468268 2.49356603188599468268 -2.59256617210976614274 2.49356603188599468268 5.03663213388387465130 5.03663213388387465130 7.57969823588175550810 2.49356603188599468268 5.03663213388387465130 -2.59256617210976614274 7.57969823588175550810 7.57969823588175550810 10.12276433787963547672 2.49356603188599468268 -2.59256617210976614274 2.49356603188599468268 2.49356603188599468268 -2.59256617210976614274 -2.59256617210976614274 -0.04950007011188599371 -2.59256617210976614274 5.03663213388387465130 2.49356603188599468268 2.49356603188599468268 -2.59256617210976614274 -5.13563227410764699954 -0.04950007011188599371 -2.59256617210976614274 -0.04950007011188599371 -2.59256617210976614274 -0.04950007011188599371 -0.04950007011188599371 -2.59256617210976614274 -5.13563227410764699954 5.03663213388387465130 -0.04950007011188599371 2.49356603188599468268 -2.59256617210976614274 -0.04950007011188599371 -2.59256617210976614274 -5.13563227410764699954 -2.59256617210976614274 7.57969823588175550810 -0.04950007011188599371 5.03663213388387465130 -0.04950007011188599371 -2.59256617210976614274 -0.04950007011188599371 -0.04950007011188599371 -5.13563227410764699954 5.03663213388387465130 -0.04950007011188599371 -0.04950007011188599371 -5.13563227410764699954 -2.59256617210976614274 -5.13563227410764699954 -7.67869837610552785634 -0.04950007011188599371 5.03663213388387465130 -2.59256617210976614274 2.49356603188599468268 -5.13563227410764699954 -0.04950007011188599371 2.49356603188599468268 -5.13563227410764699954 -0.04950007011188599371 -0.04950007011188599371 2.49356603188599468268 -2.59256617210976614274 -0.04950007011188599371 -2.59256617210976614274 -7.67869837610552785634 -5.13563227410764699954 -0.04950007011188599371 2.49356603188599468268 2.49356603188599468268 -5.13563227410764699954 -0.04950007011188599371 -0.04950007011188599371 5.03663213388387465130 -5.13563227410764699954 -7.67869837610552785634 2.49356603188599468268 -2.59256617210976614274 5.03663213388387465130 2.49356603188599468268 5.03663213388387465130 -0.04950007011188599371 -7.67869837610552785634 -0.04950007011188599371 -2.59256617210976614274 2.49356603188599468268 -2.59256617210976614274 -0.04950007011188599371 -2.59256617210976614274 -2.59256617210976614274 -5.13563227410764699954 -2.59256617210976614274 2.49356603188599468268 7.57969823588175550810 -5.13563227410764699954 -0.04950007011188599371 -2.59256617210976614274 -0.04950007011188599371 -5.13563227410764699954 -5.13563227410764699954 2.49356603188599468268 2.49356603188599468268 -0.04950007011188599371 -0.04950007011188599371 -0.04950007011188599371 2.49356603188599468268 -5.13563227410764699954 -0.04950007011188599371 2.49356603188599468268 7.57969823588175550810 -0.04950007011188599371 -0.04950007011188599371 -0.04950007011188599371 -2.59256617210976614274 2.49356603188599468268 5.03663213388387465130 7.57969823588175550810 2.49356603188599468268 2.49356603188599468268 -0.04950007011188599371 2.49356603188599468268 2.49356603188599468268 5.03663213388387465130 12.66583043987751722170 5.03663213388387465130 2.49356603188599468268 5.03663213388387465130 5.03663213388387465130 -0.04950007011188599371 2.49356603188599468268 5.03663213388387465130 2.49356603188599468268 5.03663213388387465130 2.49356603188599468268 2.49356603188599468268 2.49356603188599468268 -0.04950007011188599371 -0.04950007011188599371 5.03663213388387465130 -2.59256617210976614274 5.03663213388387465130 2.49356603188599468268 2.49356603188599468268 -0.04950007011188599371 -2.59256617210976614274 -0.04950007011188599371 2.49356603188599468268 -2.59256617210976614274 -0.04950007011188599371 -0.04950007011188599371 5.03663213388387465130 -5.13563227410764699954 -5.13563227410764699954 -2.59256617210976614274 -0.04950007011188599371 2.49356603188599468268 5.03663213388387465130 -2.59256617210976614274 -0.04950007011188599371 -2.59256617210976614274 -0.04950007011188599371 -2.59256617210976614274 -0.04950007011188599371 -0.04950007011188599371 2.49356603188599468268 7.57969823588175550810 -2.59256617210976614274 -7.67869837610552785634 -0.04950007011188599371 -2.59256617210976614274 5.03663213388387465130 2.49356603188599468268 -0.04950007011188599371 2.49356603188599468268 -2.59256617210976614274 -2.59256617210976614274 -0.04950007011188599371 -0.04950007011188599371 5.03663213388387465130 -0.04950007011188599371 -0.04950007011188599371 -2.59256617210976614274 -0.04950007011188599371 2.49356603188599468268 2.49356603188599468268 2.49356603188599468268 2.49356603188599468268 -0.04950007011188599371 -5.13563227410764699954 -0.04950007011188599371 2.49356603188599468268 2.49356603188599468268 7.57969823588175550810 2.49356603188599468268 5.03663213388387465130 2.49356603188599468268 5.03663213388387465130 2.49356603188599468268 2.49356603188599468268 5.03663213388387465130 2.49356603188599468268 2.49356603188599468268 2.49356603188599468268 5.03663213388387465130 5.03663213388387465130 -0.04950007011188599371 -0.04950007011188599371 10.12276433787963547672 5.03663213388387465130 -0.04950007011188599371 5.03663213388387465130 -0.04950007011188599371 -0.04950007011188599371 -0.04950007011188599371 7.57969823588175550810 5.03663213388387465130 7.57969823588175550810 2.49356603188599468268 5.03663213388387465130 -0.04950007011188599371 -7.67869837610552785634 7.57969823588175550810 -5.13563227410764699954 5.03663213388387465130 -2.59256617210976614274 2.49356603188599468268 2.49356603188599468268 -0.04950007011188599371 -5.13563227410764699954 -5.13563227410764699954 -2.59256617210976614274 -0.04950007011188599371 -0.04950007011188599371 -0.04950007011188599371 -0.04950007011188599371 -5.13563227410764699954 -5.13563227410764699954 -2.59256617210976614274 -2.59256617210976614274 -2.59256617210976614274 -0.04950007011188599371 -2.59256617210976614274 -0.04950007011188599371 -7.67869837610552785634 -7.67869837610552785634 -2.59256617210976614274 7.57969823588175550810 -0.04950007011188599371 7.57969823588175550810 -0.04950007011188599371 -2.59256617210976614274 2.49356603188599468268 -7.67869837610552785634 -2.59256617210976614274 7.57969823588175550810 -2.59256617210976614274 -0.04950007011188599371 -0.04950007011188599371 -2.59256617210976614274 -7.67869837610552785634 -7.67869837610552785634 -5.13563227410764699954 -2.59256617210976614274 2.49356603188599468268 5.03663213388387465130 -0.04950007011188599371 2.49356603188599468268 -0.04950007011188599371 -2.59256617210976614274 -5.13563227410764699954 5.03663213388387465130 -0.04950007011188599371 -5.13563227410764699954 -0.04950007011188599371 -0.04950007011188599371 -2.59256617210976614274 2.49356603188599468268 5.03663213388387465130 7.57969823588175550810 2.49356603188599468268 -0.04950007011188599371 -0.04950007011188599371 -0.04950007011188599371 -2.59256617210976614274 -0.04950007011188599371 -0.04950007011188599371 5.03663213388387465130 7.57969823588175550810 5.03663213388387465130 2.49356603188599468268 -0.04950007011188599371 2.49356603188599468268 2.49356603188599468268 5.03663213388387465130 -0.04950007011188599371 7.57969823588175550810 5.03663213388387465130 7.57969823588175550810 7.57969823588175550810 -2.59256617210976614274 2.49356603188599468268 7.57969823588175550810 2.49356603188599468268 7.57969823588175550810 5.03663213388387465130 5.03663213388387465130 -0.04950007011188599371 7.57969823588175550810 5.03663213388387465130 2.49356603188599468268 12.66583043987751722170 2.49356603188599468268 7.57969823588175550810 5.03663213388387465130 5.03663213388387465130 7.57969823588175550810 12.66583043987751722170 7.57969823588175550810 12.66583043987751722170 5.03663213388387465130 7.57969823588175550810 7.57969823588175550810 2.49356603188599468268 10.12276433787963547672 12.66583043987751722170 10.12276433787963547672 7.57969823588175550810 7.57969823588175550810 15.20889654187539719032 12.66583043987751722170 10.12276433787963547672 7.57969823588175550810 7.57969823588175550810 15.20889654187539719032 10.12276433787963547672 2.49356603188599468268 7.57969823588175550810 10.12276433787963547672 10.12276433787963547672 10.12276433787963547672 15.20889654187539719032 10.12276433787963547672 7.57969823588175550810 10.12276433787963547672 10.12276433787963547672 5.03663213388387465130 10.12276433787963547672 12.66583043987751722170 5.03663213388387465130 7.57969823588175550810 10.12276433787963547672 7.57969823588175550810 2.49356603188599468268 10.12276433787963547672 12.66583043987751722170 7.57969823588175550810 5.03663213388387465130 7.57969823588175550810 7.57969823588175550810 5.03663213388387465130 2.49356603188599468268 7.57969823588175550810 15.20889654187539719032 5.03663213388387465130 7.57969823588175550810 10.12276433787963547672 5.03663213388387465130 5.03663213388387465130 7.57969823588175550810 7.57969823588175550810 7.57969823588175550810 10.12276433787963547672 7.57969823588175550810 7.57969823588175550810 2.49356603188599468268 -0.04950007011188599371 -2.59256617210976614274 7.57969823588175550810 2.49356603188599468268 10.12276433787963547672 2.49356603188599468268 12.66583043987751722170 -0.04950007011188599371 2.49356603188599468268 -2.59256617210976614274 7.57969823588175550810 2.49356603188599468268 5.03663213388387465130 7.57969823588175550810 7.57969823588175550810 5.03663213388387465130 -0.04950007011188599371 7.57969823588175550810 7.57969823588175550810 7.57969823588175550810 2.49356603188599468268 5.03663213388387465130 -0.04950007011188599371 -2.59256617210976614274 -0.04950007011188599371 5.03663213388387465130 2.49356603188599468268 7.57969823588175550810 7.57969823588175550810 5.03663213388387465130 5.03663213388387465130 -2.59256617210976614274 5.03663213388387465130 2.49356603188599468268 5.03663213388387465130 2.49356603188599468268 7.57969823588175550810 2.49356603188599468268 -0.04950007011188599371 2.49356603188599468268 -0.04950007011188599371 5.03663213388387465130 5.03663213388387465130 2.49356603188599468268 10.12276433787963547672 5.03663213388387465130 2.49356603188599468268 -2.59256617210976614274 -2.59256617210976614274 5.03663213388387465130 -0.04950007011188599371 -0.04950007011188599371 2.49356603188599468268 2.49356603188599468268 -0.04950007011188599371 2.49356603188599468268 -5.13563227410764699954 2.49356603188599468268 2.49356603188599468268 5.03663213388387465130 -0.04950007011188599371 2.49356603188599468268 2.49356603188599468268 -5.13563227410764699954 5.03663213388387465130 5.03663213388387465130 2.49356603188599468268 2.49356603188599468268 -0.04950007011188599371 -0.04950007011188599371 -0.04950007011188599371 -0.04950007011188599371 -2.59256617210976614274 2.49356603188599468268 2.49356603188599468268 5.03663213388387465130 2.49356603188599468268 2.49356603188599468268 -0.04950007011188599371 -2.59256617210976614274 2.49356603188599468268 2.49356603188599468268 7.57969823588175550810 5.03663213388387465130 5.03663213388387465130 -2.59256617210976614274 -0.04950007011188599371 -0.04950007011188599371 2.49356603188599468268 2.49356603188599468268 7.57969823588175550810 -0.04950007011188599371 5.03663213388387465130 5.03663213388387465130 -2.59256617210976614274 2.49356603188599468268 7.57969823588175550810 5.03663213388387465130 7.57969823588175550810 2.49356603188599468268 5.03663213388387465130 2.49356603188599468268 -0.04950007011188599371 2.49356603188599468268 5.03663213388387465130 5.03663213388387465130 7.57969823588175550810 7.57969823588175550810 10.12276433787963547672 5.03663213388387465130 2.49356603188599468268 2.49356603188599468268 2.49356603188599468268 7.57969823588175550810 5.03663213388387465130 7.57969823588175550810 -0.04950007011188599371 2.49356603188599468268 2.49356603188599468268 -0.04950007011188599371 5.03663213388387465130 -0.04950007011188599371 5.03663213388387465130 2.49356603188599468268 7.57969823588175550810 2.49356603188599468268 2.49356603188599468268 -2.59256617210976614274 5.03663213388387465130 7.57969823588175550810 5.03663213388387465130 2.49356603188599468268 5.03663213388387465130 2.49356603188599468268 2.49356603188599468268 7.57969823588175550810 10.12276433787963547672 7.57969823588175550810 7.57969823588175550810 7.57969823588175550810 10.12276433787963547672 -2.59256617210976614274 2.49356603188599468268 5.03663213388387465130 7.57969823588175550810 2.49356603188599468268 7.57969823588175550810 7.57969823588175550810 7.57969823588175550810 5.03663213388387465130 2.49356603188599468268 10.12276433787963547672 12.66583043987751722170 7.57969823588175550810 10.12276433787963547672 5.03663213388387465130 2.49356603188599468268 10.12276433787963547672 10.12276433787963547672 10.12276433787963547672 12.66583043987751722170 5.03663213388387465130 15.20889654187539719032 7.57969823588175550810 7.57969823588175550810 7.57969823588175550810 5.03663213388387465130 7.57969823588175550810 5.03663213388387465130 5.03663213388387465130 7.57969823588175550810 10.12276433787963547672 5.03663213388387465130 10.12276433787963547672 5.03663213388387465130 5.03663213388387465130 5.03663213388387465130 10.12276433787963547672 10.12276433787963547672 7.57969823588175550810 10.12276433787963547672 5.03663213388387465130 2.49356603188599468268 5.03663213388387465130 2.49356603188599468268 5.03663213388387465130 10.12276433787963547672 10.12276433787963547672 10.12276433787963547672 7.57969823588175550810 2.49356603188599468268 2.49356603188599468268 -0.04950007011188599371 5.03663213388387465130 2.49356603188599468268 2.49356603188599468268 2.49356603188599468268 10.12276433787963547672 2.49356603188599468268 7.57969823588175550810 5.03663213388387465130 2.49356603188599468268 2.49356603188599468268 7.57969823588175550810 -0.04950007011188599371 2.49356603188599468268 -0.04950007011188599371 -0.04950007011188599371 5.03663213388387465130 7.57969823588175550810 2.49356603188599468268 7.57969823588175550810 5.03663213388387465130 5.03663213388387465130 2.49356603188599468268 -2.59256617210976614274 2.49356603188599468268 7.57969823588175550810 7.57969823588175550810 5.03663213388387465130 5.03663213388387465130 2.49356603188599468268 2.49356603188599468268 -2.59256617210976614274 2.49356603188599468268 10.12276433787963547672 5.03663213388387465130 5.03663213388387465130 5.03663213388387465130 2.49356603188599468268 2.49356603188599468268 -0.04950007011188599371 -0.04950007011188599371 