-0.931557 1.122404 -0.852386 1.201156 -0.102627 -0.063772 1.317724 -0.658104 1.394405 0.538528 -0.425662 -0.074228 0.645210 0.578929 1.970240 -0.722306 -0.280255 1.369323 -1.807639 -1.379316 0.223906 -0.177494 -0.947341 -0.660680 -1.759651 -0.510934 -0.378747 0.440039 -1.306981 -1.070823 0.041446 -1.336732 -3.208748 1.134564 -1.656173 0.046499 -1.393589 1.261831 0.410731 1.279444 1.268745 -1.067149 -0.883206 -1.325459 0.080155 1.237927 -0.857208 0.243139 1.236834 -2.350547 0.739724 0.422642 -0.015761 -0.262415 0.472936 -0.930663 1.675483 -0.014348 -1.293508 1.096816 0.010261 1.396841 -1.113026 -0.057701 0.129440 -0.684161 -1.927900 -0.153360 0.254033 -0.628440 1.013716 1.782893 -1.379584 -0.682977 0.371661 -0.650869 0.597008 -0.533774 1.749610 0.745468 0.973282 0.528190 -0.930714 0.723356 -1.125157 -1.257311 0.283252 -0.770440 -0.462425 -0.143934 -0.660488 3.316046 -0.424239 0.594992 1.333624 0.323406 1.160041 0.937881 -0.071591 -0.783186 1.521015 0.559698 1.083569 0.190727 -1.139135 0.724138 -0.137552 2.007339 -0.037255 1.396925 -0.093881 0.933431 0.978024 -1.396664 -1.232827 -0.369469 -2.113757 0.466991 0.182675 1.715934 0.136296 -1.609369 0.662448 0.472886 0.832360 -0.292325 -0.462152 -0.237532 0.740716 0.840252 -1.447867 -1.193810 1.240761 0.790092 -0.870981 0.876682 -1.411811 2.029989 -0.475163 0.434878 0.233761 0.813168 0.017036 0.185408 -2.789076 2.334290 0.074542 -0.646327 -2.694610 -0.565276 0.228746 0.127679 -1.459267 -0.359081 -1.136131 -0.586409 1.090746 0.032177 -0.123354 0.765288 0.785174 -1.384638 0.463231 -0.432677 -2.007487 -1.005643 -0.199090 1.847478 0.703421 -0.608360 0.005916 -0.534319 -0.328066 -0.474375 0.618899 -0.578805 -1.192915 0.138476 2.543075 0.576801 -0.103608 -1.420805 -0.360974 1.007745 -0.157470 1.139733 -0.647126 0.435287 0.046239 -0.518657 -0.438859 -0.626141 -0.045869 -0.140414 -0.171426 -0.668574 -1.850501 -0.554861 1.674510 1.038361 -0.733603 1.068503 0.369744 -0.177653 2.230331 0.144554 -0.090734 -1.577827 -0.420445 -0.374248 -0.523471 0.221912 -2.096219 -1.618720 0.400461 -1.251757 -0.297202 -0.378461 0.397923 -0.330683 -0.087015 -0.617147 0.955771 0.619063 1.237987 0.197360 1.040604 0.234408 0.373530 -1.919725 -0.130585 -0.459529 0.867307 0.529119 0.558923 -0.765454 0.559435 -2.369194 1.064927 -0.407632 0.081578 -0.079373 -2.089392 0.127002 1.760449 1.993400 2.363987 -1.851293 0.454783 0.530496 1.820234 -0.993363 1.123296 0.013930 -0.535753 1.320590 -0.243001 0.401575 -0.421255 -0.412227 -0.274802 -0.384313 -1.033089 -1.548068 -2.782002 0.027847 1.223209 0.092990 -0.548361 1.377130 -0.082687 -0.498406 0.377870 -0.714417 -0.217140 -1.810766 -0.670209 -0.542106 0.262399 1.052453 -2.065275 1.469680 0.505890 0.383437 -0.346158 -0.345078 -1.067882 -0.148617 0.478362 -1.169992 -0.349271 0.600228 1.269425 0.385659 -1.048735 0.041646 -0.036003 -0.174385 -1.746500 -0.859294 -0.829191 0.042424 0.074422 0.863112 0.714974 -1.435512 -0.160814 -0.853296 -0.969180 0.416819 0.005665 -0.059057 -1.340699 -0.749494 0.334759 -0.665343 1.507781 0.942479 -0.783862 0.442030 -0.151627 1.458951 1.000454 0.599643 0.450728 1.107993 1.052471 1.004064 0.041878 -0.681015 -1.392199 1.004263 -0.233042 -1.091533 0.619611 0.588903 -0.087124 0.178253 0.933273 1.402919 0.252924 1.801434 0.737242 -0.084205 0.133708 0.876449 -0.226197 1.153918 0.798312 1.447452 1.288240 -0.130078 -0.591006 -0.427915 0.167902 -0.167888 0.286496 0.191045 -0.410763 1.519641 -0.006245 0.105380 -2.161487 0.379721 0.782166 0.385688 3.278581 1.330178 -0.722936 -0.616513 1.146811 0.627452 0.657363 -1.298740 -0.272432 -0.803032 -0.972414 0.106795 -0.105837 1.883087 0.745329 0.051874 -0.271970 0.020552 0.828405 -0.263663 0.982939 -0.115155 -1.542283 0.597674 -0.897073 -0.722779 -1.425795 -0.577674 -1.321737 -1.129442 1.388135 0.397765 1.161103 0.548873 0.688324 4.451652 -0.964502 -1.347662 0.440383 0.785555 -1.783687 -0.039871 -1.661197 -1.298142 1.231610 1.938065 -0.023123 -1.308576 1.511674 -0.117616 0.544320 -0.410168 0.195753 0.016565 -0.574539 0.473549 -1.060260 -0.922102 0.816949 -0.283305 1.239199 0.255184 0.402830 -0.888730 -1.288651 1.197648 0.606802 0.181256 2.436791 0.566342 -0.543598 0.004501 -0.651695 -1.544211 -2.442615 1.397006 -0.739754 -0.546982 -0.690487 -0.878874 0.976028 0.019337 -2.423122 0.156531 -0.200633 -0.090635 0.009723 -0.608919 -0.351315 -0.949430 -0.709458 0.049616 -0.322138 0.426294 -1.820622 0.991779 0.151532 0.150462 -1.342639 -0.359735 1.034360 -0.765004 0.112076 0.194736 -1.394025 -0.152880 0.603281 1.820537 -0.951484 0.098978 0.314133 1.041465 0.843287 -1.561069 -1.334427 -2.626202 0.714539 -0.417377 0.856662 2.171691 0.529578 0.263220 -1.459294 -1.132213 0.246067 0.168108 0.438807 -0.544852 -0.103959 -1.718919 0.493576 0.327424 2.072778 1.252829 0.291770 0.582084 0.926986 -0.563901 -0.414907 -0.005887 -0.394636 -0.602590 1.057488 0.219366 -0.321828 -0.710231 -1.157581 -0.336974 0.890166 0.388737 -1.254269 0.686727 0.111170 1.055587 0.142907 -0.701473 -0.702548 0.816356 1.282587 1.005644 -0.658295 0.548086 -0.890459 0.882251 1.234362 -1.557720 -0.591894 0.338329 -0.430098 -0.226167 -0.979934 -0.042520 1.321674 1.024123 -0.517378 -1.018801 1.575668 -2.470623 0.213606 -0.104532 0.336875 -1.297718 0.716333 0.728600 0.713095 -0.888896 -0.474942 0.863838 1.286670 -0.602287 -0.355985 -0.256366 2.158019 -2.001510 -2.969374 1.974676 -1.077961 1.271276 -0.410022 0.525615 -0.066136 -0.534797 0.518869 0.897507 -0.495320 -0.290117 -1.026442 0.108316 -0.684594 0.947435 0.627621 -1.051675 0.801170 0.038409 0.071051 0.076232 -1.552053 -0.532150 -0.594029 -0.578713 0.982313 1.406866 -0.198176 0.178343 -1.081934 -0.001849 -1.016760 -0.394088 -2.157032 -0.389713 0.428985 -1.728301 -1.190893 -0.065016 1.281843 0.924814 -0.798262 0.293868 1.045351 0.931101 -1.390102 -0.454462 -0.587114 1.562184 -0.376149 0.509157 -1.042850 -1.344754 -0.178753 1.245434 -0.196213 0.447699 -0.384590 0.034080 0.206357 0.267619 -1.433536 -1.342002 -0.547079 -0.584655 0.865671 1.433580 -0.225433 0.186972 0.459384 -1.024650 0.501072 1.500277 -1.369233 2.617235 -0.024749 0.355501 -1.694165 0.983537 -0.979736 -0.411003 0.108850 -0.701188 0.890175 -0.408721 1.355029 0.465814 1.783808 -1.508329 0.313551 0.145257 -0.725820 -0.745164 -0.619266 -0.669495 1.007720 0.760045 -0.682437 -1.191115 -0.778055 -0.656873 0.711592 -1.999181 0.533863 2.619230 1.528469 -0.587755 -0.792464 -0.524536 0.138202 1.124705 0.491780 -0.636812 -0.978618 -0.997140 -0.521441 -1.349762 -1.473698 -1.587475 -0.024399 -0.035480 0.163659 -1.082428 0.174476 0.202692 -1.399594 0.180380 0.595405 0.252175 -0.427956 -0.859800 -0.491077 1.050040 0.664138 -1.104587 -0.983764 -0.739133 1.684171 0.514901 0.372923 0.330074 -0.361864 0.668938 -1.672538 0.715525 0.230652 -0.070226 0.779553 -0.000325 -0.546319 0.519928 0.344374 0.173343 0.614824 1.934764 -0.664013 -1.024123 0.907706 1.373543 0.111790 0.015719 1.473420 0.451236 1.309963 1.291026 1.031990 0.782576 -0.059880 0.739756 -1.023375 -0.935962 -0.815235 0.651346 0.383250 -0.402483 -0.122091 -1.344974 1.298900 0.995583 -0.895982 -1.497255 -1.186382 -0.176559 -0.960266 -1.665915 -0.673819 0.795531 -0.021062 0.225484 -0.401723 -2.438079 0.368817 0.094855 -1.762305 0.623726 -0.353613 -0.070565 0.215148 -0.395315 -0.264597 1.089021 0.730230 0.533263 -0.353046 0.700115 -0.087952 -1.521020 0.216979 -0.137447 0.361429 1.757064 -1.503726 -0.108935 0.106558 -2.123983 -0.330510 0.017287 -1.827502 -0.755998 -0.523687 -0.939666 0.049590 0.058230 0.024920 -0.853919 0.850734 -0.790689 -0.649289 -0.520468 -0.500310 -1.310562 -1.110388 0.490206 -0.470987 0.347356 1.187097 -0.471721 -0.930961 -2.133683 0.417773 -0.103945 1.764569 -1.688945 1.121760 -0.292242 -0.618803 -0.457265 0.114102 1.065452 -0.102088 0.672956 -2.124216 -0.011664 0.102486 -0.144797 0.298479 0.736319 -0.938010 0.329931 0.431811 0.458445 2.416447 0.305987 0.287394 1.097494 -0.530474 0.432822 1.659180 1.082272 -0.706125 0.288871 0.434765 -0.385915 -1.098755 2.764948 0.354937 1.054749 0.373570 -0.129247 1.531636 0.463846 -1.265534 0.318882 -0.065056 0.752549 0.602431 -0.123933 -1.414442 1.238579 0.965726 -0.100426 -3.958509 -0.076003 0.498881 0.236940 -0.608305 -1.155545 -1.574925 -0.217945 0.577326 -1.232697 0.155176 -0.643643 0.406197 -0.236390 -0.820746 -0.652228 -1.398974 0.977528 1.345049 0.158761 -0.376361 0.748432 1.587220 -0.933913 -2.304423 -1.285283 -1.470672 0.037211 0.577998 -0.332931 -0.759698 -0.143909 -1.256675 -1.039198 1.005955 1.069522 -1.642964 0.431221 -0.844674 -0.424539 1.181356 -1.519860 0.775426 -1.112404 -0.064468 1.597417 1.211363 0.372877 -0.290265 0.616003 2.047280 0.618747 1.229577 1.652527 -0.848277 -0.366576 -0.194758 -0.375001 0.835006 -0.380457 1.212719 1.083555 -1.060295 -1.159854 0.592277 0.163593 -0.961960 -0.257621 2.012905 -1.344116 -0.631407 2.787488 -0.167788 0.551616 0.465861 1.830145 0.663007 -1.588794 -0.983376 -0.937048 1.168799 0.736702 0.373563 -0.298757 1.624506 0.198938 0.408903 0.936559 -1.760200 -0.840307 -0.005055 0.578562 0.407403 0.392178 -0.875409 -0.438597 1.234086 -0.604394 -0.733608 -0.738007 0.093361 -1.384703 1.249099 0.248626 0.209525 -0.472382 0.592668 -0.302083 -1.027258 1.317506 2.398307 0.270690 0.564269 0.769558 -0.657028 1.766164 1.200445 1.418725 -1.267144 -0.759406 -1.075490 -1.625170 -0.772026 -1.723846 0.489777 0.352830 0.497543 0.877733 0.289486 0.500880 -0.315116 -0.463176 -1.378584 -1.424017 0.987410 -0.075816 -0.692596 -0.259978 1.492657 0.540173 0.471936 1.865444 0.646841 0.560328 -0.062281 0.024683 1.426097 -1.306383 0.458227 1.013469 -0.752045 1.115256 0.232915 1.019807 -0.637365 -1.967435 0.745637 -0.480097 0.191900 1.638794 -0.219002 0.198184 -0.260387 0.746859 -1.012470 1.143328 -1.539607 0.187944 -0.583755 -0.274326 -1.655065 -0.505161 0.194965 -1.443494 0.973734 0.845625 -0.053559 1.034777 -0.471948 1.275591 0.152510 0.004081 0.694508 0.381761 2.635906 -1.511761 -0.965288 -0.597641 -2.186204 -0.460690 -0.793746 -0.962999 -0.726985 -0.369286 -0.599854 -0.361499 0.455789 -1.239348 0.338723 0.192511 0.137382 0.207655 -0.452147 -0.985276 -2.278253 0.283483 -3.062235 0.990424 1.332615 -0.409721 -0.672544 -0.825222 0.275184 0.099966 1.891697 -0.980971 -0.191343 -0.614186 -0.189482 -0.871605 0.635690 -0.585214 -1.342137 0.411458 0.462809 0.365700 0.427751 -0.345121 -0.949966 -0.064278 1.328242 0.066190 -0.070305 2.325281 -0.993618 -0.494432 0.478988 -0.581369 1.479837 0.161776 -0.601679 -0.308241 0.652363 -1.526476 0.185183 -0.875516 0.603326 -1.201416 1.432271 -0.276152 0.685821 -1.562528 -0.347476 0.234383 -0.788825 -0.116791 -0.130501 0.597564 -0.020623 0.144693 -0.469361 -1.214252 -0.343302 1.014836 -0.230458 1.305267 0.414612 -1.582879 -0.964612 -0.777167 2.767069 0.180597 -2.988479 0.190546 -1.202772 -0.035617 -1.609412 0.592447 0.150726 -0.713381 1.316770 0.526910 0.449337 -0.933181 -0.794685 -2.284512 0.794878 0.288794 0.056191 0.861915 0.305841 -0.866398 -1.139954 0.436107 -0.080546 -1.340995 0.328513 -0.484136 -0.195005 -0.612894 1.126219 0.763142 0.443787 -0.367890 -0.215322 2.056778 0.142009 0.115403 0.121647 0.026672 -1.438712 1.073094 0.642295 1.080788 0.114762 1.158965 -1.131655 -0.727349 -1.408104 -1.424480 1.344336 0.751623 -1.649710 0.628682 0.834766 -0.537335 0.329065 -1.470973 1.509481 0.877596 0.013915 0.289037 0.378549 -0.229184 -0.828184 2.859971 1.203201 0.768434 0.930233 1.094913 -0.373581 0.567602 -0.495114 -0.747632 -0.236560 -0.232836 -0.177719 -0.000219 0.928162 0.162434 0.192433 -0.524734 1.025054 0.672183 0.488656 -1.069060 0.019346 -1.448896 -0.379747 0.250699 -0.036773 -0.159616 0.793713 0.857196 0.211995 -0.448168 0.471631 1.667811 -1.118851 0.617942 0.492059 -1.065086 -0.660719 0.257306 0.779211 0.443876 1.104188 1.110885 0.299363 -0.191286 1.513735 -1.230777 1.087632 1.403488 0.283722 0.391964 1.354477 0.544309 -0.172915 -0.927913 -0.057135 -0.407032 -1.225597 1.263518 -1.281272 -0.080810 -1.301835 -1.677421 0.848506 0.365428 -0.620312 0.346757 -0.360264 0.089687 -0.563794 -1.179168 1.103884 2.027875 -1.422333 -0.094839 0.135056 0.269393 -0.528341 -0.546440 0.067366 0.574497 -0.238911 -0.650784 -1.197449 0.623504 -1.093154 1.270526 0.060385 0.026054 0.231552 0.447331 0.471766 -0.381129 0.305034 -2.072431 -0.305696 -0.309283 1.103595 0.080460 0.210960 -0.329607 0.743534 -0.880518 0.040863 1.198383 1.496539 -1.075008 0.234372 -1.109487 0.724286 -1.840053 -0.892569 1.187934 -0.035382 0.877688 -0.422205 0.655821 0.015175 -1.533569 -1.291456 0.050613 0.376090 0.248491 0.312652 -0.882402 0.365084 -0.266965 1.202123 -0.124744 1.164798 0.190207 -2.607905 1.192615 0.169984 -0.110895 0.550030 -0.457493 0.533855 1.315575 0.482338 0.537273 -0.435305 1.236105 0.149289 -0.714095 -1.310045 -0.377915 -1.147029 0.536636 -0.465854 -0.365065 -0.207576 0.808893 1.497446 0.482119 -0.331313 -0.889490 0.751113 -0.238326 1.124183 1.492440 -1.038907 0.987106 -0.434226 1.232953 -1.387559 -0.576977 1.636281 -0.407213 -0.204049 -1.380842 0.448024 -0.322338 0.340223 -1.294816 1.062504 0.040679 0.275228 0.360569 -0.344726 0.446287 -0.372832 -1.159217 0.519904 -0.574772 -1.161142 2.117582 -1.326041 -0.873049 -1.337414 -1.082183 1.196418 0.615797 0.437882 -0.211496 -1.396851 0.107457 0.741900 -0.467738 -0.682051 -0.742048 -0.497484 1.241697 -1.914981 -0.662330 0.870546 -0.955549 -0.000741 1.432255 1.835809 0.128856 -1.090739 -0.531552 -0.585833 -0.792731 0.540844 -0.726384 -1.362492 -0.037958 0.272748 0.324208 -1.294750 1.876195 -0.909573 0.011001 -0.619253 0.255759 -1.374434 0.388595 -1.314992 0.390629 0.132811 2.480747 -0.248564 -0.648909 1.177328 0.227473 -2.249773 0.343543 -0.164094 3.410008 -1.057515 -0.355951 0.063356 -0.611456 0.242440 -1.622529 -1.074640 -1.059752 0.534572 -0.044117 0.058352 0.222483 -1.148196 1.369885 0.985928 -0.950540 -0.016436 -0.791139 -0.542764 -0.460631 0.234936 -1.447316 0.215931 0.223126 1.011501 0.088591 -0.517742 -0.327427 -1.028825 1.263871 0.780918 -0.358323 -0.895422 0.231868 0.335189 0.252075 -0.699439 -1.433035 0.193821 1.610106 1.245929 -1.155152 -1.448157 -0.955792 -0.088311 1.102264 0.454346 0.157339 0.370392 -0.726184 0.562527 -1.121300 1.787207 1.746219 0.447325 -0.131522 -0.476014 -1.606781 0.999669 0.329486 -1.632616 0.671769 1.350997 1.357196 -0.037384 0.265116 -0.452873 -1.309875 -0.508876 0.705722 0.864028 -0.764214 2.759243 -0.413689 -0.732484 -1.158159 0.316632 -1.026710 0.271729 0.030436 -0.574274 -2.445095 0.034189 0.677599 -0.502892 0.069268 -0.004659 0.026315 0.292649 0.430769 -0.354532 -0.443797 -0.458307 -1.215680 1.104465 0.738170 0.600241 -1.554295 0.530226 -0.993131 1.337992 0.032656 0.572067 0.365424 2.029269 -0.379032 0.752905 -0.209212 -0.229306 -0.471239 -0.540744 0.837958 0.602154 -0.917595 1.126973 0.220219 -0.474694 -1.891837 0.570313 -0.614094 -0.704508 0.198636 -1.252789 -0.152678 0.062547 0.789541 1.298672 0.898104 -0.593976 0.485971 0.455581 -1.878236 0.559043 0.143882 0.625201 1.265426 0.469095 -0.021836 -1.272149 0.568120 0.239164 1.198124 2.990206 -0.573428 0.772310 1.128691 -0.400659 0.375660 2.841144 -0.373443 -0.320451 -0.761186 1.242524 -0.528030 -0.443942 -1.228533 -0.468388 1.704500 -0.029525 0.834010 -2.077658 0.061714 0.163467 2.127927 -0.079497 0.602806 0.640264 1.678656 0.806792 0.091657 -0.836652 -0.779921 1.370463 -0.550028 -1.287613 -0.903429 0.879152 -2.166202 -0.894876 -0.105047 -1.817932 0.696435 0.620834 1.280996 1.228791 -0.216960 0.251602 1.683127 -0.338529 0.348220 -1.480939 -1.191583 0.534740 0.376619 0.305386 -0.468087 1.246972 0.485842 -0.255971 0.645137 0.365337 0.891937 -0.017943 0.789229 -0.031385 0.031160 -0.591247 0.988677 -0.144250 -0.908114 -1.447357 1.135884 0.054081 -0.653917 0.285036 -0.468455 -0.333105 -0.143144 -0.918947 -0.099376 1.232350 -0.471491 0.519476 -1.693107 0.326776 -1.269185 1.067322 -1.617003 0.067118 0.060377 -1.246448 -0.113462 -0.744854 -0.766048 -0.654954 0.753541 -0.141213 -0.120902 0.857339 -0.619127 0.330749 -1.209258 -1.105853 0.398468 -1.453790 -0.434981 0.385917 0.337784 -0.253313 -0.067742 -1.427848 -1.203139 1.051672 -1.644231 -0.012508 -2.275774 -0.187836 -0.799054 -0.674712 0.882091 0.517415 0.384876 0.616199 -0.883977 0.256907 2.268903 0.857839 -0.177798 -0.847516 0.234490 0.228942 0.833623 1.240829 0.052818 -0.613893 0.577345 -0.941526 -0.069811 -0.324376 -1.243787 0.371104 -0.490703 -1.011317 1.567994 -1.014988 2.305185 0.285378 -0.445336 -0.956820 -1.554554 0.899147 1.127496 0.570499 0.610985 -1.566433 1.509796 0.567060 0.314181 0.754786 -1.181436 0.602154 -0.171965 -0.823927 0.896210 -0.251433 -0.909988 1.541912 -0.334801 -0.151633 0.648545 -0.177771 0.620102 0.416007 -0.394102 2.684614 -0.195344 -0.658244 -1.140517 0.533996 -1.237931 -0.478804 -0.584777 -0.559029 1.055809 -1.104586 1.542734 -0.957082 -2.242697 -1.718741 1.296643 -0.121952 -0.256585 -0.864810 -1.059306 0.851383 0.838994 0.498515 0.921031 1.365388 0.594840 -0.011184 -1.327867 -1.104982 0.281551 -0.896815 -1.733925 0.025637 0.824280 0.155990 -1.081697 1.565090 -1.093080 1.298011 0.207980 -0.706741 2.378054 -1.048071 0.141990 -0.522049 0.167047 0.833618 0.403862 -0.415121 -0.228421 0.616534 -0.781607 -0.697195 -1.413729 -1.359116 0.974700 -0.870316 0.097451 -0.546346 0.496578 0.606546 1.233359 1.673388 0.530364 0.487882 1.383001 -1.134383 0.628585 -1.211074 -0.418763 -1.286192 1.099116 1.586130 0.606906 -2.194191 0.184200 0.088566 -0.080909 1.061550 -0.176879 1.302057 -0.870480 0.497737 -0.145909 -1.826702 -0.893941 0.441256 -0.753793 -0.573720 -1.089729 0.192255 -1.259016 -0.178026 -0.282616 1.739413 0.506229 -0.874780 0.334446 1.188014 0.913964 -1.531864 -0.627169 -1.419038 0.925845 -0.079621 -0.846022 1.590279 -2.339493 -0.809320 1.690385 0.969436 1.364103 0.315509 -0.932537 0.339608 -0.448000 0.357046 0.561209 -0.645846 -0.446295 0.569197 -0.093931 0.064310 -1.499935 1.740662 0.407205 -0.471308 1.264410 1.815348 -0.670956 1.250463 -0.498366 1.783964 -1.827826 -1.421161 0.258607 -0.049083 -0.836956 -1.275894 -1.056002 0.015519 0.670593 0.596860 1.137481 -1.268926 0.806754 0.793768 -0.178947 -0.282768 -0.400402 -1.923563 -0.016257 -1.619297 0.180857 0.700865 -0.913309 0.984636 0.187007 0.286960 0.349251 0.152247 -0.668611 0.812173 2.794932 -0.739059 1.076942 0.373981 -1.082190 -0.068432 0.454075 0.755148 0.366729 1.860640 -3.352336 0.638684 0.596872 0.240594 1.366374 0.151721 -0.516570 0.724146 -0.711581 1.883696 -0.402624 1.074856 0.823102 -0.779266 -2.583484 -1.180343 1.037124 1.218174 0.649896 0.726234 -0.563071 1.633319 2.349910 1.787747 -1.085188 -0.952181 0.012156 0.694213 -1.087524 -0.924489 -1.601385 0.302941 1.064645 0.907202 -0.012809 -0.570470 0.547363 0.585440 0.337234 -1.382418 -1.252441 -1.025241 -0.840614 1.511929 0.334757 0.328753 -0.151436 -1.281732 -0.058809 -0.991313 -0.395231 -0.654536 -0.728405 0.340987 1.226173 -1.762501 -0.372495 0.409580 -0.587758 0.821815 -0.992262 0.711095 1.436606 -1.656240 1.263075 -0.603835 0.151039 1.553148 -1.958498 0.057332 1.527511 1.225067 -1.061815 -0.057416 0.804086 -0.204757 -0.212628 -0.168900 1.872316 -0.022165 0.243482 -0.288258 -1.716417 0.865366 0.486858 1.595285 -0.310672 -1.568431 0.707621 -1.576072 -1.312249 -0.588206 -1.743978 0.706097 0.532386 0.701828 -0.563467 -0.159654 -0.638574 -1.426352 1.498197 -1.467495 0.861053 0.091926 -1.139585 0.217809 -0.524857 0.950031 -0.237896 -0.444270 0.521445 1.148232 -1.117377 -1.423854 0.303689 0.041538 1.260169 0.178287 0.944024 -0.506410 -1.558120 1.223719 -0.082723 0.278317 -0.687135 0.169067 -1.155767 -0.735582 -0.493460 -0.563120 -0.764287 0.070545 -0.024146 -0.640170 2.634757 1.496641 1.324724 -0.221079 -0.019215 0.714973 -0.402334 -2.822128 2.026061 -1.760436 -1.248218 1.434011 -0.302819 -0.150088 0.016369 2.287199 -0.460418 -0.451356 -0.863357 0.696885 0.351202 -0.484970 1.776585 -0.839828 1.745060 0.198447 0.206446 -0.568671 -0.597870 -1.361756 1.745480 -1.910915 0.116382 0.100298 -0.459491 -0.986138 0.011773 1.323829 -0.588098 0.970219 1.750880 -2.309765 1.467122 0.436213 1.669316 -0.336678 0.459656 -0.236930 -0.871011 -0.611840 -1.261548 2.311733 -0.575354 1.820356 -0.473698 -0.064297 1.003000 -0.711163 -1.535027 -2.238579 0.043920 -0.073907 -0.200965 0.098634 0.298293 1.273487 -0.202927 -0.115658 1.263559 -0.037726 -0.792409 -1.340761 -1.823372 -0.765053 -0.047504 2.037743 -1.494710 0.537663 0.085169 0.322193 -0.431865 0.979862 -0.308167 -1.111141 -0.859978 -1.263073 -0.387075 -0.368538 -1.183871 -0.976666 0.673897 -0.875263 -1.321277 -0.263810 -0.285962 -1.110759 0.566451 -1.133579 1.329215 2.576711 -1.482960 0.594947 0.544614 -1.120331 -0.986682 -1.130472 0.302275 0.701100 0.622706 1.620840 0.738128 -1.274683 -0.012573 1.243542 1.276366 -0.088931 0.674102 -2.230782 -0.700500 -0.434345 -0.587304 -0.946030 1.173723 -2.097402 0.156170 0.352486 1.205391 0.124610 -0.648679 1.688976 0.525915 -0.339965 0.684766 1.152339 -2.064837 -0.074447 -0.145968 -0.346468 0.272566 -0.501064 1.160466 0.276753 -0.326751 -1.519230 0.888100 0.484008 0.182680 0.065530 0.156076 -0.488229 -0.870548 -2.164043 1.057089 -0.396587 -0.467588 -1.061895 -0.669779 -0.343290 -0.908032 -0.069944 0.466790 0.836124 0.056679 0.260042 -1.054416 0.013330 0.651331 -1.227591 0.267774 0.068578 0.823156 -0.625459 -0.304842 -0.888836 -0.832476 -0.117055 -0.316974 0.225176 -2.029086 0.807425 0.059013 -1.435763 0.369368 0.107032 0.657060 -0.211191 0.643062 -0.827698 0.091668 0.127589 -0.770259 0.634050 0.382875 0.270293 1.125218 0.258722 -1.088148 -0.836338 -0.798935 1.301238 -0.107279 -0.894497 -0.551536 -0.234557 -0.748224 0.890336 1.160334 0.715594 0.588907 0.041594 0.276695 -0.464281 1.002326 -0.226454 -1.204043 0.491299 -1.092531 0.702472 -0.136210 1.359303 -0.398782 1.967765 0.931141 -0.649175 0.288018 0.994426 -0.939475 -0.048222 1.266628 -0.531804 1.099801 -0.399568 -0.170967 0.601781 -1.838333 -1.513759 -2.204101 -0.548223 0.136348 0.673482 -1.530083 0.590240 0.733739 0.057673 -0.014531 -0.183144 1.075180 -0.722836 0.985777 0.158178 0.112400 -1.269882 -0.210661 -2.591283 -0.784954 -1.710722 -0.045189 0.521735 1.300385 -0.178014 -1.177272 -0.711742 1.657298 0.831616 -0.381978 -1.192418 -0.061557 -0.609800 -1.824009 -0.829771 1.178951 -0.923345 0.103211 0.275637 1.144947 -0.423316 0.587438 -0.348948 0.224225 0.710992 0.535012 1.858777 -0.640623 0.475600 -0.909547 -0.071238 -0.270826 1.660607 -1.162262 0.673121 -0.032009 -0.463194 -1.053837 -0.145273 -0.474399 0.854046 1.987600 2.512353 0.776966 0.454335 1.483419 -1.066001 1.837979 -0.517256 0.688468 -0.258375 -0.727221 -1.732862 -0.518776 1.610209 0.277786 2.207377 -1.012521 -1.203319 3.196779 0.282688 -0.634558 0.037143 -0.947687 0.775479 -1.663703 1.037677 -0.058932 -0.126453 0.944343 0.812214 -0.081057 0.818191 -0.865556 0.874485 -1.000787 -0.814492 0.748161 -0.277712 0.570843 1.328310 -1.085331 -0.590074 0.296606 0.154610 0.631672 -0.427402 0.472614 -0.256621 0.004416 -2.048408 -1.726050 0.587402 0.868338 0.501623 0.576696 -0.705392 -0.079416 0.147297 0.013727 -1.162572 0.927911 -3.120688 -0.087117 0.762494 -1.605430 -0.489413 -1.140086 1.989346 0.771341 -0.870187 0.384018 -0.458771 0.474761 -0.348904 0.192067 1.461371 1.032590 0.367858 -0.126224 0.779817 0.654826 0.362344 -1.351905 0.239406 -1.425645 -1.081706 -1.596105 1.591772 -0.431290 -0.259269 -2.239025 1.408183 -0.470542 0.380263 -0.591856 0.936301 -0.816987 -0.366269 -0.239530 0.510499 0.887735 1.491679 -0.297813 0.003140 0.147914 -0.517156 -1.310507 0.179537 1.283348 1.616197 -1.513493 0.756209 -0.655584 1.044484 -0.810325 -0.943119 1.150939 -2.188659 -0.067717 0.893544 -0.157511 0.002302 0.013391 -1.412508 0.333669 0.096720 1.539005 1.789647 0.068345 -0.304939 0.047378 0.065805 -0.883313 -1.122952 1.033029 -0.887074 0.204322 -1.753026 -0.455912 -0.368351 -0.452885 1.650603 -0.392488 1.220256 2.089100 1.911396 1.115455 0.247820 -1.285207 1.801430 -1.218220 -0.403298 -1.284256 -0.279371 -0.105638 -0.688591 -1.236816 0.503051 0.199797 1.000635 1.515720 -0.144163 -0.633930 0.472210 2.576621 -0.421053 1.754959 -0.069608 -0.648053 0.466946 -1.798973 0.613396 0.134408 -0.139997 0.783049 -0.036146 1.823375 0.173492 -0.501022 -0.324543 0.206493 0.720232 -0.325689 1.213168 -0.371015 -0.074649 0.234578 -0.571493 -1.360800 1.689067 -0.388016 -0.265977 -0.070416 -0.543046 0.428837 -0.402103 1.818636 0.539749 -0.360503 -1.435322 0.503277 -1.153194 -0.314104 0.214102 -0.000493 -0.765177 -1.030098 -0.606549 -1.193775 0.339441 -0.650080 0.769695 -0.869394 -0.452921 -0.857241 0.136062 1.454793 -1.262526 -0.341743 0.563567 -0.298361 -0.805863 -0.646799 0.117747 -0.837291 0.752255 -1.589066 -0.531054 -0.369189 0.479152 0.317108 1.672035 0.589148 0.708601 0.770426 -0.657993 0.138730 -1.584667 0.677320 -0.487664 -0.531526 -1.016291 1.580422 -0.133388 0.058046 -1.438899 0.345076 0.776004 -0.952154 0.688391 -0.205106 0.610927 1.480255 -1.004184 -1.444565 -0.510817 0.884586 1.234193 -0.714693 0.350408 -0.247039 0.072475 0.968657 -0.192472 1.822598 -0.173500 0.760223 0.860931 -2.210837 0.601034 0.268016 0.642812 -0.360428 -1.063337 0.161694 0.229812 -0.493227 1.112526 0.602391 1.250644 -0.349668 -0.759358 0.260044 0.074869 -0.862063 -0.110283 1.189352 -0.517319 -0.181999 0.136533 -0.585134 -0.524381 -1.275299 -0.462759 -0.613300 -1.328316 -0.925454 0.780228 0.635308 0.615958 1.362107 0.488197 1.269463 -1.099169 0.642791 1.037145 -2.429282 -1.204678 0.431246 1.650368 -1.639170 -1.117153 0.073404 0.727392 1.306836 1.788152 -0.940616 0.943842 -1.229838 1.470044 -1.342424 0.125269 0.620864 -1.811576 -0.522083 1.257485 1.625496 0.659996 0.579901 0.729469 -0.096142 2.251751 0.240344 -2.244645 -1.077127 0.547822 -1.208361 1.900796 0.668662 -0.790125 -0.270007 0.170241 0.134110 -0.196991 0.289099 0.862532 0.631120 0.106481 0.407905 0.438551 -0.402265 0.316392 -0.699818 0.017806 -0.036127 0.040539 -0.581383 0.383809 1.829328 0.719687 0.629403 0.673020 2.109062 0.284395 1.067255 -0.636021 1.644652 -0.282914 0.566441 -0.318085 1.247288 1.001666 -0.504356 -1.041958 0.013480 2.053606 0.074686 0.763561 0.751687 0.774614 0.937298 0.193221 0.093428 -1.585644 2.314611 -0.479575 -1.154242 0.741555 1.428318 -2.466864 1.980539 1.456471 -0.393193 0.478763 0.665534 -0.921654 0.052945 0.013473 2.175234 2.178570 -0.268010 -0.486777 0.666866 -0.119594 -0.200707 -1.270864 -0.553066 0.138346 0.247544 -0.989578 0.910195 -0.679262 -1.142362 -0.918728 -0.158970 0.345734 1.671671 -1.523017 -0.075897 -1.318468 -0.124662 -1.766125 -0.258360 -0.571674 -0.558134 -0.286039 0.892040 0.839484 2.383729 -1.751916 -1.182820 -0.292499 0.272864 -0.096757 -0.273679 -2.462447 -0.940410 0.900740 0.047487 -0.904430 -0.800320 -0.620945 0.346355 1.791986 -0.804307 -1.364232 0.527275 0.477498 1.049096 0.711001 0.534604 0.558083 -0.807387 0.351672 -1.353507 0.114986 2.817168 -0.187213 -0.659459 -0.869754 -0.438850 -1.809014 -0.270047 0.813881 -1.272359 -0.931287 -0.272545 0.759067 0.712788 -0.193127 -1.670053 0.775502 -0.250987 2.038996 0.051074 -1.330544 1.406580 -0.247629 2.048817 0.007400 0.570225 -0.922871 -0.639727 0.357010 0.124673 -0.190238 -0.890589 0.751615 0.764979 -0.794485 1.782597 -0.861830 -1.412498 -2.571238 0.019907 1.880005 0.413736 -1.026326 0.357941 0.584371 2.295628 -0.472805 0.210400 -0.850543 -0.730877 0.971425 -2.297795 0.295418 -0.562001 -0.463746 -0.205330 1.282910 -0.455853 1.976518 0.153087 -1.123222 1.336879 -2.692498 -0.782563 -0.148069 1.006924 -0.000631 0.120286 1.257448 -0.914530 -1.319041 0.505797 0.608650 0.855785 0.575078 -0.789713 -0.262384 0.805475 -0.039599 -0.271516 -0.537022 -2.804935 2.246655 1.716980 -0.053205 -0.539533 -0.155998 0.051007 -0.024112 -1.039478 -1.116574 -0.498268 -1.040392 -1.408094 0.417318 1.003458 -0.687324 -0.397181 2.029289 0.841383 0.743842 -0.006666 -0.713005 0.115420 0.741011 -0.310552 1.062826 0.768681 -2.110282 -0.640555 -0.469848 -0.622765 -0.087336 0.427909 1.065389 1.774130 -0.379473 0.180917 -1.298799 0.311782 -0.158066 -0.562848 3.060167 0.982399 -0.237429 -0.256098 0.769901 -0.236222 0.887508 -0.452248 -0.588829 -1.944619 -0.419342 -0.982867 -0.156172 -1.100732 0.517819 1.077858 1.046694 1.100081 0.451109 1.258612 -0.410770 -1.922275 0.516386 -1.517658 -0.678937 -0.597047 0.290804 -0.355337 -0.069948 0.901217 -0.753184 -1.426263 -1.113341 1.089814 -1.609043 0.897549 -0.720560 1.060287 -1.195413 -0.715379 0.109278 -1.659950 -0.083015 -0.160120 -0.323235 0.664399 -0.835585 -1.117785 -0.114312 -0.264441 0.346432 0.008104 -0.006497 0.136681 -0.436543 -0.889191 -0.016518 -0.282331 0.296896 2.312132 -1.107698 2.403325 -0.054407 0.189298 -1.297445 0.220407 -0.948013 0.410596 0.870077 0.115419 -0.486208 -1.404810 -1.005646 -0.954823 -0.497871 0.706377 1.779115 0.105068 0.653119 0.286950 1.219835 1.561975 0.173218 -0.884105 0.681515 -0.196154 0.006514 -0.724150 -2.088310 -1.019392 -0.236714 0.358753 0.138364 -0.615337 -0.165622 -0.610619 0.389651 0.183142 1.331272 0.888888 0.047628 0.327526 -0.979937 0.020651 0.588850 0.105905 -0.858832 0.034037 1.661020 0.744365 -0.710610 0.359649 0.936524 0.625812 1.177978 -1.348036 -1.041325 -0.020824 1.464434 -1.963299 0.560188 0.382918 0.390273 -0.250942 0.746885 -0.222625 0.536798 1.131833 -0.549377 0.955569 -1.387357 -1.009379 -0.070237 0.449107 -0.557992 1.722397 -0.787896 1.196733 0.391328 0.507016 1.811195 -0.945152 -0.032043 0.726586 -1.780744 0.190141 -2.251044 -2.590938 0.036119 -0.990904 -2.316250 -1.115167 0.640909 0.635879 -0.906900 0.278641 -0.511449 1.026554 -0.647374 0.900570 -0.216650 -0.928248 -3.556876 0.948636 -0.365871 -0.549649 0.176738 -0.484801 0.536541 -0.733108 -0.452860 -0.449358 0.702964 0.421431 0.264336 -1.184376 0.052949 -0.622773 0.247175 0.686218 0.301740 0.168349 1.073717 1.057178 -1.187125 -0.152396 -2.458623 0.716727 0.176547 -0.844168 0.107972 0.275874 0.524671 -1.526023 0.248630 0.750001 -0.557021 0.265417 -0.513776 -0.355579 -1.611115 0.260166 1.549605 -0.580721 -0.439141 2.046774 0.209399 0.403756 0.426071 0.289496 -0.705200 -1.391751 2.532257 -0.498310 -1.155972 0.115167 0.137778 -0.620988 -0.514822 -0.559605 0.101837 -0.089914 2.347526 -0.317064 -0.800825 -0.380827 -0.283287 -1.198726 1.701711 0.243914 0.190345 -1.066413 -1.118789 -0.036969 1.240974 1.358525 1.603136 0.547497 0.203387 1.344733 0.505511 0.241485 -0.153185 1.048866 1.444887 -0.247702 0.860080 -0.578220 1.118921 -0.622042 0.065396 -1.653738 0.018642 -0.767792 1.684920 -0.913221 -1.251955 1.347736 -1.087686 2.046866 0.809891 0.535837 -0.838975 0.265384 1.122419 1.480802 0.215641 2.479023 -0.273789 0.171937 2.588533 -1.670232 -0.686897 0.031614 -0.245584 -1.039862 -0.132244 0.032000 -0.648226 -0.373844 -1.555924 -0.644472 0.058250 -1.589916 0.922490 0.680608 2.178491 2.043298 -0.258734 0.167364 0.177148 -0.050455 0.401229 -0.871953 0.689355 0.611515 -2.157617 -0.590774 0.235955 0.693423 -0.399687 1.074078 -0.541816 -0.940894 -0.422331 -1.007684 0.360940 -0.029055 -0.180376 -0.035411 0.888109 1.758214 0.830820 -1.440821 0.418275 1.613653 1.091705 0.046544 -0.635874 -1.090853 0.047246 -2.183372 -0.446331 -0.077209 1.183427 0.325311 -0.107604 -0.415821 -0.801932 -1.402045 -0.603253 0.423529 0.715211 0.570424 0.135159 -2.351945 -0.014295 0.630475 -0.678865 0.507487 0.905757 0.122656 -1.651527 1.342493 -0.368328 0.157744 -0.838135 -0.095750 -0.952878 0.824917 1.520397 2.057302 0.221284 -0.189890 -1.467474 0.321358 0.627088 -0.640955 -0.038148 -0.718990 0.441629 -0.797266 0.223529 1.566015 1.724554 -0.102944 0.911133 -0.580764 -0.270292 1.209683 -0.742997 0.611723 1.101351 0.236564 -2.434228 0.509357 -1.106962 -1.134007 -1.193698 1.067114 -0.087059 0.905438 1.123545 -0.221424 -0.785398 -0.510866 -0.704818 -0.965509 0.337742 0.184493 -1.226746 0.873387 -0.505735 0.439893 -0.463289 0.204875 -0.010217 -0.106315 0.003567 -0.615170 -0.476279 -0.303703 -1.113926 1.245431 -0.676770 -1.980060 2.263779 0.298833 -1.879310 -1.355460 -0.419676 3.147687 -0.009828 0.140197 0.345305 -0.295350 0.153000 0.832538 -1.244741 -1.299245 -1.212637 -0.860157 -0.756238 0.090445 -0.682763 -0.485275 -1.763337 0.944461 2.084719 0.051237 0.888547 -1.328807 1.367990 -0.328256 1.068643 -0.122558 -1.084772 1.424983 -0.212706 -2.332041 -0.232262 -1.207494 -1.101096 0.358487 3.107914 -0.485809 -0.741024 0.731833 3.703637 0.489973 -1.141866 -0.275460 0.340915 0.923195 -0.645911 -0.623629 0.169719 -0.592772 -0.974499 -0.819540 -1.639500 -0.716581 0.054779 -0.736844 -0.580811 0.386964 0.473022 0.496799 0.436868 0.359196 -0.499919 0.348333 -1.243188 -1.102948 -0.297116 -0.399577 0.330015 0.266358 0.328361 1.221080 2.596361 0.003695 0.115534 0.102322 1.458094 -2.013475 -0.962968 -0.955227 -0.958951 -0.088978 1.466957 -0.361867 -0.800637 -1.109223 0.807400 1.118183 -1.583635 0.857467 0.609082 -0.890802 0.362222 -0.420399 2.521608 0.330647 -0.421449 0.615783 -1.030600 -2.187278 0.432677 0.631619 0.946651 -0.057744 -0.376422 1.560505 0.690707 -1.560292 0.864762 0.985150 2.061196 0.942484 -0.435680 -0.728795 1.074198 1.551392 0.225423 -0.165906 -0.134489 0.788150 0.138305 -1.251875 1.168088 0.686495 0.490358 0.510146 0.508050 -0.922856 1.637952 0.546170 -0.403361 -0.451068 1.158707 -0.560368 -0.355877 1.240849 -0.520385 -0.437614 -1.683327 0.130293 -0.812652 0.673200 -0.956837 0.751168 0.709650 0.104777 0.254603 -0.455767 -1.969731 1.330764 -0.006830 -0.832848 -1.401094 1.283555 -0.348767 1.309896 0.338880 0.284771 1.691538 -0.698967 -0.434441 1.104060 1.371955 0.345336 -0.453807 1.308799 -1.836787 0.120611 0.822190 2.545807 -0.369410 -0.042037 -0.403304 2.116182 -2.077053 -0.153761 -1.994046 -1.835133 2.102481 -1.316822 -0.230146 -1.400083 -0.187319 0.836890 -1.047832 -0.935320 -0.177304 -0.286430 -1.474943 -0.418659 -2.557163 -0.656047 -0.666388 0.823534 1.261860 -1.120374 0.990952 0.379132 1.107601 -1.347335 0.886226 1.205407 0.055168 -2.775632 -2.688647 -1.527996 -1.481552 -1.630596 -0.129902 -1.845060 -0.418127 0.862348 -1.985087 -0.788484 1.389495 0.782730 -1.006412 -0.748146 -1.152768 -0.888068 -0.029181 0.526170 0.035070 -0.048584 0.226148 -1.016436 0.035470 0.667825 -0.502779 -0.614827 -0.578568 -0.456301 -1.068320 2.117502 1.592199 -0.266598 0.021118 -1.229609 -0.952889 1.993561 0.384598 -0.697441 0.173737 0.444373 -0.089204 -0.726352 0.061151 0.445421 1.527714 0.512402 0.572272 0.677704 -1.437639 -1.023804 0.429631 1.294223 -0.814463 0.840725 -1.273476 0.060527 0.980174 2.934262 0.555885 -0.344982 0.667617 -0.716306 -0.577685 0.183289 -0.305749 -0.511125 1.770591 0.133695 -1.839809 1.758792 1.419640 -0.520664 0.258605 0.127635 0.803519 -2.303471 -0.167790 1.961795 -1.021755 -0.696418 1.810308 -0.828670 0.267832 -0.435287 1.142103 -0.824901 -0.710318 -0.465618 -0.491903 -0.498112 0.418323 0.213550 0.227057 -1.216995 -0.004715 -0.041833 0.574619 1.051452 2.246345 -0.347615 0.831168 -0.542743 0.402314 0.070434 0.477892 0.097864 0.038068 -0.549153 1.373025 -0.354324 0.540135 2.539294 -2.515677 0.336755 0.306527 -0.606331 0.219380 -0.713785 0.932696 -0.751336 0.256792 -1.026359 -1.707541 1.576023 -1.166990 1.166536 -0.514754 -1.788053 -0.369225 -0.322062 1.083875 1.342643 -1.327806 -2.180631 1.408341 -0.298904 -0.361349 -1.272379 1.055317 1.501227 -0.850349 0.422314 -1.787560 2.195976 0.202194 1.443867 -0.410210 -0.273278 -0.680497 -0.340119 0.260173 -0.037487 0.358130 -1.083454 -0.729944 -1.081429 0.611688 0.334303 0.077979 0.011931 0.883253 -0.611483 0.496746 2.585617 0.437677 1.800572 0.095620 -0.488661 -0.995793 0.593333 0.934447 -0.366650 0.361993 -0.207026 0.048635 -0.411768 -1.066064 1.190488 -0.878614 -0.040976 1.529198 0.534321 -0.029726 -0.512306 -0.315038 -1.123142 1.018624 -0.900930 -0.887620 0.105383 0.295589 -0.334041 0.588822 -0.320409 0.456608 -1.218355 2.078747 -2.173968 0.529407 0.446033 1.813720 -0.051217 0.146832 0.227606 1.782872 -0.929405 1.617477 0.276269 0.229236 1.015995 0.225244 -0.533549 -3.358304 0.213827 -0.076372 -0.496339 -1.170560 0.648353 -0.023282 0.342549 -0.266349 0.553326 -1.336634 -0.346761 0.349999 0.148255 -0.681887 0.384967 -0.331843 -0.147909 1.356724 -0.456523 -0.444523 -1.074721 -0.093640 -0.132952 0.491360 -0.400761 -0.292343 1.348247 -0.235957 -0.106437 0.691607 1.161575 -0.603250 0.301933 -1.942424 1.405452 1.703874 1.322322 0.366071 -0.962866 0.268995 -0.400673 1.660803 0.264484 -0.114205 0.076295 0.357055 1.274973 -0.388161 -1.137458 -1.719693 0.615084 -1.170596 0.414472 -1.185768 -0.801759 1.796282 0.831179 0.712580 1.381686 -3.358121 -0.190860 -0.350734 -2.084601 -0.519220 0.025397 -0.669244 2.719183 0.217539 1.381035 1.189545 -1.165030 -0.911260 -1.059972 0.977103 -0.292803 -0.382869 0.025881 0.266377 -1.720198 -0.450563 0.843780 0.280038 -0.000704 -0.591931 1.222548 -1.041677 0.835777 0.652171 0.246197 0.827226 0.715826 -0.803136 0.287125 0.210261 -0.581045 0.075778 1.426750 -0.422759 0.538240 -0.843368 0.983931 -0.767683 -1.420349 -0.512338 0.075177 0.644636 -0.128857 0.021576 -0.450119 -0.976518 0.064707 -0.922795 1.172944 0.732979 1.384899 -0.788126 1.975172 1.037016 -0.631761 0.871650 -0.264683 -1.208819 -0.204902 -0.977815 -1.494425 0.926337 -0.008031 2.269533 1.859647 1.061432 1.981283 1.071943 -0.496534 1.002297 0.396431 0.815617 1.951459 0.944549 -0.381262 -2.156094 0.725795 -1.150932 0.074633 -1.027481 1.262097 -0.320666 0.245760 -0.130407 0.793987 -0.295606 -1.041176 1.162069 0.051350 -0.730590 0.455321 -1.014459 -2.178032 1.197291 -0.027207 0.519675 0.369126 -0.912551 -0.390013 0.592551 -0.298487 -2.662806 1.304088 0.148674 0.084225 -0.438673 -0.825190 -0.524436 1.816540 0.557777 0.338205 -0.573226 0.583807 -0.104034 -0.008591 -0.117267 -1.780944 -0.077385 -0.073560 0.618397 1.284510 1.126775 -1.761657 -1.089340 -0.832246 1.285030 1.241765 0.029632 0.913347 -1.061218 0.414038 -0.179816 0.286623 -0.183113 -0.478498 1.845989 0.164330 1.160977 0.555097 -0.199756 -0.094010 0.482800 0.866543 -0.981960 -0.797008 1.061266 -0.604076 -1.819562 1.540146 1.007391 0.712428 2.211301 -0.940216 0.281909 0.381776 -0.463008 -0.627164 -0.172361 -0.269883 -0.176019 0.748650 0.147116 -0.520732 -1.007612 -1.540231 0.789974 1.042104 1.419403 1.268332 1.396518 -0.568182 0.670863 -1.733430 1.216710 0.363576 -0.739252 -1.240324 1.543312 0.000179 -2.674719 0.854579 -1.022555 0.289085 -1.293890 1.217965 0.301117 -0.311600 -1.340669 0.545434 -0.621993 0.141353 -0.861334 -1.433364 0.331049 0.411867 0.405741 0.404338 -0.417522 1.309773 1.804348 -2.221819 1.276338 0.869403 -0.108606 -0.032867 0.722707 -0.170722 -0.834957 1.653910 -1.639838 -0.742074 0.187649 0.064520 0.729989 -0.136139 0.053926 0.209803 -1.261464 -0.125600 0.375044 -0.688534 -1.339395 1.184783 0.263656 1.070445 -0.453013 -0.184798 0.591985 1.882082 -0.069380 1.408130 1.106726 -0.353531 -2.279114 0.507949 -0.695584 0.543740 0.936472 0.815446 0.902882 -1.720183 0.534082 -0.366184 -0.754079 -1.655206 -0.164894 1.985939 1.723874 -1.190994 -0.372983 -0.153033 -0.155191 1.022311 0.371740 -0.720195 -0.389419 0.113639 -0.343478 -0.330727 -1.187910 -2.644579 -0.078833 -0.225423 0.488837 1.202805 -1.021557 1.076894 -1.137285 -0.863732 -0.168649 0.100437 -0.165183 -1.632716 2.603385 1.569031 -0.796326 1.235293 0.957013 0.634970 -0.303740 -0.337203 -0.378413 -0.483042 -1.758549 0.097799 -0.150691 0.580555 1.269721 -0.305583 0.731556 0.041099 -0.643474 0.905456 0.387213 1.628077 1.291864 -0.964246 0.385112 0.425835 -2.666280 -0.843148 -1.146777 -1.268798 -1.891511 -0.653203 -1.830695 0.116837 -2.039209 -0.819284 0.597418 0.344424 -0.449960 -1.656120 0.288212 1.026370 -0.819970 -0.645084 -0.688972 0.832286 -0.779211 -0.547218 -2.654920 -0.019893 -2.379083 0.205821 0.624701 -0.373927 -0.131098 0.289474 0.405847 0.412596 -0.628191 -3.547118 -0.147370 -1.153759 -0.409852 -0.464597 0.389014 -0.231319 2.351345 -0.151457 -0.724308 -0.750581 0.008088 0.410444 -1.404531 -1.235656 -0.200161 -0.912610 -2.034199 -0.957183 -0.288725 -0.481802 1.026262 0.156167 -0.472428 -0.865752 -0.524555 0.926264 1.066875 -0.168957 -0.117005 0.056099 1.035839 0.898744 -0.101821 1.251252 -0.636470 1.001523 1.572960 -1.022269 0.726975 0.557572 1.139238 -2.802545 0.681621 -1.056056 0.393991 0.961559 0.769379 -0.096564 -1.231726 2.193919 -0.457323 -1.418060 0.272726 0.644119 -1.051684 0.042452 0.858457 0.712670 -0.910159 -0.495636 0.246676 0.693615 -0.304757 -0.228008 -0.960197 -0.694376 -0.494624 0.271376 -0.022003 -0.146080 1.418057 0.557259 -0.104075 0.103406 -1.418702 0.207374 1.335680 0.787121 1.330549 -0.223494 0.263324 -0.249488 -0.234779 -1.192780 -0.683293 0.597312 1.117529 -0.452486 0.058048 2.539214 -0.070822 1.469693 1.821999 1.253090 0.282414 1.153218 0.310023 -1.256332 -1.095226 1.226743 -0.173273 -0.972990 -0.639085 1.134346 0.262520 0.390472 0.375572 0.221596 0.134566 1.689846 -0.901426 0.037651 -0.711912 -0.526496 0.974601 0.623265 1.185045 -0.398663 2.155266 -0.201680 -0.074955 -0.785864 -0.848985 1.237750 -0.691056 -0.573071 -0.253503 2.114848 -0.278932 0.646504 -0.167510 2.025397 1.520095 1.340386 0.417780 1.239223 1.835188 -1.306607 0.390148 0.144150 -0.173436 -0.893488 -1.433857 -1.848216 -0.018061 -1.562228 1.719233 -1.769209 0.250314 -0.295293 -1.525414 1.066192 -0.800054 2.839051 2.258761 0.424904 0.953835 0.324669 0.447407 -0.511991 -0.871406 -0.283616 -1.317559 0.551393 0.623961 0.663076 -0.668076 -1.047957 1.449011 0.203758 -1.509029 0.989555 -0.795971 0.999890 -1.982756 0.777538 1.260213 -0.632996 1.125114 0.232595 -0.545206 1.293735 -1.229142 0.551832 0.201749 0.093437 0.163870 -0.584808 -1.042460 -0.759594 -1.465758 0.959045 -1.761563 0.075989 0.894298 0.858451 -0.521810 -0.173862 -0.106875 -0.174479 -1.109844 -0.231263 -0.436507 0.384815 0.452715 0.568592 -1.618976 1.822091 -0.080470 0.599559 1.850125 -0.034640 -1.344266 0.660842 -0.230577 -1.029506 0.362110 0.172625 0.047302 0.196876 -0.288544 -1.545981 -1.255254 -1.119257 0.257865 0.577320 0.417543 -0.159195 0.298080 0.599708 -0.144347 -0.284278 0.964090 0.464845 -0.383830 0.627317 -0.789079 -0.498308 0.349702 0.103720 -0.132993 0.532505 -1.696881 1.070535 -0.589119 -1.161004 -0.270475 1.805196 -0.164230 -0.012773 0.182341 -1.114007 0.597855 -0.285911 1.000433 0.571119 1.190606 -0.207787 0.851187 -0.640433 -1.221559 -1.962347 -1.856262 1.044174 0.566589 -0.250157 -0.494611 0.757860 -0.528720 -1.853105 0.479835 0.589302 0.077338 -0.534391 -0.123777 -2.762894 2.399928 -1.185461 0.258993 -0.072465 -0.062903 0.156524 0.361936 -1.120744 1.370843 -0.700408 -1.218873 1.851782 2.113125 0.995501 -0.378349 -1.462985 1.206578 -0.789644 -0.140395 0.980791 -0.994713 -0.528971 1.437824 1.297528 -0.395749 -1.077976 -0.078751 0.458848 -0.567146 0.254898 -2.097413 -0.869041 1.642745 -0.951297 -1.536744 0.953311 -0.055291 -0.684513 1.741635 -0.079229 -0.080818 0.047900 0.174256 0.767250 -1.041298 1.407661 2.536164 -0.222902 -1.273850 -0.064916 