1.196402 -0.287036 -0.364605 -0.440992 -0.516204 -0.590251 0.741537 2.074474 -0.767434 -1.212301 -0.871616 -0.054832 0.481602 0.100678 -2.292480 -0.937998 1.692061 -0.184186 -0.241202 1.956243 0.789808 -0.624795 -0.288590 -1.057443 0.404600 0.765994 0.366212 0.225280 -0.363425 -0.631747 0.392481 -1.411022 -1.465797 -0.006071 1.279143 0.298636 -1.797662 0.433550 -1.019921 -0.887935 -0.233945 -1.474582 0.151569 0.922398 0.217169 -0.309794 -0.080558 0.794200 -0.297236 1.795192 1.220787 0.950602 0.323712 1.291047 -1.104248 -1.001663 -0.322266 0.040364 -1.768418 0.067758 0.183307 -0.418874 -0.086283 0.737128 -0.271309 -0.301088 0.472516 0.300829 0.971430 -0.661075 -0.424086 -1.807445 -0.770781 -0.817813 -1.020594 -1.001963 0.688825 0.732536 0.862451 -1.318786 -0.900972 -0.021523 -1.062810 0.309668 0.671457 0.518783 0.030214 -1.078323 -0.613504 0.102498 0.460679 -0.011237 -0.206051 -0.734062 -0.250165 0.764537 0.537599 0.975954 0.651029 0.584849 2.169573 -1.124746 1.471824 -0.410402 0.243023 -0.658541 -1.501770 1.048871 0.714390 -0.098397 0.843407 0.024077 0.257485 0.978137 -0.837664 -1.583695 0.825172 1.320246 0.274194 -2.675590 1.843906 0.820561 -0.866677 1.543502 0.976879 -0.651115 0.480008 1.265013 -0.540706 -1.297416 1.958749 0.648954 1.207066 0.412619 -0.215033 0.820286 -0.059560 -0.889492 -0.275620 0.273359 -1.275409 1.295605 1.164617 0.328422 1.264786 2.653297 -0.762953 -1.308054 -0.311838 2.479882 0.182317 -0.683644 1.141140 0.411899 -1.509608 -1.086203 0.296270 -0.183608 -1.843773 -1.405158 -0.287929 -0.081186 0.110285 0.837270 1.370787 0.489250 1.432323 -0.161152 0.650968 0.473121 0.963494 -0.841584 -0.001579 0.094506 0.878459 0.773270 -0.853757 -0.599379 -1.167884 -1.699166 -1.529448 0.673300 0.342269 -0.411000 -1.436608 0.734817 -0.704770 -1.370500 -2.098361 -0.586750 0.071533 -0.709481 -0.381645 -0.086619 -0.545310 1.260935 0.912028 1.303082 1.755900 0.836369 -0.498217 0.516138 0.373160 -0.702851 -0.121920 0.448149 -0.396847 1.367013 -0.903134 -0.543682 -0.388332 -0.436115 -0.530198 -1.442221 0.291623 -1.207836 -2.311913 -0.190267 -1.032905 0.552921 0.327993 0.270492 0.465713 0.633646 -0.699515 -0.584882 0.805608 -0.374616 -0.486066 2.599190 -3.772080 0.275178 -0.404159 0.960890 -0.169442 -0.391899 -1.613777 1.090799 -0.431252 -0.347424 -0.501727 -0.503625 1.115492 -1.323759 1.242980 -0.460731 1.152819 0.338368 -0.541348 0.376278 0.207266 0.142563 -2.172996 0.410217 -0.449538 -0.470906 -1.081679 0.560370 -0.993233 -0.718085 -0.498308 0.985339 -0.803754 -1.356975 0.466390 -1.154711 1.315054 0.265747 0.885535 -0.642137 0.394276 -0.240071 -1.826303 -0.149951 -0.419793 -0.567879 -1.182589 -0.117392 -0.655714 -1.942451 -0.774134 0.650515 -0.480453 -0.421418 -0.983119 0.128147 -1.999383 -0.862698 -0.915850 -0.362783 0.319866 -1.225161 -0.033873 0.177385 0.254680 -1.273255 0.266975 -1.440093 0.190260 0.850343 0.611205 -0.152778 0.069439 -1.238958 -1.006412 0.424078 0.698839 -0.476100 -1.809580 -1.171202 0.742461 -0.971268 -0.255328 -0.486076 -0.496606 1.259508 1.122302 0.245288 -0.464710 -0.286730 -0.240070 1.026057 -0.222255 -1.097661 0.682324 0.700349 -0.052152 -0.016953 -1.586540 0.133124 0.692928 -1.115058 1.994390 0.090167 -1.167080 -1.386188 -1.903139 1.197416 1.171795 -0.838952 0.191560 0.486431 0.145447 0.275012 0.721680 0.947194 -0.225413 1.393548 -0.987750 -0.675559 -0.453229 -0.564598 -0.727184 -0.137037 0.547165 0.524002 -0.830731 -0.378552 1.223584 1.580669 -1.149857 1.963715 0.826472 0.813809 -1.335360 0.408869 0.915481 0.443656 1.748673 -0.161857 -0.701362 1.286899 -1.145037 -0.308989 0.136657 -0.913502 -0.021925 1.502661 -0.851999 0.989070 0.927658 0.790179 0.593696 0.388252 0.300169 -0.554410 -0.426552 0.344383 1.571221 0.472191 -1.012703 0.881542 0.088769 0.093064 -0.049527 -1.026495 -0.908996 -0.739333 0.162789 -0.692181 -0.603544 1.094549 1.666829 0.726144 0.752490 0.747666 0.692433 0.546693 0.291858 -0.716842 0.783640 0.628972 0.547263 -0.946608 0.814744 -0.756219 -0.654926 0.850273 0.441205 1.054850 0.258366 0.463348 0.603979 -1.686700 -0.648646 -0.117037 -1.923183 1.281911 -1.978030 -0.648485 -0.984708 -1.465354 -0.431502 0.052174 -2.332549 -0.409051 -0.267746 -0.812306 -0.587517 0.983853 -1.460130 1.049826 0.157895 -0.615377 -1.918138 -0.824118 -1.503347 -0.764358 -1.565202 0.823726 -0.788668 -1.107159 -0.590965 -0.460704 -1.208593 1.007096 0.553010 -1.091269 -0.657798 0.461417 -1.054068 -0.231671 -1.897044 0.435358 -0.528146 -0.404895 0.560884 0.472337 -0.176052 0.690270 0.502962 0.301319 -0.596284 0.235844 -1.351279 0.311714 -1.290801 -0.436566 1.053118 -0.704081 1.039916 1.655121 0.692245 0.743061 -0.840657 -1.395396 -1.341026 -1.429738 -0.051904 1.081426 0.169861 1.263399 0.754787 -0.484305 -1.031198 0.331221 1.214827 -0.958347 0.650202 0.002317 0.321706 -0.888303 1.448048 0.892133 -1.794769 1.528097 -0.271736 -0.159143 -1.451707 0.955233 -0.089682 -0.287714 -0.172749 -1.662329 0.207524 -0.544540 0.167291 1.464314 0.324240 1.971559 0.322678 -0.246581 -0.099292 1.155749 2.111299 0.631048 -0.186485 -1.330658 0.672175 -0.168113 -0.479490 -0.022103 -0.272503 -0.085415 1.637105 -0.735817 1.727988 0.661093 0.514652 -0.314360 0.367155 1.000383 -0.801292 -0.632428 -2.726373 -0.066628 -0.165594 1.805322 -0.093772 -1.408966 0.100838 0.308150 0.188190 -1.658230 -0.957700 -0.155401 2.060792 1.059359 -1.212454 -0.664022 -0.333727 -1.071544 0.221824 -1.095816 0.364766 -1.025491 -1.197902 0.781705 -0.203081 1.206840 0.792983 0.577929 0.665493 0.710031 0.735553 -0.244676 -1.085202 -1.037678 -0.330010 1.024207 -0.772441 -0.534454 1.261599 0.444447 -0.981428 0.631342 -1.167032 0.367607 0.192523 -1.411230 0.362934 1.043891 0.214679 -1.247054 -0.264859 1.226644 0.807656 2.054196 1.621870 -0.734904 2.020154 -1.162533 -0.340915 0.813416 -0.558034 -1.296745 -0.299153 -1.513491 -1.097686 -0.190953 -1.049855 0.408559 2.466908 -0.086485 0.988742 0.377784 0.474039 -1.148859 0.225264 1.281666 -0.039350 0.827859 -0.524429 -0.874747 0.958451 0.595867 -1.278422 -0.538204 -0.464184 1.180304 1.754416 0.018213 -0.556191 0.464106 -0.994995 -0.213930 0.192038 -0.161804 1.314051 -0.939757 0.328036 1.918703 0.056304 0.775813 -0.271931 0.467156 1.131965 -1.305407 -0.241878 -0.296451 -1.017894 0.631938 1.795160 1.428399 1.351105 1.482300 -0.650104 -1.859303 2.742116 0.186752 0.456912 1.106704 -1.049828 1.902273 1.041958 -0.652830 -1.474596 -0.002246 -1.553266 2.229276 0.991046 -1.295331 -0.602488 -0.144736 1.415481 0.082307 1.203731 0.164513 0.315405 0.740744 0.012578 1.424526 1.672079 -0.238633 -0.091402 0.042292 -0.578837 -0.487344 -3.495373 2.841956 -1.631245 3.117907 -0.849771 -0.425559 -0.502369 -1.891930 2.000743 0.950132 -0.300124 -0.682123 -2.360932 0.106130 -0.741213 -0.248060 0.093936 -0.148960 0.972882 -0.274672 -1.309583 1.266765 -0.682340 -0.038565 -0.250117 -0.289765 -0.037615 -0.583965 -0.291445 -1.021689 -0.929310 0.638843 -1.130485 -0.883623 0.863263 -1.415136 0.490638 0.397663 -1.214829 0.517893 1.097570 -0.544542 0.353439 -1.838641 0.801809 1.268051 1.598400 -0.165956 -0.024494 -1.852571 -1.338644 -0.532234 -0.228496 -1.365910 1.039275 -1.089537 -0.430270 0.742001 -0.150312 -0.268680 0.280231 0.095386 0.083647 0.905988 0.161045 -1.263036 1.249739 0.173651 -0.751433 -1.392387 -0.448697 0.356637 0.221501 -2.735388 -1.440431 0.300966 -2.022517 0.477207 0.900362 -0.045052 -0.418427 -0.749173 -0.457633 0.887980 -1.039320 0.404360 0.187813 0.295245 1.281696 -2.515568 -0.462443 1.657951 1.716650 -0.944686 0.724706 -1.317948 -0.046912 0.049601 -0.332277 -0.669031 1.486790 -0.119038 0.162403 0.384780 1.889016 0.022847 -0.798234 -1.442269 -0.593879 0.858432 2.718232 0.625326 -0.704070 -0.032690 0.315635 0.898130 -0.467555 -1.562242 -0.656987 -1.151426 0.013268 -0.718368 0.073834 0.817977 1.440423 1.335482 1.956889 0.303806 2.635883 -0.778160 0.761540 -1.015575 0.370373 0.929247 -0.142080 -0.691455 -1.109667 1.472390 0.463511 -1.261980 0.429163 2.459775 -0.098366 -0.572444 0.412894 -1.172252 -0.246337 -0.369921 -1.351961 0.244040 -1.188695 1.486843 -0.167178 1.416903 0.580117 2.670313 0.082895 2.305471 -0.257344 -0.947836 -0.747959 -0.125892 -1.856549 0.466096 -1.189096 0.633585 0.027650 -0.480662 -0.217397 -1.715539 2.197660 -0.686661 1.502670 2.104067 -1.088740 -0.359265 -2.376964 0.097670 -1.151669 -0.034008 0.578396 0.518414 1.761207 -0.266005 -1.385558 -0.399218 -0.034866 0.234718 0.526500 -0.313972 0.129592 -0.136486 -0.556255 -1.287518 0.785229 -0.478261 -0.558931 -0.322852 1.407969 0.651038 -2.237763 -0.978355 -0.265280 -0.530856 0.829247 0.467275 -0.216345 0.271826 -0.837301 0.873547 0.397878 -1.475867 0.876096 1.356292 0.513686 -0.034037 -0.572372 0.359986 -0.582391 -0.682548 -0.833186 0.573505 -0.182906 0.045207 0.240125 -0.450283 -1.021553 0.573239 1.684066 1.157802 -1.187205 -0.641446 0.446438 0.344485 0.066216 -0.286912 -0.390613 1.296141 -0.198558 1.453986 -1.761125 -1.411510 -1.146688 -1.980674 0.317308 1.377590 -1.100267 0.266818 -0.080612 0.237207 1.611050 0.963658 -0.208342 0.531566 0.628918 -0.040048 -1.485464 -1.292138 0.177114 -0.149422 1.222559 -0.466617 0.609732 0.168793 -0.392431 0.400078 -0.028605 -0.288941 0.402617 0.354727 -0.265509 -2.243925 1.244109 -1.366962 -0.601712 -1.335309 0.970715 0.879324 -0.613718 1.284037 -1.081532 -0.786046 0.842299 1.773030 -0.988628 0.697879 1.580223 0.749180 -2.838297 -0.044162 0.382891 -2.305060 0.960769 -0.848361 1.609574 -1.227534 1.548635 0.676143 1.079732 0.936205 -0.117504 -0.070076 -0.722939 -0.580956 0.909102 1.210383 0.227711 1.089616 -0.282776 0.050578 1.583552 -1.145706 -0.397945 -0.482417 -1.166051 -0.842781 -0.698466 0.176192 -0.635875 0.303853 -1.815412 -0.663774 0.260040 -0.666407 0.848008 -0.855774 0.189021 -0.343030 0.559927 -0.971245 0.524265 1.099494 0.090836 0.218005 -0.386310 -0.914618 -1.420943 -0.577470 -0.012028 0.452032 -0.314454 -0.699637 0.536692 1.391736 0.406886 -1.231718 0.392975 0.277212 0.965488 0.827428 -0.777021 -1.160396 -1.477131 -0.460085 0.063112 -1.037955 -0.132019 0.821858 1.028153 0.469324 -0.153297 -0.792429 0.007268 -1.638313 1.389958 -0.535384 -0.362273 1.550592 -0.697087 1.200778 -0.454425 -1.181621 0.454063 0.872386 -0.747924 1.658522 1.535869 2.266759 -0.060760 -0.537958 0.357323 -2.147978 0.242584 -1.643055 -2.305418 -0.938810 1.585474 -2.172355 -0.863140 -1.267904 -0.317935 -0.315882 -0.415992 -0.417108 1.162394 -0.986979 -0.504197 -0.370297 -0.432598 -0.511005 -1.350338 0.276627 1.657999 -0.023772 -0.469924 -0.949509 -0.715112 -0.716269 -0.949969 0.312621 -0.712182 -0.409796 1.463678 -0.146391 -0.747224 -1.371116 0.875739 -0.343782 0.915359 -0.033049 1.492080 -0.694569 -0.340788 -0.278685 -2.077903 1.638965 -1.273674 0.995129 -0.508565 0.505406 0.743482 -0.964404 -0.126453 -1.920965 1.071387 -0.078881 -0.264077 0.678809 1.352779 -1.612645 -0.495742 -1.318266 0.714035 1.630132 -0.407565 -0.216353 0.105655 1.114827 0.180462 -0.935648 0.370372 -0.021859 0.662399 1.294464 1.755602 0.812880 0.831838 -2.886699 1.181657 -0.225892 -0.719997 -0.106834 -0.236332 -1.400099 1.319904 -0.372383 0.234707 -0.042741 1.310364 0.278714 0.211076 0.275469 -1.294927 0.341238 0.792142 1.026857 -0.041548 0.757127 0.840117 0.785521 1.383911 0.180719 0.666827 -0.297059 0.426604 1.008247 -0.079625 -0.077177 -0.821692 0.777694 1.263238 0.109926 -0.662061 0.214982 0.235856 0.159630 1.437755 -0.517344 -0.446703 -0.956979 1.437798 1.739296 1.186824 0.286039 -1.796777 -1.914497 0.630312 -1.464204 0.469901 0.792270 -2.905382 1.162390 1.252459 2.484483 -1.058086 -0.236098 -0.106720 -0.211570 -0.161784 0.322983 -0.702946 0.999433 0.284181 0.396071 3.310870 -0.279761 -1.560216 -1.155390 -1.101090 -0.432426 -0.047496 -0.266558 -0.886566 0.447970 -0.637396 1.056821 -0.744894 -1.549328 2.316584 -0.493756 1.181564 -1.049942 2.254324 -1.644922 -0.633020 0.201275 0.450250 0.273712 -0.471560 -0.913178 0.228321 -0.440634 1.096075 0.620164 0.401232 1.983754 -0.356996 -1.459740 -1.811530 -0.220304 -0.576989 -0.163442 1.245257 -0.275907 0.356646 2.299667 1.233146 -0.546371 0.887902 2.022052 -0.694448 1.748794 -0.680388 -1.206700 -0.075903 1.274664 0.801555 0.466765 -0.874159 -1.094966 0.089194 0.050425 0.451593 -1.395067 -1.109113 0.816676 -0.655947 -1.864758 -0.066216 -0.201242 -0.958227 -0.748215 0.151955 -0.575321 -0.311187 1.367270 -0.413989 0.437425 0.482107 -0.307478 -0.195757 -1.665875 0.807865 -1.726988 -0.011830 -1.433477 -1.189735 0.681654 -0.223901 -0.847196 -0.639209 -0.466386 -0.299265 1.147874 -0.607000 -0.498756 -0.977664 1.539475 1.957120 -0.004302 0.116860 1.711072 -1.381807 1.210298 -0.684091 -1.583346 0.106758 0.718361 0.622731 -0.159224 0.132573 0.361436 -0.394638 0.402464 0.799087 1.173095 0.282935 -0.269172 -1.420671 0.411569 0.187520 0.562631 -1.953959 0.662029 -1.436520 -0.241457 1.357251 -0.612569 -1.234691 0.557444 -0.955399 -0.729556 -0.653557 -0.630303 0.123894 0.828208 1.516588 -1.587376 1.193489 -0.328705 -0.366994 1.045472 1.243501 -0.513946 1.231177 -0.187930 1.491987 0.475888 -0.444449 1.020376 0.668205 -2.340387 0.410045 -0.482887 0.988613 -0.718281 -0.577728 -1.054286 0.676641 -1.556704 1.553634 0.346823 0.276902 -0.959700 0.887956 0.806960 1.995487 -1.389464 -0.384766 0.498825 -0.316853 1.208802 1.518102 -1.025336 0.191189 -0.330432 -0.943857 -0.946634 -0.329665 1.707066 -0.916680 -1.173219 -0.568021 0.383860 0.308967 -0.004236 1.263041 -1.199800 -0.655034 -0.233339 -1.026859 -1.738267 -1.667414 0.660444 -1.070794 0.734785 0.133395 0.306254 0.546661 0.482785 1.044405 -0.837263 2.206580 -1.159069 0.572738 -2.323873 -1.222257 -1.794115 -1.828389 1.975409 -0.142457 1.558681 0.329820 -0.021065 0.388079 0.841307 -0.427424 -0.086592 -0.268052 0.608137 -0.791351 -0.422347 -1.014157 -0.213874 1.129994 -0.787030 0.815651 1.531402 0.720686 -1.318687 -1.724557 -0.794689 0.404088 1.378218 0.140939 -0.464364 0.188817 1.369152 0.451731 0.802996 -0.443036 1.675149 1.414173 -0.181643 -0.653625 1.002178 0.752918 1.167523 -0.714219 -2.095029 0.643053 -0.178942 1.226224 -0.669738 0.151756 0.380971 -0.997745 1.540424 1.740635 1.224330 1.851486 0.950510 0.355862 -0.291342 0.433561 0.006263 1.064912 2.186275 -1.093766 -0.453560 0.744066 -0.858271 1.327417 0.662069 1.050027 0.271354 1.342826 0.002413 0.057850 -0.742181 0.582801 0.898118 -1.620617 -1.152616 1.461355 -0.209398 0.666003 -0.229577 -0.217923 -0.075417 -0.730286 0.866303 -0.252540 0.509429 -0.908776 0.839091 1.537716 -0.990457 0.040478 -0.740448 0.816270 -0.846504 0.681737 -1.661611 -0.586649 -1.011393 -1.609206 -0.672190 -1.496715 -1.278799 -0.262399 -0.171817 1.487180 -0.899632 -0.494423 -1.720751 -1.458353 -0.629770 -0.957346 -0.293168 -0.254366 -0.661843 -1.597911 0.370675 -1.984644 1.801387 -0.301056 1.099890 0.408098 0.601365 0.130055 -0.633645 -0.650405 -0.882467 0.403054 2.372486 -1.039716 -1.181905 0.181552 -1.236505 0.317282 0.520524 0.746232 0.611037 0.136678 -0.123939 0.052229 -0.782687 -0.941905 0.291087 1.426686 1.153382 -1.696119 -1.641318 1.109980 -1.520629 -0.137425 0.154213 -0.856499 0.354786 1.389576 -0.105025 -1.503618 0.984157 0.593092 -0.553759 0.960710 0.018287 -1.287968 -0.775520 2.317328 -0.633795 0.047641 1.576250 0.565980 -1.482530 0.474944 0.265304 -0.092273 2.714843 -0.854355 -0.545098 -1.569422 0.347609 0.841663 0.194465 -0.737919 0.905006 -0.430302 -0.743124 0.915817 1.212039 2.220035 0.306697 -0.261093 -1.377858 -0.252486 -0.351725 -0.078454 0.995769 -0.025549 -1.118659 -0.399811 0.614256 -0.374929 0.123456 0.560081 -1.129389 0.778197 0.114433 -0.565914 -0.454500 0.240888 0.801756 0.508525 1.939667 0.971912 0.297124 1.280417 -1.175606 -1.092250 -1.186799 0.858609 -0.310416 -0.274989 -1.373517 -0.076583 -0.570580 -0.543745 1.481102 -1.341962 -0.290822 0.738313 -0.025424 -1.356128 -1.146207 0.410569 -1.412140 -1.244317 0.442366 1.007310 0.255079 -0.267212 -2.243568 -0.319492 3.968166 0.605001 -0.384602 -0.062971 0.345495 -0.134909 -1.731482 1.071015 0.282505 0.878473 0.307891 0.508482 0.022381 0.157449 1.492867 0.052824 -0.212502 -0.129071 0.734213 -0.004662 -2.174395 0.430894 0.843509 -0.970509 2.187471 1.017816 -1.154427 0.931608 -1.366825 0.195312 -0.219824 -0.499407 -0.489779 2.571965 1.648363 -1.334470 1.464485 0.481664 0.959203 -0.149010 1.059305 -0.694140 -0.433253 -0.784438 0.021254 -1.622388 -0.722666 1.496916 1.087733 0.327610 0.619225 0.790342 -0.661608 0.891852 1.146272 1.273843 1.005578 -0.411001 0.029009 -0.535613 -1.224659 0.897366 0.985647 -0.821139 0.321029 -0.105858 -1.251776 -0.190228 1.791347 0.320486 -0.592323 -0.948985 0.241341 -0.398061 2.560252 -0.385442 -0.446587 2.079594 1.117406 -0.354438 -0.248680 -0.289683 3.274694 -0.465758 -1.050355 -2.178844 0.539365 0.505401 0.091377 -0.858646 -1.459257 0.640113 0.037215 -0.743596 0.723436 1.165587 -1.145349 -1.439993 -0.320118 -1.122468 -1.803824 0.558724 0.935168 0.783592 -0.418430 -1.367645 0.591396 1.092817 -0.893653 -1.036772 0.484422 -0.946945 -1.232942 0.590564 -1.158652 -1.756193 -0.668545 -0.654260 -1.371395 0.370272 0.350061 0.334441 0.481020 -0.878486 -0.616760 0.885056 -0.236484 0.340300 -1.275934 -1.633366 -1.134479 -0.224443 1.085558 -0.147532 0.656375 1.555168 0.849751 1.005150 -0.637255 -0.658781 2.149368 -0.050209 0.605310 -1.629640 1.127174 -0.323885 -0.316308 -0.359196 -1.361208 0.367043 -0.424474 0.435415 1.890723 -0.606313 -0.904556 0.133560 0.010361 -0.208821 -0.416073 0.303641 -0.440159 -1.560948 0.441280 0.243174 0.779207 -0.149973 2.844191 0.255997 -0.242486 -0.606185 1.595127 0.307668 -0.032906 -0.095453 -1.537199 -0.970411 0.096306 -1.583738 -0.044374 -0.182440 1.385236 -1.612449 -0.284285 0.716075 0.446391 -1.163095 -0.361517 -0.387743 -1.777472 0.159335 -1.407039 -1.269473 1.200155 0.200698 1.737548 1.543726 0.786757 1.682994 2.181356 0.276555 2.260015 0.205373 -0.593166 0.320300 1.654766 -0.222575 -0.242823 -2.303028 0.385690 0.262405 0.053812 -0.053525 -0.810428 1.852528 -0.501063 1.903040 0.023718 1.377473 -0.205066 -0.173820 -0.063384 -0.965209 0.632063 0.354985 -0.516753 1.946341 0.237432 -2.482748 1.106375 -2.217758 -0.569875 0.001487 -0.993097 0.058098 0.980422 -0.288542 -0.048630 0.750387 -0.186106 -0.321957 -0.349157 -1.083224 -0.879718 0.057511 -1.448692 -1.214457 -1.706802 0.072253 1.465470 -0.347179 -0.833902 -1.175493 -1.475738 0.997062 1.158238 0.597155 -1.696265 0.507701 0.803146 -0.791819 1.445643 -0.675980 1.529715 -0.830052 0.984436 -0.511227 -0.489605 -1.797799 -1.710784 -0.121485 0.348174 -0.517421 0.493069 -0.045158 1.049914 0.276536 0.140077 -0.082356 -0.269330 -0.246979 -0.252569 0.515396 -0.306909 -0.180336 -0.059047 -2.271849 0.356409 0.095486 -0.865010 0.765396 -0.820416 0.309065 -0.337678 1.213368 0.132670 0.664259 -0.847143 0.067455 2.328890 1.780614 -0.759330 0.982849 0.176184 0.200263 -0.646569 1.396062 0.121851 -1.392003 0.640724 -2.387871 0.295867 2.324765 -0.625924 1.754477 0.844876 -0.390532 -0.016410 -0.828675 -1.678181 1.100496 -0.139263 -0.153935 0.112177 -0.257870 -0.615036 -1.228957 0.265528 -0.952215 -0.276978 0.571225 0.570502 0.040765 -1.909778 0.789655 -1.051372 1.055680 2.111633 -0.649588 -0.855044 0.441394 -0.201415 0.380964 -0.077639 0.391319 -0.471947 1.352432 -0.103811 -0.752687 -0.547822 0.861722 -0.994435 -0.236118 -0.212506 1.320639 0.507277 -0.153972 -1.459542 0.258174 -0.633692 1.441968 0.181919 -0.641946 -0.185505 -0.622555 0.350370 0.779029 1.063325 0.015719 2.349454 -1.473182 1.999565 0.195378 -0.075381 -0.911994 0.463036 -1.131034 1.207298 0.325010 -0.434935 -0.169964 -1.492240 -0.458254 0.118656 1.281035 1.640503 -0.034360 0.468287 0.751122 -2.215651 0.263538 -0.310959 0.742425 1.235518 -1.020121 1.181941 -0.187226 0.762076 1.924733 0.384619 0.985535 0.873858 0.254300 -0.311035 1.947757 2.887829 -0.090925 0.077548 1.023270 0.207411 -0.501948 -1.307682 -1.359227 0.143949 1.550074 0.566566 -0.084952 0.350789 1.379911 1.933218 -0.825154 -0.114039 -0.201278 -2.367005 -0.356043 0.979450 1.316990 -0.333906 0.822713 0.319360 0.447923 1.188652 -0.047387 0.444002 0.304830 -1.095156 -0.712997 0.895340 -1.574955 -1.352795 0.331323 -0.566208 0.338473 -1.077683 -0.738636 -0.514346 -2.621023 0.790148 1.029857 -0.056950 0.927723 -0.424826 0.787515 0.025716 0.645136 1.701630 -0.415322 -2.388542 0.483851 -0.333683 -0.386483 -1.210601 -1.870964 -0.020737 -0.709341 3.201933 -0.431708 -0.207493 -1.197826 -1.601628 0.128297 -0.463410 -0.796935 -0.799864 -0.421908 0.092819 0.270593 -1.207091 -0.366553 0.266968 0.071594 0.019525 0.784886 -0.694010 -1.836318 0.836135 -0.294747 -0.532418 0.929348 1.460705 -0.079576 0.281721 -0.996135 -0.889884 -0.228835 -0.561127 -0.776320 -0.718220 -0.359393 0.709421 -0.020356 -0.695081 0.128405 -0.001219 1.393511 1.046214 0.135004 -0.421364 1.325543 0.387414 -0.582155 0.833173 -0.993665 -0.054998 0.039554 0.011647 -1.465713 -1.191757 0.533958 0.237531 0.859797 0.745364 -1.450364 -0.847405 0.898236 -1.714681 1.224759 2.180801 0.264805 0.644717 -1.238672 0.742406 -1.799006 -0.371001 -0.025054 -1.201383 -0.752507 -0.332619 -0.729865 -0.486533 -1.934016 0.481422 1.578295 1.909973 -1.920698 -0.441380 -0.766511 0.776205 -1.894010 -0.581561 -0.011232 -0.736959 2.033306 1.087128 1.023459 0.301335 0.342285 0.980368 0.478948 0.945728 -0.106649 -1.491899 2.690933 -0.797595 -1.396146 -1.150599 0.334444 0.167441 2.206250 -0.365629 -0.124189 0.326436 -0.994225 -0.189854 0.126625 1.200335 -0.616246 -0.260836 0.916327 -0.594286 -1.848570 1.277158 -0.112527 1.902992 -0.580893 1.269214 -0.834513 0.248761 0.980081 1.790949 -1.006064 2.148008 0.477418 0.625300 0.755517 -0.197181 0.450552 -0.601584 -0.572493 1.653657 -0.220191 -1.439796 0.500828 1.166379 0.894593 0.672160 -0.917181 -1.382835 -0.245409 1.952691 0.503473 -1.234757 -0.766483 1.865800 0.181467 0.141682 -0.019236 -0.169114 -0.032360 -2.158334 0.430141 -0.629152 0.867105 -2.158270 1.266252 0.441332 -2.544015 -0.352944 -0.525069 1.558747 -0.340524 -0.223495 0.070530 0.227908 -0.258468 -1.080955 -0.417412 0.883106 0.617676 -0.859882 -1.229561 -0.043329 -0.729094 0.001587 -0.305723 0.999226 -0.569671 -0.887777 0.306225 0.191443 0.782742 0.452407 1.004381 0.167631 0.370358 0.520248 -0.384572 0.304526 -0.686274 2.258608 0.285078 1.086017 -0.293802 -0.815051 0.221129 1.382117 1.534227 -0.461425 -0.927441 -1.851474 0.156943 -0.758762 -0.325797 -1.325089 -1.120413 -0.594991 -0.268941 -1.599952 -0.641011 -0.648149 0.836508 -0.099324 1.464480 -0.833144 0.305342 1.187724 -0.676086 -2.167709 -0.495743 0.870243 -0.191419 0.646265 -0.785355 -1.888443 0.965494 0.656880 0.174251 -0.101638 -0.028408 -1.965886 -0.639330 -0.550443 2.109297 -0.075735 -0.767362 1.207169 -0.259887 0.786786 0.525792 0.101090 -1.565286 0.928810 -1.408782 -1.956708 1.385453 0.182583 0.123300 0.960054 0.938141 0.222913 0.324396 1.020303 -0.196215 1.161025 0.163337 -0.624881 -0.374456 1.952310 -2.911490 -0.199653 1.957747 0.594892 -0.856427 -0.502639 -0.228952 -0.931060 -0.058534 -1.831870 -1.102006 -0.884931 -0.616133 -0.406762 0.401891 0.416207 -0.315763 0.618800 0.524437 1.105407 -1.342686 1.113405 -0.634478 0.145678 -0.588884 0.852273 -1.535876 0.971202 -0.606705 0.908036 0.038959 0.749468 -1.508331 0.254404 -0.517273 1.595853 0.424318 -1.179549 -0.727225 -1.207736 0.529723 0.895997 -1.073695 0.603795 -1.569512 2.002776 -0.521244 0.179545 0.091506 -1.592644 1.057855 -0.022239 0.664980 0.551685 -0.236621 -0.676636 0.197817 0.087872 0.553705 -0.466535 0.377442 1.161548 -1.868025 0.878825 0.596905 1.013006 0.778523 0.609287 -0.046637 0.837367 0.068902 -0.083828 1.912947 -0.096756 -0.758486 0.299187 0.296140 0.971848 -0.800224 -2.173464 1.888107 0.690933 0.597135 -0.189862 -0.062368 0.191991 0.934677 0.655870 -0.506966 1.022804 0.236806 -0.405940 -0.961637 1.357251 0.945071 -0.086720 1.516073 -0.170563 0.106128 0.278118 0.849057 0.466195 -0.529302 1.145753 -0.502180 -0.255867 -0.818644 1.437230 -2.656545 0.001370 -0.729763 0.755733 -0.001425 -0.682910 -1.069264 1.391462 1.174896 0.124007 -1.400967 1.180073 0.308358 -1.186548 -0.236338 -1.162907 -0.266769 -0.924203 -0.029473 -0.800032 0.867580 -1.304926 0.496947 0.438477 1.015050 0.136408 1.599635 1.410606 1.234493 -1.753173 -1.348673 -0.505713 -0.783085 -0.221688 -0.442967 0.457781 0.757812 1.057759 1.119818 -1.339803 0.356611 2.295791 0.081887 2.257766 -0.289384 -0.644699 -0.184190 0.517567 0.097751 -1.873203 -1.577786 0.244998 -1.205969 -0.826724 0.038353 -2.269525 -0.269841 1.999293 0.749146 0.654759 0.778740 0.205700 -0.409898 -0.372429 0.111419 -2.583550 -0.004343 -1.508925 0.268354 -1.106247 -0.081796 0.069447 1.480506 0.548991 1.915860 0.180012 -1.172158 -0.786865 -0.806292 1.210935 -0.175415 0.489150 -0.112159 -1.191753 0.196802 -0.674099 0.615823 -0.622252 -0.654890 0.373705 0.451033 1.349482 -1.073328 -0.821216 0.041847 -0.906849 0.605157 0.252437 -0.544581 0.545777 -0.789563 -1.216118 -0.359779 -1.305054 0.170740 0.677898 -0.885346 1.041364 1.099789 1.099660 -1.272983 0.386307 0.881430 0.434435 -1.146197 -0.210025 -1.590830 0.274402 0.935676 1.243664 1.683854 0.078762 -0.231764 0.048504 0.688468 -0.525861 -1.575618 0.026799 1.442609 0.570824 -0.751213 -0.391168 -0.231697 -0.986141 0.455835 1.440323 0.951913 1.038543 0.566855 0.080056 -0.566665 -1.379058 -0.077010 0.149908 0.632764 0.651171 -0.585429 1.488431 -0.061812 0.652078 -0.474845 0.020125 -1.553433 0.195895 0.970924 -0.012050 0.142086 -0.490571 -1.015972 0.665177 0.349543 0.067993 0.711359 0.719199 -0.623086 -1.026835 -0.804614 -0.179480 1.735502 -0.297522 0.580704 0.072407 0.449461 -1.611577 -0.727549 -0.212157 -2.120142 -0.331510 0.450404 0.478835 0.711967 -2.080064 -0.723069 -0.714330 -0.143759 0.259926 0.640840 -1.524079 0.675578 0.928520 0.774010 -0.984717 -1.722271 -0.764669 0.671425 1.165703 -1.361856 -0.948266 1.018079 0.223779 0.905309 -0.247173 -0.353732 -0.947400 -0.649718 0.179504 0.595330 0.370100 1.841782 0.196229 0.457658 -0.159770 1.291022 -1.413121 -0.689521 0.754418 -1.059632 0.025720 0.872348 -1.446256 -1.042626 0.645495 -0.396721 -1.274447 -0.327267 0.475721 1.149500 -0.387909 -0.152941 -0.095012 -0.819161 0.040981 -1.724379 -0.131092 -0.194982 -0.853705 0.223838 0.210247 0.276531 2.488271 1.269169 -0.369906 0.602871 0.570354 0.379208 0.091473 -0.877552 -0.824779 1.573749 2.077884 0.969380 -0.515479 1.351558 0.497183 -1.136172 0.347895 -0.891307 -1.640925 0.968746 -0.670901 -0.461235 1.245025 -0.366200 2.016164 0.872408 1.515466 1.304685 -0.353548 -0.094160 -0.958398 1.262432 -0.028155 -0.951953 1.587321 -0.078413 0.262549 0.376329 0.225426 0.068664 0.655051 1.250786 -0.524833 0.484266 -0.905799 -0.716046 -1.403968 -0.663857 0.696986 0.373742 1.220473 -0.187449 0.976872 -0.429784 1.820555 0.475417 1.533844 1.228971 -1.102141 -0.514679 0.400618 -0.586277 -0.045945 -0.330284 -0.318623 -1.571162 0.493496 -1.005343 -2.414513 -1.273616 0.945260 -0.167461 1.370343 0.609904 0.824846 1.819481 -0.578614 -2.027499 0.228309 -0.225051 -1.943291 2.049744 0.226500 -0.977126 1.930684 1.699921 0.569102 0.366239 0.271346 -0.620847 -1.273545 -1.016791 -1.084995 -1.836716 -0.029236 1.426851 0.477918 -0.771311 1.220958 -1.066398 -0.125269 0.432243 -0.063569 0.527132 0.507755 -0.010959 -0.511136 -1.005993 0.607819 -1.326833 0.175670 0.033109 -0.677536 0.498975 -2.385631 -0.320837 1.047907 0.563709 -0.351682 -0.978867 1.004195 0.978485 -1.353657 0.318921 -0.760532 1.533776 0.524008 -0.296514 -0.810132 0.940914 -1.325532 1.004951 0.555225 0.259620 -0.362617 0.674251 0.733524 0.560640 -1.766446 -0.039535 0.530212 -1.177050 -1.672544 -0.657224 -0.547967 0.317100 1.754438 -0.093199 1.571860 1.603137 1.522981 -0.920046 -0.833864 -0.105481 -1.199172 0.297511 0.030745 0.040431 0.367660 1.381716 -1.643562 0.888795 -0.912840 0.476268 -0.516338 -1.261038 0.617253 0.525147 -1.614130 -1.243606 -1.828991 0.608276 0.990697 -0.819103 0.203041 -1.057272 0.286826 0.301361 -0.039877 0.442190 -1.291362 1.375013 -0.260572 0.618910 -0.900961 2.159077 -0.496535 0.278773 -1.154869 -0.275740 -0.206435 -1.060047 -1.675225 -0.033794 -0.050148 0.771178 -0.025708 0.122163 0.279576 0.333319 -0.484003 -0.594071 -0.659774 0.095606 1.518416 -0.983376 1.599001 -2.236256 -0.898520 0.737542 0.171027 2.135017 -0.643446 -0.884115 -0.297636 1.389412 0.251786 -0.982767 1.264764 -0.511109 0.578954 1.444039 -1.091273 -0.841135 0.009528 1.346514 -0.650158 -0.577017 0.425154 -1.057818 1.575394 -0.278060 -0.392575 -0.339978 -1.002866 0.011315 0.583359 -1.091361 -0.147477 -1.542535 1.086251 1.565139 -0.315772 -0.883549 0.118885 -0.512022 -1.953741 -1.042226 1.030236 0.573324 -0.866378 1.121851 2.623706 -1.377996 -1.639029 -0.000841 0.998197 -1.005358 -0.163212 0.650423 0.696221 0.278230 -0.305628 0.358930 -2.165124 -0.371536 -0.521577 -1.446577 -0.402983 1.225136 -1.068378 -0.673742 0.358845 0.948777 -0.114582 -0.895369 0.750483 0.560058 0.567938 -0.196448 -0.210053 1.319573 1.039771 0.097175 1.531583 -0.225524 0.722257 -2.309279 0.256607 0.676319 0.214854 -0.535647 0.364178 -0.167570 -0.662452 -0.456055 -0.615695 -0.079058 1.277319 -1.188183 -0.771543 -0.395608 0.505305 1.797274 0.462968 1.089850 0.287972 1.298546 1.248586 1.620336 -1.057365 -0.226951 -1.687160 0.738874 1.153016 -0.025922 0.107535 -1.157714 0.903512 0.024844 0.543896 -0.543935 -0.614598 2.629288 -0.780530 0.318173 0.352877 0.234995 -0.515623 -1.316393 -0.432215 -2.070903 0.547564 -0.325051 1.147661 0.373513 -0.947000 -1.171126 2.001223 2.137687 1.433947 1.916732 0.346993 -0.723176 -1.009977 0.442643 1.181170 -0.346979 -1.033839 0.210822 -2.373644 -0.852828 -0.096942 0.150990 1.289678 -1.170419 1.710278 0.276411 0.530753 1.268251 -0.047236 0.558178 0.316415 0.315009 1.075723 -2.039058 1.490169 1.108772 1.519818 1.292365 -0.367125 -1.440722 -0.279670 -0.318371 -0.684803 0.530281 0.353858 -2.414407 0.028577 0.262449 0.097218 -0.839118 -0.839714 -1.427097 0.409647 1.959583 -1.408260 -1.002235 -0.587550 0.343801 0.215942 -0.027748 0.656578 -0.106613 -1.150389 0.104634 0.006945 1.318297 0.205326 -1.249727 0.004578 -0.512621 -2.478625 0.135595 -0.939297 -0.177866 -0.026895 0.985632 1.158162 -0.966808 -0.404624 0.393245 1.576245 1.110458 -0.619170 -0.206373 -2.021311 0.894801 -2.359991 -0.040091 0.479072 1.074832 -0.898361 1.209188 1.410918 -0.964272 -1.409538 -0.578329 0.680605 -1.101291 -0.050537 -0.581496 -0.206123 -0.506248 -1.050576 -0.961091 -0.251293 -0.259421 1.308721 -1.031441 2.467324 0.074775 -0.453113 -0.210551 -1.126330 -0.323201 0.939397 -2.304718 0.480724 -0.884530 -1.192777 -1.589167 0.023747 0.560102 -0.502447 -0.225812 -0.723306 1.110586 -0.442815 -0.440071 -2.016224 1.126255 0.071327 -1.514893 0.363599 -1.212699 -0.853645 0.048970 -0.204930 0.341548 0.173933 1.794720 0.809786 0.799913 -0.687017 0.830532 -2.507884 2.100480 0.584488 -0.533887 -0.200615 -0.721982 1.123676 -0.738859 -0.827256 -0.984928 -1.067117 0.661486 1.900064 1.509205 -0.854386 -1.096623 -1.442900 -0.690523 1.831378 -0.685720 -2.241557 0.728001 0.962041 0.247762 0.123394 -0.166673 -0.375375 1.098588 0.090774 0.649274 0.495217 -0.225108 0.654064 -0.333210 1.040306 0.604251 -1.124664 -0.110838 1.343867 0.291018 0.163648 -0.665381 1.642251 1.267228 -0.469754 1.112172 0.764186 0.638648 0.539556 -1.160530 0.416790 0.901127 0.629304 -1.799269 1.494066 -1.709696 0.108171 -0.703698 -0.150253 -0.260741 0.437812 -0.246151 0.550182 -0.190034 0.624769 0.412147 1.679472 0.528106 1.170728 1.077679 -2.027798 1.403124 0.150226 -0.943893 -0.185850 0.443379 0.435757 0.447797 -0.189710 0.596668 -1.065734 -2.350745 0.879914 1.796337 -0.963635 0.130281 0.374403 -0.196362 -0.010705 -0.163160 1.697032 1.809062 0.857915 0.289407 -0.228487 0.768781 0.485486 0.016422 0.396983 0.931367 0.970012 -2.603429 0.389052 -0.501455 0.788524 -0.325977 1.762840 -0.633146 -0.144604 0.357901 0.232536 0.731177 -0.410508 -1.159989 0.586205 -0.168767 -1.480916 0.300283 -2.073326 -0.971512 1.385621 -0.505963 1.128600 -0.389421 0.775684 -0.641592 -1.258985 1.838128 1.029693 0.752461 -0.687703 0.500865 -0.763812 -2.062476 1.867521 0.186153 0.668420 -0.700935 -0.925568 -0.349245 -0.259340 1.093657 -1.079266 -0.273997 -0.015835 -0.526649 0.565077 -0.327614 -3.298303 0.978083 0.603147 -0.396149 -0.987362 0.110265 1.815104 0.083322 0.939993 -0.846884 -0.010958 -1.366068 -1.202661 0.305818 -0.067409 -0.759350 0.308201 -0.279757 -0.763175 0.211681 0.785322 -0.335366 -0.320181 0.595105 0.563665 -1.654656 -0.490277 0.968319 0.549340 0.407178 0.389670 -1.005015 -0.560021 0.404438 0.094656 -0.995995 -2.398225 -1.113407 2.092583 0.156017 0.923773 0.147098 -1.092985 -0.548960 0.219815 2.743139 -0.481899 -0.323289 -0.601608 0.533550 -0.128224 -0.332152 -1.323430 1.621829 0.599279 0.682848 0.816738 0.841619 0.152159 1.614141 -1.093101 -0.377633 1.073329 -0.679079 -0.471020 -0.330996 -0.948524 -1.483513 -1.245412 0.326215 -0.733483 0.181940 -1.890679 0.144210 -1.201660 1.209444 0.833156 0.460805 0.557429 -0.064519 0.245074 -1.268468 0.283272 1.391107 -0.653105 -1.155104 0.007246 -2.037427 -0.830224 -0.112496 1.011174 -0.115693 0.095833 0.496724 1.387112 -0.184580 2.018433 -0.834801 1.409187 -0.303721 0.507048 -0.239242 -0.266939 -0.154150 0.473311 0.334212 -0.500233 1.155789 -0.441213 -0.257603 0.593094 0.347074 -1.266885 1.907966 -2.167499 -0.220112 -0.840607 -0.053516 1.361061 1.678358 0.064222 1.041805 -1.014226 2.322269 1.661921 -0.450263 -0.437567 -0.350619 -0.096514 -1.549899 0.113098 -1.632934 0.024530 -2.065607 -0.867494 -0.639875 -0.585913 0.330338 -0.549790 -0.343078 0.606556 1.333997 1.149590 -0.545450 -0.316161 0.529422 0.355593 -1.320122 0.254720 0.847985 0.731920 1.559306 -0.059977 0.870943 -1.385900 1.855175 1.243714 1.422353 -0.972741 -2.046643 0.169025 0.048566 -1.707052 -1.727529 -0.876571 -1.360507 1.344873 0.478350 0.438120 -0.894118 -1.195961 0.598501 -0.575542 -0.002863 -0.949178 0.004428 0.277309 -0.326726 -0.859088 2.174970 0.150476 0.862172 -0.673037 0.290235 -0.387579 -1.113089 -0.279096 2.382452 -0.418626 1.362589 -0.059268 -0.524481 0.509807 0.213164 -1.636965 1.302799 -0.508684 -0.269840 -1.453222 -0.285215 -0.984502 -1.752319 0.662063 1.707504 -0.836919 1.199088 -0.911857 0.964093 1.516744 -1.277153 0.240315 -0.016778 0.821119 -0.700943 0.228992 -0.494499 -1.957642 -0.784089 0.604079 0.939549 0.721543 -1.397320 0.737274 0.817150 2.150574 -1.419982 -2.108149 1.254829 -0.579760 1.774239 0.584722 1.230326 -0.118139 -1.970738 0.806015 -0.568372 0.612929 -1.228286 -0.284459 -0.657663 -0.284781 -0.767578 -0.083461 1.207269 2.326670 -1.716599 0.434271 -0.145966 0.642943 -1.090324 -1.237247 0.994176 0.660504 0.047265 0.287157 0.378731 1.213980 -1.224489 0.395478 0.781638 1.929296 -0.543398 -0.255095 0.023465 -0.689398 0.905236 1.145100 1.386462 -0.273528 0.174125 -0.239619 0.556020 0.276854 0.607693 2.504827 -0.159100 -0.463468 0.738697 0.625448 -1.121678 -0.453036 0.099308 -0.840332 0.218356 -0.376403 -0.224828 -0.082119 -0.759210 -0.662126 0.774803 -1.683701 0.894522 0.023630 0.094450 -0.496862 -1.095219 -0.114239 0.445025 -1.239711 -0.323324 -0.268563 1.388718 -1.716519 -1.273272 -0.281521 0.304063 0.901797 1.341011 -1.067759 0.206046 -0.220249 0.599958 -0.540060 -0.038075 -0.158663 0.624303 2.218977 -1.017089 -2.081824 0.657293 -0.429172 1.581757 0.239158 -0.562782 0.646712 -0.560795 -0.201160 0.314953 -0.113829 1.192690 -0.549527 -0.185029 -0.651796 0.323494 0.962882 0.505296 0.312005 0.304501 -0.261894 -1.482660 0.273713 0.703195 0.264648 1.645425 -0.020954 1.075000 0.464482 1.228073 0.118543 -0.187443 0.481451 -0.475207 -0.319606 -0.203156 0.567609 0.463221 -1.089616 -0.785987 2.306008 0.307866 -1.191565 0.615289 -0.982596 -0.724264 -0.616938 1.474004 0.202443 0.992900 -0.288448 0.733398 -0.697028 -2.823324 1.926661 -2.679187 0.605149 -1.682458 0.241624 0.543481 -0.217383 -1.431586 -1.336569 -0.424146 0.197081 -0.057599 -0.063454 0.096836 -1.062458 -0.586482 0.212899 -0.149875 -0.373641 0.360877 -0.354726 0.666699 -1.478086 -1.127984 0.433509 3.011850 0.046871 2.361773 0.063564 -0.271932 1.595451 -1.934520 -0.519063 2.018659 -1.568060 -0.316449 0.020648 -0.445648 -1.740773 -1.494187 -0.745224 -0.323600 1.147707 1.773047 0.207592 1.443668 0.841154 0.010346 -0.956359 1.759502 -0.467617 -1.995923 0.083240 0.145295 -0.533354 1.091715 1.524484 1.896884 0.250176 -0.179054 -0.021738 -0.152866 -1.089308 -0.530807 -0.744306 0.824188 1.589716 0.802431 0.214077 -0.331448 0.559214 0.235080 0.561113 -1.307479 1.105779 0.322347 1.191864 1.143147 -2.031824 -0.066311 1.286776 -0.695123 0.730833 -0.251684 -0.028978 -1.244633 1.373794 0.238679 -0.840779 2.312593 -1.128089 0.743757 0.044380 0.026985 0.718031 1.854717 0.033696 1.521790 -0.763204 0.322174 0.268506 -1.463929 0.839312 1.130890 0.180296 -0.355933 -0.002532 2.431002 1.163492 0.175793 -0.636535 -0.541019 1.878318 -0.060011 -2.380603 -0.481630 0.343582 0.336270 0.255888 1.659865 -0.039362 -0.425808 0.740477 0.472606 -1.338633 0.251870 0.818380 -1.610809 -0.347761 0.618836 -0.258290 -1.662403 0.899908 1.354852 -0.456996 -0.858793 0.201570 0.174620 -0.593693 -1.267722 0.258023 2.282952 -1.010264 0.214811 1.101658 -0.505615 -0.274414 0.377356 0.029629 -0.142797 0.753296 0.029528 0.121934 -1.196455 -1.652774 -2.228150 0.862620 -1.088250 1.202312 -1.046872 2.494342 -1.219503 -0.028280 -1.481074 1.306730 -0.718245 -0.093730 0.780877 0.773566 0.299944 -0.964083 1.457395 0.929651 0.538616 -1.044705 -0.098182 -1.409149 -1.818254 -0.811124 0.424435 -0.648661 1.038539 1.127686 0.508297 0.792898 -1.420468 0.963995 -0.330361 0.160232 -0.730471 0.875934 -0.498522 -0.931959 0.167583 -0.781301 0.671874 0.398439 -0.458155 2.007634 0.327399 -0.193488 -1.531558 -1.334677 0.899403 -1.174794 -1.102010 -0.162963 0.052865 -0.336308 0.624046 -1.740778 0.684661 0.468863 1.029368 -0.650109 0.309515 0.493673 -1.775192 1.556240 0.966109 -0.186463 -0.024467 -0.594260 -0.289662 -0.263199 -0.327636 -1.278225 0.262674 0.272271 1.050619 0.277954 0.395025 -0.255697 -0.922788 0.644841 0.194868 1.402804 0.388953 0.528637 -1.435592 -0.228054 -0.244272 0.114797 -0.258313 1.091738 -1.177186 0.890662 1.026387 -1.385648 0.304273 1.475772 0.247606 0.925905 -0.578027 0.491982 -0.239569 -0.924151 -0.195045 0.198843 0.051989 0.834390 0.851230 1.668756 0.087812 -0.493271 -0.429667 -0.618287 0.702303 -0.460484 0.307784 -1.794972 -0.406903 -0.132280 -1.017463 0.466586 -1.366376 0.397778 -0.279331 1.410788 -0.192692 -0.143917 -1.475097 0.924329 1.343944 0.121250 -0.611414 0.396577 -0.190113 -0.042121 1.344101 1.537998 0.392371 0.552089 0.733326 1.458508 -2.525588 -0.647053 -0.096316 0.281743 -1.323961 0.444763 0.562466 0.680764 0.143492 -0.596028 1.603452 1.873872 -0.007263 0.814050 -0.721668 -1.121654 1.356750 0.804129 0.336939 0.958435 -1.174963 2.376353 -0.175017 -0.150665 -0.272590 -1.216686 -0.241962 -1.085542 -0.889414 -0.022056 0.744208 -0.698855 1.037655 -0.511753 -0.343055 -0.238957 1.145724 0.771469 -0.189619 0.800883 -0.670436 -1.116456 -0.137442 -1.140535 -0.465585 0.932321 0.789512 0.877535 0.339945 -0.850289 -0.583721 -1.392771 -0.022500 -1.209078 -1.160470 -0.776631 1.831855 -0.461490 1.304725 0.440103 -0.392075 -0.231692 1.184433 -1.440005 -0.566789 -1.161808 -0.937527 0.734696 1.282413 -0.415787 1.300940 0.607323 0.718523 -0.091831 -1.664311 -0.042100 1.174152 0.824659 -0.043517 0.200195 -0.191044 0.088968 -1.415788 0.030188 1.870364 -0.131035 0.150779 0.472524 -0.041293 0.160194 -0.711234 -0.858550 