0.000000 0.000000 -0.000000 0.000000 0.000000 0.000000 -0.000000 -0.000000 -0.000000 0.000000 0.000000 -0.000000 0.000000 0.000000 0.000000 -0.000000 -0.000000 -0.000000 -0.000000 0.000000 0.000000 0.000000 0.000000 -0.000000 0.000000 0.000000 0.000000 0.000000 0.000000 -0.000000 0.000000 0.000000 0.000000 0.000000 0.000000 0.000000 0.000000 -0.000000 0.000000 -0.000000 0.000000 0.000000 0.000000 0.000000 0.000000 0.000000 0.000000 0.000000 0.000000 0.000000 0.000000 0.000000 0.000000 0.000000 0.000000 0.000000 0.000000 0.000000 0.000000 0.000000 0.000000 0.000000 -0.000000 -0.000000 0.000000 0.000000 0.000000 -0.000000 0.000000 0.000000 0.000000 0.000000 -0.000000 0.000000 0.000000 0.000000 0.000000 0.000000 0.000000 0.000000 -0.000000 0.000000 0.000000 0.000000 0.000000 0.000000 -0.000000 -0.000000 -0.000000 -0.000000 -0.000001 -0.000004 -0.000010 -0.000021 -0.000041 -0.000074 -0.000124 -0.000197 -0.000299 -0.000436 -0.000617 -0.000847 -0.001134 -0.001486 -0.001910 -0.002412 -0.002999 -0.003678 -0.004452 -0.005327 -0.006307 -0.007394 -0.008590 -0.009898 -0.011317 -0.012847 -0.014487 -0.016236 -0.018090 -0.020047 -0.022103 -0.024253 -0.026493 -0.028817 -0.031220 -0.033696 -0.036239 -0.038842 -0.041498 -0.044203 -0.046947 -0.049726 -0.052533 -0.055361 -0.058203 -0.061055 -0.063909 -0.066760 -0.069603 -0.072433 -0.075243 -0.078031 -0.080791 -0.083519 -0.086211 -0.088864 -0.091475 -0.094041 -0.096558 -0.099025 -0.101439 -0.103797 -0.106096 -0.108333 -0.110503 -0.112602 -0.114625 -0.116566 -0.118417 -0.120174 -0.121828 -0.123373 -0.124801 -0.126106 -0.127281 -0.128319 -0.129216 -0.129966 -0.130566 -0.131015 -0.131312 -0.131459 -0.131458 -0.131314 -0.131034 -0.130625 -0.130096 -0.129456 -0.128718 -0.127892 -0.126991 -0.126027 -0.125013 -0.123962 -0.122885 -0.121794 -0.120703 -0.119620 -0.118557 -0.117522 -0.116525 -0.115574 -0.114675 -0.113835 -0.113058 -0.112349 -0.111712 -0.111149 -0.110663 -0.110253 -0.109921 -0.109667 -0.109490 -0.109388 -0.109360 -0.109404 -0.109516 -0.109695 -0.109937 -0.110239 -0.110596 -0.111007 -0.111465 -0.111969 -0.112514 -0.113096 -0.113711 -0.114356 -0.115027 -0.115720 -0.116433 -0.117160 -0.117900 -0.118650 -0.119406 -0.120166 -0.120927 -0.121686 -0.122439 -0.123184 -0.123915 -0.124628 -0.125317 -0.125976 -0.126598 -0.127175 -0.127701 -0.128166 -0.128563 -0.128884 -0.129121 -0.129268 -0.129316 -0.129259 -0.129094 -0.128816 -0.128422 -0.127913 -0.127289 -0.126554 -0.125711 -0.124767 -0.123728 -0.122604 -0.121404 -0.120138 -0.118818 -0.117455 -0.116060 -0.114646 -0.113225 -0.111807 -0.110404 -0.109027 -0.107685 -0.106388 -0.105144 -0.103961 -0.102846 -0.101804 -0.100842 -0.099962 -0.099169 -0.098465 -0.097852 -0.097331 -0.096902 -0.096565 -0.096318 -0.096162 -0.096092 -0.096108 -0.096206 -0.096382 -0.096634 -0.096958 -0.097350 -0.097806 -0.098321 -0.098891 -0.099513 -0.100182 -0.100893 -0.101642 -0.102426 -0.103240 -0.104080 -0.104943 -0.105825 -0.106722 -0.107632 -0.108551 -0.109475 -0.110403 -0.111329 -0.112252 -0.113166 -0.114067 -0.114948 -0.115805 -0.116630 -0.117415 -0.118154 -0.118838 -0.119459 -0.120009 -0.120479 -0.120862 -0.121150 -0.121336 -0.121416 -0.121383 -0.121234 -0.120968 -0.120584 -0.120084 -0.119472 -0.118751 -0.117928 -0.117011 -0.116008 -0.114930 -0.113786 -0.112590 -0.111350 -0.110081 -0.108793 -0.107499 -0.106209 -0.104936 -0.103688 -0.102477 -0.101311 -0.100198 -0.099147 -0.098163 -0.097253 -0.096421 -0.095672 -0.095008 -0.094432 -0.093946 -0.093551 -0.093246 -0.093031 -0.092905 -0.092867 -0.092914 -0.093043 -0.093253 -0.093539 -0.093898 -0.094326 -0.094819 -0.095373 -0.095984 -0.096648 -0.097360 -0.098116 -0.098913 -0.099744 -0.100608 -0.101499 -0.102413 -0.103348 -0.104299 -0.105263 -0.106236 -0.107217 -0.108201 -0.109185 -0.110166 -0.111141 -0.112104 -0.113052 -0.113977 -0.114875 -0.115738 -0.116559 -0.117330 -0.118043 -0.118689 -0.119262 -0.119752 -0.120152 -0.120455 -0.120653 -0.120741 -0.120712 -0.120563 -0.120289 -0.119887 -0.119355 -0.118691 -0.117895 -0.116968 -0.115910 -0.114724 -0.113412 -0.111977 -0.110424 -0.108758 -0.106983 -0.105105 -0.103129 -0.101064 -0.098914 -0.096686 -0.094388 -0.092027 -0.089609 -0.087141 -0.084631 -0.082085 -0.079511 -0.076914 -0.074302 -0.071687 -0.069079 -0.066496 -0.063959 -0.061494 -0.059131 -0.056907 -0.054862 -0.053038 -0.051482 -0.050243 -0.049371 -0.048914 -0.048923 -0.049444 -0.050523 -0.052200 -0.054514 -0.057500 -0.061184 -0.065592 -0.070743 -0.076648 -0.083316 -0.090750 -0.098945 -0.107896 -0.117587 -0.128003 -0.139122 -0.150918 -0.163362 -0.176422 -0.190063 -0.204249 -0.218941 -0.234097 -0.249676 -0.265637 -0.281935 -0.298528 -0.315374 -0.332428 -0.349650 -0.366999 -0.384435 -0.401919 -0.419414 -0.436884 -0.454295 -0.471616 -0.488815 -0.505864 -0.522736 -0.539406 -0.555851 -0.572050 -0.587983 -0.603634 -0.618984 -0.634018 -0.648715 -0.663057 -0.677019 -0.690572 -0.703687 -0.716327 -0.728455 -0.740028 -0.751003 -0.761334 -0.770975 -0.779882 -0.788009 -0.795313 -0.801756 -0.807299 -0.811912 -0.815570 -0.818255 -0.819959 -0.820684 -0.820443 -0.819259 -0.817165 -0.814206 -0.810434 -0.805911 -0.800704 -0.794888 -0.788540 -0.781744 -0.774581 -0.767136 -0.759494 -0.751735 -0.743940 -0.736185 -0.728541 -0.721077 -0.713855 -0.706931 -0.700357 -0.694178 -0.688432 -0.683155 -0.678372 -0.674106 -0.670372 -0.667183 -0.664544 -0.662456 -0.660918 -0.659921 -0.659457 -0.659511 -0.660067 -0.661107 -0.662610 -0.664554 -0.666913 -0.669664 -0.672781 -0.676236 -0.680002 -0.684054 -0.688363 -0.692904 -0.697649 -0.702574 -0.707654 -0.712864 -0.718182 -0.723585 -0.729052 -0.734563 -0.740100 -0.745644 -0.751175 -0.756674 -0.762116 -0.767475 -0.772721 -0.777818 -0.782728 -0.787408 -0.791812 -0.795892 -0.799598 -0.802879 -0.805684 -0.807962 -0.809665 -0.810747 -0.811167 -0.810889 -0.809884 -0.808134 -0.805627 -0.802366 -0.798361 -0.793635 -0.788220 -0.782158 -0.775499 -0.768302 -0.760631 -0.752554 -0.744144 -0.735478 -0.726632 -0.717682 -0.708703 -0.699770 -0.690954 -0.682321 -0.673935 -0.665854 -0.658132 -0.650816 -0.643949 -0.637568 -0.631704 -0.626383 -0.621625 -0.617444 -0.613851 -0.610851 -0.608444 -0.606627 -0.605392 -0.604729 -0.604623 -0.605059 -0.606016 -0.607473 -0.609408 -0.611795 -0.614609 -0.617824 -0.621413 -0.625347 -0.629599 -0.634142 -0.638948 -0.643989 -0.649241 -0.654676 -0.660270 -0.665999 -0.671839 -0.677769 -0.683767 -0.689814 -0.695889 -0.701973 -0.708044 -0.714076 -0.720043 -0.725913 -0.731649 -0.737211 -0.742556 -0.747636 -0.752403 -0.756805 -0.760789 -0.764304 -0.767298 -0.769722 -0.771528 -0.772675 -0.773125 -0.772847 -0.771821 -0.770035 -0.767488 -0.764190 -0.760160 -0.755431 -0.750042 -0.744042 -0.737489 -0.730446 -0.722981 -0.715167 -0.707080 -0.698795 -0.690390 -0.681941 -0.673522 -0.665205 -0.657056 -0.649142 -0.641519 -0.634244 -0.627365 -0.620924 -0.614961 -0.609506 -0.604587 -0.600224 -0.596434 -0.593226 -0.590606 -0.588575 -0.587131 -0.586267 -0.585971 -0.586231 -0.587030 -0.588348 -0.590165 -0.592458 -0.595202 -0.598371 -0.601939 -0.605879 -0.610163 -0.614763 -0.619652 -0.624801 -0.630184 -0.635774 -0.641545 -0.647472 -0.653531 -0.659697 -0.665950 -0.672267 -0.678629 -0.685016 -0.691408 -0.697783 -0.704118 -0.710385 -0.716555 -0.722591 -0.728454 -0.734103 -0.739489 -0.744565 -0.749279 -0.753580 -0.757416 -0.760735 -0.763487 -0.765624 -0.767104 -0.767884 -0.767929 -0.767208 -0.765694 -0.763366 -0.760209 -0.756214 -0.751376 -0.745696 -0.739181 -0.731843 -0.723698 -0.714767 -0.705075 -0.694651 -0.683528 -0.671739 -0.659323 -0.646320 -0.632770 -0.618718 -0.604206 -0.589278 -0.573981 -0.558357 -0.542453 -0.526310 -0.509974 -0.493485 -0.476886 -0.460224 -0.443548 -0.426913 -0.410382 -0.394027 -0.377926 -0.362166 -0.346842 -0.332054 -0.317906 -0.304506 -0.291963 -0.280384 -0.269875 -0.260538 -0.252469 -0.245757 -0.240484 -0.236721 -0.234531 -0.233964 -0.235062 -0.237853 -0.242357 -0.248579 -0.256517 -0.266155 -0.277470 -0.290429 -0.304988 -0.321098 -0.338702 -0.357735 -0.378127 -0.399806 -0.422691 -0.446702 -0.471755 -0.497763 -0.524639 -0.552295 -0.580645 -0.609602 -0.639079 -0.668993 -0.699262 -0.729806 -0.760549 -0.791416 -0.822337 -0.853244 -0.884074 -0.914766 -0.945264 -0.975514 -1.005468 -1.035080 -1.064307 -1.093113 -1.121459 -1.149310 -1.176628 -1.203370 -1.229487 -1.254925 -1.279622 -1.303508 -1.326506 -1.348534 -1.369506 -1.389334 -1.407925 -1.425188 -1.441035 -1.455380 -1.468143 -1.479253 -1.488652 -1.496294 -1.502155 -1.506226 -1.508521 -1.509074 -1.507939 -1.505188 -1.500914 -1.495223 -1.488234 -1.480078 -1.470896 -1.460835 -1.450044 -1.438676 -1.426883 -1.414812 -1.402610 -1.390414 -1.378357 -1.366562 -1.355144 -1.344206 -1.333844 -1.324139 -1.315166 -1.306986 -1.299650 -1.293201 -1.287668 -1.283073 -1.279430 -1.276742 -1.275007 -1.274213 -1.274343 -1.275376 -1.277282 -1.280029 -1.283581 -1.287899 -1.292940 -1.298659 -1.305011 -1.311949 -1.319425 -1.327391 -1.335798 -1.344601 -1.353751 -1.363204 -1.372915 -1.382842 -1.392942 -1.403178 -1.413511 -1.423905 -1.434327 -1.444742 -1.455115 -1.465404 -1.475563 -1.485540 -1.495272 -1.504692 -1.513721 -1.522275 -1.530265 -1.537595 -1.544170 -1.549892 -1.554662 -1.558385 -1.560970 -1.562332 -1.562396 -1.561099 -1.558396 -1.554257 -1.548673 -1.541657 -1.533241 -1.523477 -1.512436 -1.500208 -1.486897 -1.472619 -1.457502 -1.441683 -1.425303 -1.408508 -1.391444 -1.374258 -1.357092 -1.340084 -1.323365 -1.307061 -1.291287 -1.276150 -1.261746 -1.248162 -1.235473 -1.223744 -1.213029 -1.203372 -1.194805 -1.187353 -1.181028 -1.175838 -1.171777 -1.168837 -1.166999 -1.166240 -1.166529 -1.167833 -1.170114 -1.173327 -1.177429 -1.182371 -1.188104 -1.194575 -1.201733 -1.209525 -1.217898 -1.226801 -1.236180 -1.245985 -1.256166 -1.266675 -1.277464 -1.288490 -1.299709 -1.311080 -1.322563 -1.334122 -1.345717 -1.357308 -1.368851 -1.380295 -1.391581 -1.402643 -1.413408 -1.423794 -1.433713 -1.443070 -1.451769 -1.459709 -1.466790 -1.472912 -1.477978 -1.481895 -1.484580 -1.485955 -1.485961 -1.484552 -1.481702 -1.477404 -1.471673 -1.464543 -1.456069 -1.446325 -1.435402 -1.423406 -1.410454 -1.396676 -1.382207 -1.367191 -1.351771 -1.336093 -1.320302 -1.304540 -1.288942 -1.273639 -1.258752 -1.244396 -1.230674 -1.217682 -1.205502 -1.194208 -1.183862 -1.174516 -1.166212 -1.158979 -1.152841 -1.147808 -1.143886 -1.141068 -1.139343 -1.138693 -1.139092 -1.140510 -1.142913 -1.146260 -1.150508 -1.155613 -1.161526 -1.168196 -1.175574 -1.183606 -1.192240 -1.201424 -1.211106 -1.221234 -1.231758 -1.242629 -1.253799 -1.265222 -1.276853 -1.288651 -1.300576 -1.312588 -1.324651 -1.336726 -1.348772 -1.360745 -1.372592 -1.384253 -1.395663 -1.406745 -1.417417 -1.427590 -1.437169 -1.446057 -1.454153 -1.461359 -1.467574 -1.472703 -1.476654 -1.479343 -1.480690 -1.480627 -1.479093 -1.476037 -1.471420 -1.465210 -1.457390 -1.447951 -1.436897 -1.424238 -1.409999 -1.394210 -1.376912 -1.358152 -1.337987 -1.316477 -1.293691 -1.269700 -1.244582 -1.218415 -1.191282 -1.163268 -1.134457 -1.104936 -1.074791 -1.044107 -1.012968 -0.981457 -0.949654 -0.917641 -0.885496 -0.853299 -0.821130 -0.789072 -0.757208 -0.725624 -0.694406 -0.663643 -0.633422 -0.603833 -0.574960 -0.546886 -0.519693 -0.493457 -0.468251 -0.444141 -0.421188 -0.399447 -0.378964 -0.359780 -0.341928 -0.325434 -0.310315 -0.296582 -0.284238 -0.273280 -0.263699 -0.255477 -0.248593 -0.243020 -0.238725 -0.235672 -0.233821 -0.233127 -0.233543 -0.235021 -0.237509 -0.240954 -0.245302 -0.250499 -0.256489 -0.263219 -0.270632 -0.278676 -0.287297 -0.296443 -0.306064 -0.316110 -0.326534 -0.337290 -0.348335 -0.359626 -0.371124 -0.382791 -0.394591 -0.406491 -0.418460 -0.430467 -0.442486 -0.454490 -0.466452 -0.478344 -0.490138 -0.501800 -0.513294 -0.524581 -0.535617 -0.546356 -0.556748 -0.566741 -0.576282 -0.585319 -0.593800 -0.601673 -0.608889 -0.615401 -0.621169 -0.626157 -0.630339 -0.633698 -0.636225 -0.637926 -0.638812 -0.638911 -0.638255 -0.636890 -0.634869 -0.632250 -0.629099 -0.625484 -0.621478 -0.617158 -0.612599 -0.607877 -0.603066 -0.598238 -0.593463 -0.588806 -0.584328 -0.580086 -0.576131 -0.572508 -0.569260 -0.566420 -0.564018 -0.562077 -0.560618 -0.559652 -0.559189 -0.559233 -0.559784 -0.560837 -0.562385 -0.564416 -0.566917 -0.569871 -0.573258 -0.577059 -0.581250 -0.585809 -0.590710 -0.595927 -0.601435 -0.607207 -0.613218 -0.619441 -0.625850 -0.632420 -0.639125 -0.645943 -0.652850 -0.659824 -0.666843 -0.673888 -0.680939 -0.687977 -0.694986 -0.701944 -0.708832 -0.715624 -0.722293 -0.728807 -0.735129 -0.741220 -0.747035 -0.752529 -0.757649 -0.762348 -0.766575 -0.770278 -0.773410 -0.775922 -0.777771 -0.778919 -0.779334 -0.778992 -0.777881 -0.775998 -0.773348 -0.769952 -0.765837 -0.761041 -0.755613 -0.749607 -0.743085 -0.736112 -0.728760 -0.721104 -0.713217 -0.705177 -0.697059 -0.688936 -0.680880 -0.672958 -0.665236 -0.657771 -0.650620 -0.643832 -0.637451 -0.631515 -0.626058 -0.621108 -0.616686 -0.612810 -0.609491 -0.606736 -0.604549 -0.602927 -0.601866 -0.601355 -0.601383 -0.601935 -0.602993 -0.604538 -0.606548 -0.608999 -0.611867 -0.615127 -0.618753 -0.622718 -0.626995 -0.631558 -0.636380 -0.641435 -0.646696 -0.652140 -0.657740 -0.663474 -0.669318 -0.675252 -0.681254 -0.687305 -0.693384 -0.699474 -0.705552 -0.711596 -0.717577 -0.723467 -0.729228 -0.734824 -0.740210 -0.745341 -0.750168 -0.754638 -0.758700 -0.762304 -0.765397 -0.767930 -0.769855 -0.771129 -0.771712 -0.771572 -0.770686 -0.769040 -0.766628 -0.763458 -0.759546 -0.754921 -0.749620 -0.743691 -0.737190 -0.730176 -0.722719 -0.714888 -0.706760 -0.698411 -0.689919 -0.681361 -0.672812 -0.664345 -0.656029 -0.647931 -0.640112 -0.632628 -0.625531 -0.618864 -0.612670 -0.606981 -0.601826 -0.597228 -0.593205 -0.589768 -0.586926 -0.584680 -0.583028 -0.581966 -0.581483 -0.581567 -0.582201 -0.583368 -0.585047 -0.587214 -0.589847 -0.592918 -0.596402 -0.600271 -0.604497 -0.609053 -0.613910 -0.619040 -0.624415 -0.630009 -0.635795 -0.641747 -0.647840 -0.654051 -0.660356 -0.666734 -0.673164 -0.679627 -0.686101 -0.692567 -0.699002 -0.705380 -0.711671 -0.717842 -0.723856 -0.729670 -0.735241 -0.740519 -0.745453 -0.749994 -0.754088 -0.757685 -0.760733 -0.763184 -0.764993 -0.766117 -0.766519 -0.766165 -0.765027 -0.763081 -0.760311 -0.756704 -0.752253 -0.746959 -0.740825 -0.733862 -0.726083 -0.717509 -0.708161 -0.698069 -0.687263 -0.675776 -0.663645 -0.650910 -0.637611 -0.623790 -0.609491 -0.594759 -0.579637 -0.564170 -0.548404 -0.532381 -0.516146 -0.499741 -0.483207 -0.466585 -0.449913 -0.433231 -0.416576 -0.399983 -0.383489 -0.367128 -0.350932 -0.334934 -0.319165 -0.303654 -0.288427 -0.273511 -0.258928 -0.244702 -0.230852 -0.217395 -0.204348 -0.191725 -0.179537 -0.167793 -0.156502 -0.145668 -0.135295 -0.125386 -0.115940 -0.106954 -0.098427 -0.090354 -0.082727 -0.075541 -0.068787 -0.062455 -0.056535 -0.051016 -0.045888 -0.041137 -0.036751 -0.032718 -0.029024 -0.025656 -0.022600 -0.019844 -0.017374 -0.015177 -0.013240 -0.011550 -0.010095 -0.008862 -0.007839 -0.007016 -0.006381 -0.005922 -0.005630 -0.005495 -0.005507 -0.005657 -0.005937 -0.006337 -0.006850 -0.007468 -0.008184 -0.008988 -0.009873 -0.010830 -0.011850 -0.012922 -0.014037 -0.015183 -0.016350 -0.017526 -0.018700 -0.019862 -0.021001 -0.022106 -0.023166 -0.024173 -0.025119 -0.025995 -0.026797 -0.027519 -0.028161 -0.028721 -0.029199 -0.029600 -0.029927 -0.030187 -0.030385 -0.030531 -0.030631 -0.030696 -0.030737 -0.030761 -0.030782 -0.030807 -0.030847 -0.030912 -0.031010 -0.031150 -0.031339 -0.031585 -0.031893 -0.032269 -0.032718 -0.033242 -0.033846 -0.034530 -0.035297 -0.036147 -0.037079 -0.038093 -0.039187 -0.040360 -0.041609 -0.042930 -0.044321 -0.045779 -0.047298 -0.048875 -0.050505 -0.052185 -0.053908 -0.055672 -0.057470 -0.059299 -0.061153 -0.063029 -0.064921 -0.066825 -0.068737 -0.070654 -0.072571 -0.074484 -0.076390 -0.078285 -0.080167 -0.082033 -0.083879 -0.085702 -0.087498 -0.089263 -0.090992 -0.092679 -0.094320 -0.095906 -0.097430 -0.098885 -0.100263 -0.101556 -0.102757 -0.103857 -0.104850 -0.105727 -0.106484 -0.107114 -0.107614 -0.107981 -0.108213 -0.108312 -0.108280 -0.108121 -0.107840 -0.107445 -0.106945 -0.106348 -0.105664 -0.104905 -0.104083 -0.103209 -0.102296 -0.101355 -0.100398 -0.099438 -0.098485 -0.097550 -0.096642 -0.095771 -0.094945 -0.094172 -0.093458 -0.092808 -0.092229 -0.091723 -0.091295 -0.090946 -0.090678 -0.090492 -0.090388 -0.090366 -0.090425 -0.090562 -0.090777 -0.091067 -0.091429 -0.091859 -0.092355 -0.092912 -0.093528 -0.094198 -0.094918 -0.095685 -0.096493 -0.097340 -0.098220 -0.099131 -0.100068 -0.101027 -0.102005 -0.102999 -0.104004 -0.105019 -0.106039 -0.107061 -0.108084 -0.109103 -0.110116 -0.111119 -0.112106 -0.113073 -0.114014 -0.114923 -0.115793 -0.116616 -0.117383 -0.118088 -0.118723 -0.119278 -0.119747 -0.120122 -0.120396 -0.120563 -0.120617 -0.120554 -0.120372 -0.120070 -0.119648 -0.119109 -0.118458 -0.117699 -0.116840 -0.115890 -0.114858 -0.113753 -0.112588 -0.111373 -0.110121 -0.108843 -0.107551 -0.106258 -0.104975 -0.103712 -0.102479 -0.101287 -0.100145 -0.099060 -0.098039 -0.097089 -0.096215 -0.095423 -0.094714 -0.094094 -0.093562 -0.093122 -0.092772 -0.092514 -0.092345 -0.092266 -0.092274 -0.092367 -0.092541 -0.092794 -0.093123 -0.093524 -0.093992 -0.094524 -0.095115 -0.095762 -0.096460 -0.097204 -0.097991 -0.098816 -0.099675 -0.100564 -0.101478 -0.102415 -0.103370 -0.104340 -0.105322 -0.106311 -0.107306 -0.108303 -0.109299 -0.110290 -0.111272 -0.112242 -0.113192 -0.114118 -0.115014 -0.115871 -0.116683 -0.117440 -0.118136 -0.118762 -0.119311 -0.119774 -0.120143 -0.120412 -0.120574 -0.120623 -0.120554 -0.120362 -0.120043 -0.119595 -0.119017 -0.118306 -0.117463 -0.116489 -0.115385 -0.114153 -0.112796 -0.111318 -0.109724 -0.108018 -0.106205 -0.104292 -0.102284 -0.100187 -0.098009 -0.095756 -0.093436 -0.091054 -0.088619 -0.086136 -0.083614 -0.081059 -0.078477 -0.075878 -0.073271 -0.070675 -0.068112 -0.065614 -0.063223 -0.060990 -0.058976 -0.057251 -0.055891 -0.054983 -0.054613 -0.054875 -0.055862 -0.057665 -0.060377 -0.064083 -0.068866 -0.074799 -0.081950 -0.090378 -0.100132 -0.111250 -0.123762 -0.137688 -0.153034 -0.169801 -0.187976 -0.207540 -0.228461 -0.250703 -0.274220 -0.298958 -0.324861 -0.351863 -0.379896 -0.408886 -0.438758 -0.469434 -0.500833 -0.532874 -0.565474 -0.598553 -0.632029 -0.665821 -0.699852 -0.734044 -0.768323 -0.802617 -0.836859 -0.870981 -0.904920 -0.938619 -0.972021 -1.005075 -1.037730 -1.069943 -1.101673 -1.132881 -1.163533 -1.193597 -1.223041 -1.251832 -1.279933 -1.307300 -1.333885 -1.359631 -1.384473 -1.408340 -1.431155 -1.452836 -1.473297 -1.492451 -1.510210 -1.526488 -1.541201 -1.554271 -1.565629 -1.575216 -1.582988 -1.588916 -1.592994 -1.595233 -1.595666 -1.594344 -1.591340 -1.586744 -1.580663 -1.573215 -1.564532 -1.554756 -1.544034 -1.532518 -1.520362 -1.507720 -1.494744 -1.481581 -1.468373 -1.455256 -1.442357 -1.429793 -1.417673 -1.406095 -1.395145 -1.384901 -1.375429 -1.366782 -1.359006 -1.352135 -1.346194 -1.341200 -1.337158 -1.334069 -1.331924 -1.330710 -1.330404 -1.330981 -1.332411 -1.334659 -1.337687 -1.341453 -1.345916 -1.351029 -1.356746 -1.363021 -1.369807 -1.377055 -1.384720 -1.392754 -1.401113 -1.409753 -1.418630 -1.427703 -1.436934 -1.446285 -1.455719 -1.465203 -1.474704 -1.484184 -1.493606 -1.502925 -1.512088 -1.521037 -1.529704 -1.538013 -1.545881 -1.553220 -1.559937 -1.565934 -1.571113 -1.575377 -1.578629 -1.580777 -1.581734 -1.581422 -1.579775 -1.576741 -1.572287 -1.566396 -1.559074 -1.550347 -1.540263 -1.528886 -1.516300 -1.502606 -1.487917 -1.472359 -1.456065 -1.439178 -1.421843 -1.404207 -1.386417 -1.368617 -1.350949 -1.333547 -1.316539 -1.300044 -1.284173 -1.269025 -1.254692 -1.241252 -1.228774 -1.217315 -1.206923 -1.197634 -1.189475 -1.182462 -1.176603 -1.171898 -1.168338 -1.165907 -1.164583 -1.164337 -1.165137 -1.166943 -1.169715 -1.173406 -1.177970 -1.183355 -1.189511 -1.196385 -1.203922 -1.212071 -1.220776 -1.229987 -1.239649 -1.249714 -1.260130 -1.270850 -1.281828 -1.293020 -1.304383 -1.315877 -1.327463 -1.339103 -1.350757 -1.362383 -1.373932 -1.385348 -1.396569 -1.407523 -1.418132 -1.428309 -1.437964 -1.446999 -1.455315 -1.462812 -1.469389 -1.474948 -1.479393 -1.482638 -1.484603 -1.485223 -1.484446 -1.482241 -1.478595 -1.473515 -1.467031 -1.459192 -1.450065 -1.439735 -1.428303 -1.415885 -1.402604 -1.388594 -1.373995 -1.358950 -1.343605 -1.328102 -1.312583 -1.297185 -1.282038 -1.267267 -1.252986 -1.239302 -1.226310 -1.214097 -1.202738 -1.192299 -1.182832 -1.174383 -1.166985 -1.160662 -1.155428 -1.151289 -1.148244 -1.146282 -1.145387 -1.145535 -1.146699 -1.148844 -1.151933 -1.155924 -1.160773 -1.166433 -1.172855 -1.179988 -1.187782 -1.196184 -1.205142 -1.214606 -1.224523 -1.234845 -1.245521 -1.256504 -1.267749 -1.279210 -1.290846 -1.302617 -1.314483 -1.326407 -1.338353 -1.350280 -1.362144 -1.373895 -1.385474 -1.396818 -1.407851 -1.418493 -1.428657 -1.438249 -1.447171 -1.455325 -1.462610 -1.468927 -1.474178 -1.478273 -1.481123 -1.482649 -1.482781 -1.481455 -1.478618 -1.474230 -1.468256 -1.460678 -1.451483 -1.440674 -1.428260 -1.414261 -1.398708 -1.381638 -1.363100 -1.343145 -1.321836 -1.299238 -1.275422 -1.250465 -1.224445 -1.197444 -1.169547 -1.140837 -1.111402 -1.081327 -1.050697 -1.019597 -0.988111 -0.956318 -0.924299 -0.892130 -0.859885 -0.827636 -0.795453 -0.763402 -0.731547 -0.699949 -0.668667 -0.637755 -0.607267 -0.577252 -0.547752 -0.518811 -0.490466 -0.462752 -0.435700 -0.409339 -0.383692 -0.358780 -0.334620 -0.311227 -0.288611 -0.266780 -0.245738 -0.225488 -0.206030 -0.187360 -0.169473 -0.152362 -0.136018 -0.120429 -0.105584 -0.091467 -0.078065 -0.065360 -0.053337 -0.041976 -0.031260 -0.021169 -0.011685 -0.002787 0.005543 0.013327 0.020582 0.027329 0.033587 0.039376 0.044713 0.049618 0.054108 0.058201 0.061915 0.065264 0.068267 0.070937 0.073291 0.075343 0.077106 0.078595 0.079822 0.080801 0.081543 0.082062 0.082371 0.082484 0.082414 0.082175 0.081782 0.081250 0.080595 0.079832 0.078975 0.078038 0.077037 0.075985 0.074895 0.073780 0.072652 0.071520 0.070392 0.069277 0.068178 0.067099 0.066040 0.065002 0.063983 0.062978 0.061983 0.060993 0.060003 0.059004 0.057990 0.056952 0.055883 0.054776 0.053622 0.052415 0.051149 0.049816 0.048411 0.046931 0.045370 0.043727 0.041997 0.040180 0.038275 0.036281 0.034200 0.032031 0.029778 0.027442 0.025027 0.022535 0.019971 0.017339 0.014644 0.011890 0.009082 0.006226 0.003326 0.000389 -0.002580 -0.005577 -0.008594 -0.011628 -0.014673 -0.017724 -0.020775 -0.023823 -0.026862 -0.029887 -0.032896 -0.035883 -0.038846 -0.041779 -0.044681 -0.047548 -0.050376 -0.053162 -0.055901 -0.058590 -0.061222 -0.063792 -0.066294 -0.068721 -0.071065 -0.073317 -0.075471 -0.077518 -0.079452 -0.081265 -0.082949 -0.084497 -0.085905 -0.087167 -0.088280 -0.089241 -0.090051 -0.090710 -0.091223 -0.091593 -0.091827 -0.091932 -0.091920 -0.091798 -0.091578 -0.091272 -0.090890 -0.090446 -0.089952 -0.089421 -0.088864 -0.088294 -0.087722 -0.087158 -0.086614 -0.086097 -0.085616 -0.085179 -0.084793 -0.084464 -0.084196 -0.083994 -0.083860 -0.083798 -0.083808 -0.083893 -0.084051 -0.084284 -0.084589 -0.084966 -0.085412 -0.085926 -0.086504 -0.087143 -0.087841 -0.088594 -0.089398 -0.090249 -0.091143 -0.092078 -0.093048 -0.094050 -0.095080 -0.096134 -0.097208 -0.098300 -0.099405 -0.100520 -0.101642 -0.102768 -0.103895 -0.105020 -0.106141 -0.107253 -0.108355 -0.109442 -0.110510 -0.111553 -0.112566 -0.113542 -0.114474 -0.115355 -0.116176 -0.116929 -0.117608 -0.118204 -0.118710 -0.119117 -0.119420 -0.119613 -0.119690 -0.119648 -0.119484 -0.119198 -0.118792 -0.118267 -0.117630 -0.116884 -0.116039 -0.115104 -0.114087 -0.112999 -0.111851 -0.110655 -0.109422 -0.108165 -0.106896 -0.105627 -0.104368 -0.103131 -0.101925 -0.100761 -0.099647 -0.098592 -0.097601 -0.096681 -0.095838 -0.095077 -0.094399 -0.093809 -0.093308 -0.092897 -0.092577 -0.092347 -0.092207 -0.092155 -0.092189 -0.092307 -0.092506 -0.092782 -0.093133 -0.093554 -0.094042 -0.094593 -0.095202 -0.095865 -0.096578 -0.097336 -0.098136 -0.098973 -0.099842 -0.100740 -0.101664 -0.102608 -0.103570 -0.104545 -0.105532 -0.106526 -0.107524 -0.108523 -0.109521 -0.110512 -0.111495 -0.112462 -0.113410 -0.114332 -0.115222 -0.116072 -0.116875 -0.117621 -0.118304 -0.118915 -0.119447 -0.119891 -0.120241 -0.120489 -0.120629 -0.120654 -0.120560 -0.120343 -0.119998 -0.119524 -0.118919 -0.118181 -0.117312 -0.116311 -0.115180 -0.113923 -0.112541 -0.111039 -0.109422 -0.107694 -0.105860 -0.103926 -0.101900 -0.099786 -0.097592 -0.095324 -0.092990 -0.090597 -0.088151 -0.085659 -0.083129 -0.080568 -0.077981 -0.075378 -0.072769 -0.070171 -0.067608 -0.065111 -0.062722 -0.060491 -0.058481 -0.056760 -0.055407 -0.054504 -0.054141 -0.054411 -0.055405 -0.057217 -0.059937 -0.063653 -0.068445 -0.074388 -0.081549 -0.089987 -0.099751 -0.110880 -0.123403 -0.137339 -0.152697 -0.169474 -0.187660 -0.207234 -0.228166 -0.250418 -0.273945 -0.298694 -0.324607 -0.351619 -0.379661 -0.408661 -0.438543 -0.469228 -0.500636 -0.532685 -0.565294 -0.598381 -0.631865 -0.665665 -0.699703 -0.733903 -0.768190 -0.802491 -0.836740 -0.870868 -0.904815 -0.938520 -0.971928 -1.004987 -1.037648 -1.069867 -1.101602 -1.132815 -1.163472 -1.193541 -1.222990 -1.251786 -1.279891 -1.307263 -1.333852 -1.359601 -1.384447 -1.408318 -1.431137 -1.452821 -1.473286 -1.492443 -1.510205 -1.526485 -1.541201 -1.554274 -1.565634 -1.575220 -1.582988 -1.588908 -1.592970 -1.595184 -1.595581 -1.594211 -1.591144 -1.586470 -1.580292 -1.572730 -1.563916 -1.553990 -1.543100 -1.531399 -1.519042 -1.506184 -1.492978 -1.479573 -1.466114 -1.452737 -1.439571 -1.426737 -1.414344 -1.402493 -1.391273 -1.380762 -1.371027 -1.362126 -1.354104 -1.346997 -1.340832 -1.335625 -1.331384 -1.328111 -1.325796 -1.324427 -1.323983 -1.324438 -1.325761 -1.327919 -1.330872 -1.334580 -1.339000 -1.344085 -1.349789 -1.356066 -1.362866 -1.370142 -1.377847 -1.385934 -1.394356 -1.403069 -1.412029 -1.421195 -1.430526 -1.439984 -1.449533 -1.459139 -1.468766 -1.478380 -1.487942 -1.497410 -1.506731 -1.515849 -1.524697 -1.533201 -1.541280 -1.548846 -1.555805 -1.562063 -1.567520 -1.572079 -1.575644 -1.578120 -1.579419 -1.579462 -1.578180 -1.575518 -1.571437 -1.565920 -1.558967 -1.550600 -1.540863 -1.529815 -1.517540 -1.504132 -1.489704 -1.474378 -1.458288 -1.441574 -1.424380 -1.406854 -1.389143 -1.371392 -1.353743 -1.336332 -1.319288 -1.302733 -1.286778 -1.271527 -1.257070 -1.243491 -1.230859 -1.219234 -1.208666 -1.199193 -1.190844 -1.183637 -1.177583 -1.172681 -1.168925 -1.166301 -1.164788 -1.164357 -1.164978 -1.166613 -1.169220 -1.172755 -1.177171 -1.182418 -1.188444 -1.195198 -1.202626 -1.210674 -1.219289 -1.228418 -1.238008 -1.248010 -1.258372 -1.269048 -1.279989 -1.291151 -1.302492 -1.313971 -1.325550 -1.337189 -1.348850 -1.360491 -1.372064 -1.383516 -1.394785 -1.405801 -1.416488 -1.426760 -1.436528 -1.445695 -1.454164 -1.461832 -1.468600 -1.474369 -1.479043 -1.482532 -1.484754 -1.485637 -1.485127 -1.483182 -1.479783 -1.474929 -1.468641 -1.460959 -1.451946 -1.441679 -1.430256 -1.417786 -1.404391 -1.390204 -1.375363 -1.360015 -1.344304 -1.328377 -1.312380 -1.296453 -1.280732 -1.265347 -1.250418 -1.236056 -1.222366 -1.209438 -1.197354 -1.186185 -1.175991 -1.166821 -1.158713 -1.151697 -1.145791 -1.141005 -1.137340 -1.134790 -1.133340 -1.132970 -1.133654 -1.135358 -1.138046 -1.141677 -1.146207 -1.151590 -1.157776 -1.164714 -1.172352 -1.180637 -1.189516 -1.198937 -1.208847 -1.219194 -1.229928 -1.240999 -1.252359 -1.263963 -1.275767 -1.287727 -1.299805 -1.311961 -1.324158 -1.336358 -1.348518 -1.360593 -1.372528 -1.384262 -1.395727 -1.406845 -1.417534 -1.427702 -1.437255 -1.446094 -1.454119 -1.461230 -1.467328 -1.472318 -1.476111 -1.478621 -1.479773 -1.479499 -1.477740 -1.474448 -1.469584 -1.463122 -1.455044 -1.445345 -1.434029 -1.421111 -1.406615 -1.390575 -1.373032 -1.354037 -1.333645 -1.311921 -1.288932 -1.264752 -1.239458 -1.213130 -1.185852 -1.157707 -1.128781 -1.099161 -1.068932 -1.038180 -1.006988 -0.975439 -0.943614 -0.911593 -0.879456 -0.847284 -0.815158 -0.783162 -0.751382 -0.719903 -0.688815 -0.658205 -0.628164 -0.598779 -0.570135 -0.542315 -0.515400 -0.489466 -0.464582 -0.440815 -0.418223 -0.396858 -0.376766 -0.357984 -0.340543 -0.324465 -0.309767 -0.296456 -0.284533 -0.273992 -0.264822 -0.257004 -0.250515 -0.245325 -0.241400 -0.238702 -0.237190 -0.236819 -0.237541 -0.239306 -0.242061 -0.245755 -0.250332 -0.255739 -0.261919 -0.268818 -0.276383 -0.284559 -0.293293 -0.302534 -0.312233 -0.322340 -0.332809 -0.343594 -0.354654 -0.365946 -0.377432 -0.389074 -0.400839 -0.412692 -0.424604 -0.436546 -0.448490 -0.460411 -0.472282 -0.484073 -0.495755 -0.507293 -0.518650 -0.529784 -0.540651 -0.551202 -0.561388 -0.571155 -0.580452 -0.589225 -0.597423 -0.604994 -0.611891 -0.618069 -0.623490 -0.628123 -0.631945 -0.634944 -0.637118 -0.638476 -0.639037 -0.638830 -0.637896 -0.636283 -0.634047 -0.631249 -0.627955 -0.624238 -0.620171 -0.615828 -0.611287 -0.606620 -0.601900 -0.597199 -0.592582 -0.588113 -0.583850 -0.579845 -0.576148 -0.572801 -0.569841 -0.567300 -0.565205 -0.563576 -0.562429 -0.561775 -0.561621 -0.561968 -0.562813 -0.564151 -0.565973 -0.568265 -0.571012 -0.574198 -0.577801 -0.581801 -0.586174 -0.590897 -0.595944 -0.601291 -0.606910 -0.612777 -0.618865 -0.625149 -0.631602 -0.638201 -0.644922 -0.651740 -0.658633 -0.665581 -0.672562 -0.679558 -0.686549 -0.693517 -0.700445 -0.707311 -0.714093 -0.720765 -0.727295 -0.733650 -0.739791 -0.745675 -0.751258 -0.756489 -0.761319 -0.765699 -0.769577 -0.772904 -0.775631 -0.777713 -0.779110 -0.779788 -0.779721 -0.778893 -0.777297 -0.774938 -0.771829 -0.767998 -0.763478 -0.758314 -0.752560 -0.746275 -0.739523 -0.732373 -0.724897 -0.717172 -0.709271 -0.701270 -0.693243 -0.685261 -0.677392 -0.669701 -0.662250 -0.655092 -0.648279 -0.641856 -0.635864 -0.630335 -0.625301 -0.620783 -0.616800 -0.613365 -0.610487 -0.608169 -0.606411 -0.605209 -0.604555 -0.604437 -0.604842 -0.605752 -0.607149 -0.609011 -0.611316 -0.614041 -0.617161 -0.620649 -0.624480 -0.628627 -0.633064 -0.637764 -0.642701 -0.647850 -0.653185 -0.658682 -0.664317 -0.670068 -0.675913 -0.681831 -0.687802 -0.693807 -0.699827 -0.705842 -0.711827 -0.717757 -0.723603 -0.729331 -0.734901 -0.740273 -0.745400 -0.750235 -0.754725 -0.758820 -0.762467 -0.765615 -0.768214 -0.770217 -0.771579 -0.772262 -0.772235 -0.771476 -0.769971 -0.767719 -0.764728 -0.761018 -0.756617 -0.751565 -0.745909 -0.739706 -0.733018 -0.725910 -0.718453 -0.710721 -0.702789 -0.694731 -0.686622 -0.678535 -0.670539 -0.662700 -0.655083 -0.647744 -0.640736 -0.634107 -0.627901 -0.622154 -0.616897 -0.612156 -0.607952 -0.604301 -0.601213 -0.598694 -0.596745 -0.595363 -0.594541 -0.594271 -0.594538 -0.595327 -0.596619 -0.598393 -0.600629 -0.603302 -0.606386 -0.609857 -0.613688 -0.617853 -0.622323 -0.627073 -0.632076 -0.637304 -0.642734 -0.648338 -0.654093 -0.659976 -0.665963 -0.672033 -0.678166 -0.684341 -0.690540 -0.696742 -0.702927 -0.709070 -0.715143 -0.721115 -0.726950 -0.732608 -0.738046 -0.743217 -0.748071 -0.752558 -0.756623 -0.760216 -0.763287 -0.765786 -0.767666 -0.768884 -0.769398 -0.769176 -0.768185 -0.766400 -0.763803 -0.760377 -0.756116 -0.751015 -0.745077 -0.738309 -0.730724 -0.722340 -0.713177 -0.703262 -0.692624 -0.681296 -0.669314 -0.656714 -0.643538 -0.629827 -0.615623 -0.600972 -0.585917 -0.570502 -0.554773 -0.538774 -0.522547 -0.506137 -0.489584 -0.472930 -0.456213 -0.439472 -0.422744 -0.406065 -0.389472 -0.372997 -0.356674 -0.340536 -0.324611 -0.308931 -0.293524 -0.278414 -0.263627 -0.249185 -0.235109 -0.221418 -0.208129 -0.195256 -0.182813 -0.170811 -0.159257 -0.148159 -0.137522 -0.127349 -0.117640 -0.108396 -0.099613 -0.091288 -0.083416 -0.075991 -0.069005 -0.062449 -0.056314 -0.050589 -0.045263 -0.040324 -0.035760 -0.031559 -0.027706 -0.024190 -0.020997 -0.018113 -0.015525 -0.013220 -0.011184 -0.009405 -0.007869 -0.006564 -0.005479 -0.004600 -0.003917 -0.003419 -0.003094 -0.002933 -0.002925 -0.003061 -0.003331 -0.003728 -0.004243 -0.004867 -0.005593 -0.006414 -0.007321 -0.008306 -0.009359 -0.010473 -0.011636 -0.012839 -0.014072 -0.015322 -0.016579 -0.017832 -0.019069 -0.020281 -0.021457 -0.022586 -0.023659 -0.024668 -0.025606 -0.026467 -0.027246 -0.027941 -0.028551 -0.029077 -0.029522 -0.029889 -0.030186 -0.030419 -0.030595 -0.030723 -0.030813 -0.030874 -0.030917 -0.030952 -0.030990 -0.031039 -0.031111 -0.031214 -0.031357 -0.031547 -0.031792 -0.032098 -0.032471 -0.032915 -0.033434 -0.034031 -0.034709 -0.035469 -0.036311 -0.037235 -0.038242 -0.039329 -0.040494 -0.041735 -0.043050 -0.044435 -0.045886 -0.047400 -0.048971 -0.050597 -0.052273 -0.053993 -0.055753 -0.057549 -0.059376 -0.061229 -0.063103 -0.064995 -0.066899 -0.068812 -0.070729 -0.072647 -0.074561 -0.076469 -0.078366 -0.080250 -0.082118 -0.083966 -0.085792 -0.087591 -0.089360 -0.091094 -0.092787 -0.094433 -0.096027 -0.097560 -0.099025 -0.100414 -0.101720 -0.102935 -0.104051 -0.105060 -0.105956 -0.106731 -0.107381 -0.107902 -0.108289 -0.108542 -0.108662 -0.108649 -0.108509 -0.108246 -0.107867 -0.107381 -0.106796 -0.106123 -0.105372 -0.104555 -0.103684 -0.102772 -0.101829 -0.100869 -0.099903 -0.098942 -0.097996 -0.097077 -0.096192 -0.095351 -0.094561 -0.093830 -0.093162 -0.092563 -0.092037 -0.091588 -0.091218 -0.090929 -0.090722 -0.090598 -0.090555 -0.090593 -0.090711 -0.090906 -0.091177 -0.091520 -0.091933 -0.092413 -0.092954 -0.093555 -0.094211 -0.094918 -0.095672 -0.096469 -0.097305 -0.098176 -0.099078 -0.100007 -0.100959 -0.101931 -0.102918 -0.103919 -0.104929 -0.105945 -0.106965 -0.107986 -0.109004 -0.110016 -0.111018 -0.112006 -0.112976 -0.113920 -0.114834 -0.115710 -0.116541 -0.117318 -0.118034 -0.118681 -0.119251 -0.119736 -0.120129 -0.120421 -0.120608 -0.120683 -0.120642 -0.120483 -0.120203 -0.119803 -0.119286 -0.118655 -0.117916 -0.117075 -0.116142 -0.115123 -0.114031 -0.112876 -0.111668 -0.110421 -0.109146 -0.107855 -0.106560 -0.105272 -0.104003 -0.102763 -0.101561 -0.100407 -0.099308 -0.098273 -0.097307 -0.096417 -0.095607 -0.094880 -0.094241 -0.093691 -0.093231 -0.092862 -0.092585 -0.092398 -0.092300 -0.092290 -0.092365 -0.092522 -0.092760 -0.093073 -0.093458 -0.093913 -0.094432 -0.095011 -0.095646 -0.096334 -0.097069 -0.097847 -0.098664 -0.099516 -0.100398 -0.101308 -0.102240 -0.103191 -0.104158 -0.105137 -0.106124 -0.107118 -0.108114 -0.109110 -0.110102 -0.111086 -0.112058 -0.113013 -0.113944 -0.114846 -0.115711 -0.116532 -0.117300 -0.118008 -0.118649 -0.119213 -0.119694 -0.120082 -0.120372 -0.120555 -0.120627 -0.120582 -0.120414 -0.120121 -0.119699 -0.119147 -0.118462 -0.117646 -0.116698 -0.115619 -0.114412 -0.113080 -0.111626 -0.110055 -0.108370 -0.106579 -0.104685 -0.102695 -0.100615 -0.098453 -0.096215 -0.093907 -0.091537 -0.089112 -0.086638 -0.084123 -0.081574 -0.078997 -0.076399 -0.073791 -0.071187 -0.068607 -0.066080 -0.063642 -0.061342 -0.059237 -0.057392 -0.055882 -0.054789 -0.054200 -0.054205 -0.054899 -0.056373 -0.058720 -0.062028 -0.066380 -0.071855 -0.078522 -0.086443 -0.095672 -0.106251 -0.118214 -0.131583 -0.146372 -0.162583 -0.180208 -0.199230 -0.219623 -0.241353 -0.264376 -0.288643 -0.314098 -0.340678 -0.368317 -0.396944 -0.426482 -0.456856 -0.487984 -0.519787 -0.552183 -0.585088 -0.618423 -0.652107 -0.686059 -0.720204 -0.754464 -0.788769 -0.823047 -0.857231 -0.891258 -0.925066 -0.958600 -0.991805 -1.024631 -1.057032 -1.088965 -1.120392 -1.151275 -1.181583 -1.211284 -1.240346 -1.268732 -1.296403 -1.323311 -1.349404 -1.374619 -1.398889 -1.422139 -1.444287 -1.465250 -1.484941 -1.503271 -1.520155 -1.535506 -1.549246 -1.561298 -1.571600 -1.580100 -1.586761 -1.591567 -1.594518 -1.595637 -1.594966 -1.592568 -1.588525 -1.582935 -1.575912 -1.567583 -1.558084 -1.547561 -1.536166 -1.524053 -1.511377 -1.498292 -1.484949 -1.471494 -1.458068 -1.444803 -1.431823 -1.419241 -1.407162 -1.395680 -1.384876 -1.374823 -1.365583 -1.357204 -1.349728 -1.343183 -1.337592 -1.332964 -1.329304 -1.326608 -1.324862 -1.324051 -1.324150 -1.325130 -1.326958 -1.329598 -1.333009 -1.337149 -1.341974 -1.347436 -1.353489 -1.360086 -1.367177 -1.374717 -1.382656 -1.390950 -1.399551 -1.408418 -1.417506 -1.426776 -1.436188 -1.445705 -1.455292 -1.464914 -1.474538 -1.484126 -1.493637 -1.503024 -1.512231 -1.521195 -1.529846 -1.538105 -1.545887 -1.553100 -1.559650 -1.565440 -1.570370 -1.574343 -1.577266 -1.579046 -1.579601 -1.578859 -1.576759 -1.573258 -1.568331 -1.561974 -1.554202 -1.545051 -1.534578 -1.522857 -1.509980 -1.496054 -1.481198 -1.465541 -1.449221 -1.432381 -1.415166 -1.397723 -1.380197 -1.362729 -1.345455 -1.328507 -1.312007 -1.296069 -1.280797 -1.266286 -1.252619 -1.239869 -1.228100 -1.217362 -1.207697 -1.199136 -1.191700 -1.185401 -1.180243 -1.176221 -1.173322 -1.171527 -1.170812 -1.171146 -1.172492 -1.174812 -1.178062 -1.182196 -1.187166 -1.192920 -1.199408 -1.206576 -1.214373 -1.222744 -1.231638 -1.241002 -1.250786 -1.260940 -1.271416 -1.282167 -1.293148 -1.304318 -1.315634 -1.327058 -1.338552 -1.350078 -1.361594 -1.373055 -1.384407 -1.395592 -1.406541 -1.417179 -1.427423 -1.437184 -1.446366 -1.454871 -1.462600 -1.469451 -1.475325 -1.480126 -1.483762 -1.486148 -1.487211 -1.486889 -1.485139 -1.481932 -1.477264 -1.471149 -1.463620 -1.454735 -1.444566 -1.433206 -1.420760 -1.407349 -1.393102 -1.378159 -1.362662 -1.346759 -1.330598 -1.314325 -1.298084 -1.282013 -1.266246 -1.250906 -1.236109 -1.221962 -1.208560 -1.195990 -1.184326 -1.173632 -1.163961 -1.155355 -1.147846 -1.141457 -1.136200 -1.132079 -1.129090 -1.127220 -1.126452 -1.126759 -1.128110 -1.130471 -1.133801 -1.138057 -1.143191 -1.149154 -1.155897 -1.163366 -1.171508 -1.180271 -1.189599 -1.199440 -1.209742 -1.220452 -1.231521 -1.242900 -1.254542 -1.266400 -1.278433 -1.290598 -1.302856 -1.315170 -1.327502 -1.339810 -1.352050 -1.364171 -1.376116 -1.387818 -1.399203 -1.410191 -1.420693 -1.430616 -1.439862 -1.448333 -1.455927 -1.462545 -1.468091 -1.472472 -1.475601 -1.477400 -1.477796 -1.476727 -1.474140 -1.469994 -1.464257 -1.456908 -1.447936 -1.437342 -1.425137 -1.411341 -1.395984 -1.379105 -1.360751 -1.340975 -1.319839 -1.297408 -1.273754 -1.248954 -1.223085 -1.196231 -1.168474 -1.139901 -1.110598 -1.080649 -1.050142 -1.019160 -0.987787 -0.956104 -0.924190 -0.892123 -0.859982 -0.827844 -0.795788 -0.763894 -0.732245 -0.700924 -0.670016 -0.639607 -0.609784 -0.580631 -0.552230 -0.524664 -0.498011 -0.472343 -0.447731 -0.424239 -0.401924 -0.380838 -0.361024 -0.342521 -0.325359 -0.309560 -0.295138 -0.282104 -0.270457 -0.260191 -0.251296 -0.243752 -0.237535 -0.232618 -0.228966 -0.226541 -0.225302 -0.225204 -0.226199 -0.228237 -0.231266 -0.235233 -0.240084 -0.245765 -0.252219 -0.259393 -0.267231 -0.275680 -0.284687 -0.294201 -0.304171 -0.314548 -0.325286 -0.336340 -0.347665 -0.359221 -0.370968 -0.382870 -0.394892 -0.406999 -0.419162 -0.431352 -0.443541 -0.455703 -0.467813 -0.479841 -0.491758 -0.503531 -0.515123 -0.526494 -0.537600 -0.548394 -0.558824 -0.568840 -0.578391 -0.587423 -0.595883 -0.603722 -0.610889 -0.617340 -0.623037 -0.627945 -0.632041 -0.635311 -0.637750 -0.639366 -0.640175 -0.640205 -0.639496 -0.638093 -0.636050 -0.633428 -0.630293 -0.626715 -0.622769 -0.618529 -0.614070 -0.609468 -0.604796 -0.600125 -0.595522 -0.591051 -0.586771 -0.582737 -0.578997 -0.575597 -0.572575 -0.569963 -0.567788 -0.566074 -0.564837 -0.564089 -0.563837 -0.564084 -0.564828 -0.566064 -0.567784 -0.569975 -0.572624 -0.575711 -0.579220 -0.583128 -0.587412 -0.592050 -0.597016 -0.602285 -0.607831 -0.613628 -0.619650 -0.625873 -0.632269 -0.638815 -0.645486 -0.652259 -0.659112 -0.666021 -0.672968 -0.679933 -0.686896 -0.693840 -0.700747 -0.707596 -0.714366 -0.721030 -0.727560 -0.733921 -0.740077 -0.745984 -0.751599 -0.756872 -0.761755 -0.766198 -0.770149 -0.773559 -0.776379 -0.778563 -0.780067 -0.780855 -0.780896 -0.780166 -0.778652 -0.776351 -0.773271 -0.769430 -0.764857 -0.759591 -0.753681 -0.747181 -0.740155 -0.732670 -0.724799 -0.716618 -0.708205 -0.699638 -0.690995 -0.682352 -0.673783 -0.665357 -0.657142 -0.649199 -0.641585 -0.634352 -0.627546 -0.621207 -0.615369 -0.610063 -0.605311 -0.601130 -0.597535 -0.594532 -0.592124 -0.590309 -0.589084 -0.588437 -0.588357 -0.588828 -0.589832 -0.591348 -0.593354 -0.595826 -0.598739 -0.602066 -0.605779 -0.609852 -0.614255 -0.618962 -0.623945 -0.629175 -0.634626 -0.640271 -0.646085 -0.652044 -0.658122 -0.664297 -0.670548 -0.676853 -0.683194 -0.689550 -0.695899 -0.702221 -0.708488 -0.714671 -0.720738 -0.726649 -0.732364 -0.737838 -0.743020 -0.747863 -0.752314 -0.756323 -0.759836 -0.762803 -0.765176 -0.766909 -0.767962 -0.768302 -0.767903 -0.766747 -0.764829 -0.762153 -0.758735 -0.754599 -0.749782 -0.744330 -0.738295 -0.731736 -0.724720 -0.717316 -0.709599 -0.701644 -0.693527 -0.685325 -0.677113 -0.668962 -0.660942 -0.653118 -0.645553 -0.638301 -0.631414 -0.624938 -0.618913 -0.613374 -0.608349 -0.603862 -0.599932 -0.596570 -0.593785 -0.591580 -0.589955 -0.588904 -0.588419 -0.588488 -0.589095 -0.590223 -0.591852 -0.593960 -0.596524 -0.599519 -0.602919 -0.606697 -0.610827 -0.615280 -0.620030 -0.625048 -0.630308 -0.635784 -0.641449 -0.647277 -0.653246 -0.659330 -0.665508 -0.671758 -0.678060 -0.684394 -0.690740 -0.697078 -0.703386 -0.709637 -0.715803 -0.721851 -0.727742 -0.733436 -0.738887 -0.744045 -0.748864 -0.753290 -0.757272 -0.760758 -0.763698 -0.766044 -0.767748 -0.768770 -0.769072 