-3.528341 4.251189 -3.228474 4.549469 -0.388709 -0.241540 4.990977 -2.492616 5.281411 1.794234 -1.417838 -0.247262 2.148719 1.927503 6.558139 -2.403667 -0.946786 4.624827 -6.224231 -4.748201 0.770590 -0.610705 -3.258710 -2.272071 -6.049910 -1.767595 -1.309962 1.521571 -4.518156 -3.700852 0.143204 -4.623154 -11.095003 3.922285 -5.724102 0.160671 -4.814149 4.357903 1.418160 4.417083 4.379067 -3.682341 -3.046864 -4.571396 0.276377 4.267374 -2.954222 0.837728 4.260410 -8.094691 2.546786 1.454895 -0.054241 -0.902881 1.626807 -3.201604 5.762441 -0.049335 -4.446630 3.769530 0.035270 4.800416 -3.825200 -0.198259 0.444638 -2.349563 -6.621947 -0.526630 0.872119 -2.156954 3.478657 6.121085 -4.736226 -2.344132 1.275713 -2.234013 2.048720 -1.831286 6.009111 2.559701 3.341108 1.812734 -3.193411 2.482435 -3.861498 -4.314211 0.973847 -2.648816 -1.589446 -0.494633 -2.270345 11.395649 -1.457548 2.044289 4.581064 1.110637 3.983034 3.221016 -0.245807 -2.688404 5.231207 1.928929 3.734038 0.657586 -3.926543 2.503180 -0.475366 6.935462 -0.128725 4.825527 -0.324221 3.224344 3.378299 -4.823164 -4.259508 -1.276279 -7.311746 1.614977 0.631852 5.936212 0.471420 -5.565127 2.290571 1.635963 2.879121 -1.010901 -1.597867 -0.821332 2.560596 2.904863 -5.004279 -4.126422 4.290153 2.731207 -3.010368 3.029718 -4.878225 7.012505 -1.641059 1.501635 0.807293 2.807633 0.058911 0.641003 -9.656414 8.083844 0.258314 -2.240366 -9.338363 -1.958548 0.792368 0.442293 -5.054443 -1.243471 -3.933352 -2.029684 3.775410 0.111365 -0.426898 2.648520 2.716740 -4.789943 1.602235 -1.496180 -6.942042 -3.478826 -0.688648 6.390451 2.432638 -2.103369 0.020453 -1.847376 -1.135494 -1.641795 2.141462 -2.002573 -4.126990 0.478956 8.794204 1.994756 -0.358487 -4.919952 -1.249763 3.488572 -0.544989 3.943537 -2.238600 1.505417 0.159880 -1.793555 -1.517230 -2.164574 -0.158574 -0.485302 -0.592340 -2.310877 -6.395209 -1.917375 5.786237 3.588248 -2.537700 3.696275 1.278771 -0.614267 7.709948 0.499678 -0.313677 -5.454780 -1.453231 -1.293607 -1.808988 0.766953 -7.248955 -5.596654 1.384534 -4.326703 -1.027255 -1.307876 1.374812 -1.142269 -0.300717 -2.132317 3.301482 2.137871 4.274403 0.681274 3.592999 0.809207 1.289371 -6.625355 -0.450577 -1.585781 2.992677 1.825523 1.927880 -2.639830 1.929574 -8.169740 3.673922 -1.406819 0.281555 -0.273880 -7.211256 0.438298 6.076393 6.879206 8.156761 -6.387461 1.569027 1.830810 6.281360 -3.427096 3.876170 0.048056 -1.848032 4.554530 -0.837868 1.384432 -1.452307 -1.420852 -0.946985 -1.324121 -3.558779 -5.331817 -9.580240 0.095876 4.210391 0.320004 -1.886653 4.737206 -0.284409 -1.713882 1.299167 -2.458018 -0.746908 -6.227097 -2.304231 -1.863371 0.901749 3.615939 -7.096852 5.050830 1.738282 1.317342 -1.189294 -1.185444 -3.667919 -0.510403 1.643334 -4.018318 -1.199303 2.061937 4.359770 1.324233 -3.600413 0.143003 -0.123601 -0.598578 -5.993920 -2.950041 -2.846769 0.145635 0.255550 2.963578 2.455264 -4.930750 -0.552813 -2.933001 -3.331202 1.432395 0.019495 -0.203180 -4.612845 -2.578784 1.151834 -2.288893 5.187310 3.242109 -2.696063 1.519971 -0.521267 5.018379 3.441904 2.062785 1.550166 3.811949 3.620487 3.453171 0.144001 -2.341759 -4.786222 3.451989 -0.800857 -3.751452 2.130617 2.025930 -0.299717 0.613087 3.209371 4.823567 0.869440 6.194346 2.534692 -0.289430 0.459516 3.012086 -0.777186 3.966239 2.743623 4.973408 4.425410 -0.446758 -2.031262 -1.470376 0.576856 -0.576820 0.984254 0.656183 -1.410873 5.218848 -0.021445 0.361820 -7.428685 1.305157 2.688518 1.325433 11.264646 4.572898 -2.484883 -2.119917 3.942648 2.156633 2.259376 -4.465131 -0.936618 -2.760177 -3.341686 0.367063 -0.363746 6.470601 2.560935 0.178196 -0.934166 0.070575 2.844649 -0.905257 3.373994 -0.395208 -5.292182 2.051162 -3.078063 -2.479722 -4.891803 -1.981723 -4.534836 -3.874486 4.760903 1.364012 3.980808 1.881649 2.360412 15.261953 -3.306714 -4.619263 1.509134 2.692512 -6.112453 -0.136647 -5.692385 -4.450004 4.222137 6.643067 -0.079251 -4.484411 5.180817 -0.403117 1.866329 -1.406300 0.671135 0.056792 -1.969369 1.622998 -3.634122 -3.159894 2.799222 -0.970697 4.245148 0.874242 1.380016 -3.044836 -4.414952 4.102409 2.078101 0.620625 8.341966 1.938557 -1.860387 0.015403 -2.230142 -5.285202 -8.360006 4.780723 -2.531903 -1.871787 -2.363782 -3.009680 3.342088 0.066200 -8.296781 0.535874 -0.687051 -0.310299 0.033282 -2.085631 -1.203413 -3.253398 -2.430541 0.169983 -1.103427 1.460069 -6.235989 3.396428 0.518831 0.515067 -4.597350 -1.231966 3.544092 -2.620818 0.384014 0.667076 -4.775705 -0.523648 2.066647 6.236374 -3.259175 0.338962 1.075690 3.565637 2.886749 -5.342962 -4.568250 -8.988429 2.445473 -1.428227 2.931655 7.431280 1.811966 0.900401 -4.990614 -3.871109 0.841334 0.574649 1.499857 -1.862103 -0.355215 -5.872760 1.686383 1.118490 7.080902 4.279741 0.996783 1.988694 3.167637 -1.926728 -1.418098 -0.020118 -1.348306 -2.058380 3.612972 0.749304 -1.099507 -2.426345 -3.954183 -1.150839 3.039458 1.327560 -4.284413 2.346113 0.379838 3.607625 0.488326 -2.396450 -2.399892 2.790722 4.386027 3.438318 -2.250772 1.874025 -3.044025 3.015297 4.217908 -5.322226 -2.022060 1.155596 -1.469449 -0.772807 -3.348220 -0.145296 4.516551 3.499071 -1.767453 -3.481456 5.385222 -8.442089 0.729827 -0.357184 1.150870 -4.432563 2.446491 2.489003 2.435443 -3.037148 -1.622550 2.952035 4.397368 -2.059031 -1.216788 -0.876208 7.373835 -6.837772 -10.143822 6.745958 -3.682014 4.341477 -1.399974 1.794890 -0.226101 -1.827888 1.773012 3.066470 -1.692423 -0.991153 -3.506023 0.369948 -2.337666 3.235177 2.142856 -3.590437 2.735166 0.131115 0.242620 0.260352 -5.299799 -1.816809 -2.027625 -1.975517 3.352566 4.801273 -0.676200 0.608854 -3.693605 -0.006311 -3.471453 -1.345763 -7.364791 -1.330416 1.464218 -5.900539 -4.068269 -0.222079 4.378928 3.158863 -2.725977 1.003375 3.569490 3.178940 -4.746191 -1.551419 -2.003856 5.332263 -1.283687 1.737314 -3.558475 -4.591391 -0.610308 4.251465 -0.670156 1.529801 -1.314480 0.116519 0.705529 0.914952 -4.902638 -4.588889 -1.870329 -1.998898 2.960602 4.902961 -0.770885 0.639373 1.570570 -3.502289 1.712288 5.125569 -4.677536 8.939319 -0.084520 1.213844 -5.784898 3.358013 -3.345931 -1.404133 0.371859 -2.395082 3.041205 -1.396188 4.628643 1.591262 6.092963 -5.151180 1.070705 0.496155 -2.478961 -2.544456 -2.114217 -2.286174 3.440813 2.594551 -2.329529 -4.065296 -2.655902 -2.243336 2.429742 -6.825105 1.822243 8.940497 5.216900 -2.006406 -2.704950 -1.790100 0.471727 3.840895 1.679163 -2.173853 -3.340236 -3.403775 -1.779626 -4.605825 -5.029458 -5.416944 -0.083268 -0.121135 0.558673 -3.695000 0.595508 0.691773 -4.776824 0.615585 2.031536 0.860392 -1.459804 -2.932258 -1.675050 3.582340 2.266200 -3.768879 -3.355850 -2.521852 5.745020 1.756124 1.271722 1.125865 -1.234465 2.281789 -5.704867 2.440284 0.786456 -0.239441 2.657325 -0.001108 -1.862112 1.771912 1.173541 0.590610 2.094414 6.589294 -2.261465 -3.487767 3.090974 4.676316 0.380719 0.053548 5.019550 1.537419 4.462407 4.398324 3.517441 2.667193 -0.204033 2.520258 -3.486520 -3.189266 -2.778607 2.219495 1.305778 -1.370981 -0.416127 -4.584212 4.426271 3.392938 -3.052987 -5.102603 -4.043538 -0.601660 -3.271751 -5.675224 -2.295735 2.710117 -0.071757 0.768069 -1.368105 -8.302685 1.256003 0.322965 -5.999907 2.123933 -1.204336 -0.240276 0.733029 -1.346802 -0.901705 3.710532 2.487726 1.816823 -1.202634 2.384647 -0.299558 -5.180182 0.738799 -0.467933 1.230653 5.982514 -5.122072 -0.371075 0.362946 -7.237845 -1.126129 0.058901 -6.227130 -2.576583 -1.784615 -3.202520 0.169020 0.198492 0.084978 -2.911596 2.900612 -2.695886 -2.214135 -1.774487 -1.705493 -4.467092 -3.783972 1.670310 -1.605560 1.184502 4.047828 -1.608346 -3.173589 -7.273314 1.423867 -0.354272 6.014196 -5.757450 3.823794 -0.995980 -2.109095 -1.558568 0.388833 3.630417 -0.347823 2.292317 -7.238185 -0.039740 0.349141 -0.493252 1.016652 2.507640 -3.193878 1.123213 1.469880 1.560648 8.227760 1.041703 0.978323 3.735585 -1.805641 1.472983 5.645867 3.682857 -2.402475 0.982813 1.479256 -1.313022 -3.738894 9.408701 1.207624 3.588648 1.271166 -0.439855 5.212143 1.578332 -4.305966 1.084743 -0.221356 2.560850 2.050107 -0.421850 -4.814321 4.215098 3.287191 -0.341833 -13.475400 -0.258676 1.697847 0.806219 -2.070164 -3.932223 -5.360411 -0.742118 1.965766 -4.196615 0.528462 -2.192493 1.383380 -0.805027 -2.794406 -2.220354 -4.761806 3.327030 4.576926 0.540105 -1.280460 2.546069 5.399140 -3.176593 -7.837509 -4.372426 -5.002346 0.126559 1.966119 -1.132417 -2.583760 -0.489419 -4.273419 -3.533929 3.420228 3.635857 -5.586017 1.465946 -2.870850 -1.442740 4.014256 -5.163636 2.634328 -3.779287 -0.219026 5.426157 4.114922 1.266923 -0.986100 2.092486 6.954416 2.101823 4.176843 5.613384 -2.882345 -1.245401 -0.662096 -1.274830 2.838897 -1.293310 4.122155 3.683636 -3.604173 -3.941759 2.012955 0.555930 -3.269134 -0.875416 6.842825 -4.568688 -2.146095 9.475505 -0.570288 1.874526 1.583328 6.219766 2.253272 -5.399069 -3.342511 -3.184613 3.971763 2.502943 1.269756 -1.015565 5.521488 0.676053 1.389559 3.183245 -5.983605 -2.855937 -0.017179 1.966980 1.385228 1.333443 -2.976460 -1.491163 4.195522 -2.055803 -2.495072 -2.509472 0.317454 -4.708027 4.246528 0.845226 0.712191 -1.605472 2.014016 -1.026616 -3.491127 4.477122 8.148270 0.919687 1.917008 2.615048 -2.232316 6.000489 4.077804 4.819651 -4.304910 -2.580322 -3.653929 -5.523331 -2.623688 -5.858590 1.664315 1.199110 1.690920 2.982686 0.983541 1.701519 -1.070339 -1.573074 -4.682404 -4.836292 3.353286 -0.257492 -2.351791 -0.882866 5.068357 1.833894 1.602307 6.334231 2.196043 1.902646 -0.211486 0.083830 4.843002 -4.437107 1.557631 3.447056 -2.558262 3.793402 0.792232 3.468293 -2.167498 -6.690185 2.535006 -1.632149 0.652311 5.570475 -0.744300 0.673433 -0.884748 2.537188 -3.440288 3.885630 -5.232437 0.638602 -1.983274 -0.931864 -5.621406 -1.715428 0.662006 -4.901001 3.306056 2.871186 -0.181914 3.514514 -1.603197 4.333504 0.518295 0.013870 2.361573 1.298076 8.967356 -5.142399 -3.283388 -2.032616 -7.435331 -1.566551 -2.698635 -3.274223 -2.471251 -1.255137 -2.038648 -1.228734 1.549046 -4.211547 1.151053 0.654338 0.467104 0.706071 -1.537623 -3.352315 -7.750446 0.964409 -10.416648 3.369415 4.533013 -1.393828 -2.288357 -2.807552 0.936187 0.340109 6.436475 -3.337684 -0.651071 -2.089676 -0.644597 -2.964724 2.162925 -1.991259 -4.566677 1.400309 1.574870 1.244433 1.455421 -1.174127 -3.232114 -0.218675 4.517713 0.225084 -0.239113 7.906895 -3.379602 -1.682217 1.629766 -1.977816 5.033971 0.550222 -2.046340 -1.048231 2.218686 -5.191310 0.629698 -2.977603 2.051884 -4.086040 4.871444 -0.939118 2.331860 -5.312383 -1.181238 0.796684 -2.680953 -0.396936 -0.443577 2.030794 -0.070083 0.491623 -1.594424 -4.124798 -1.166876 3.448778 -0.783031 4.434897 1.408894 -5.378860 -3.277749 -2.640935 9.405263 0.613819 -10.157052 0.647611 -4.087796 -0.121043 -5.469208 2.013260 0.512139 -2.423381 4.472776 1.789900 1.526381 -3.169329 -2.698848 -7.762819 2.700806 0.981151 0.190897 2.927834 1.038701 -2.942499 -3.871011 1.480725 -0.273447 -4.552325 1.115249 -1.643853 -0.662683 -2.082616 3.827001 2.592899 1.507883 -1.249758 -0.731331 6.986205 0.482427 0.392190 0.413414 0.090633 -4.889063 3.648158 2.183370 3.673839 0.390042 3.938471 -3.844832 -2.470905 -4.782585 -4.839062 4.566426 2.553018 -5.602829 2.134936 2.834260 -1.823972 1.116853 -4.991719 5.121980 2.978762 0.047251 0.981491 1.285752 -0.778272 -2.811762 9.708098 4.083760 2.608108 3.156932 3.715717 -1.267720 1.926004 -1.679918 -2.536824 -0.802630 -0.789990 -0.602885 -0.000742 3.148970 0.550992 0.652728 -1.779871 3.477361 2.279984 1.657253 -3.625238 0.065600 -4.912562 -1.287487 0.849829 -0.124705 -0.541509 2.692543 2.907320 0.718884 -1.519605 1.599599 5.656974 -3.794816 2.095573 1.668457 -3.611183 -2.239850 0.872177 2.642626 1.505390 3.745276 3.767338 1.015081 -0.648584 5.132345 -4.173397 3.688991 4.759194 0.962354 1.329391 4.594957 1.846334 -0.586425 -3.146711 -0.193758 -1.380280 -4.156149 4.285000 -4.345134 -0.274021 -4.414010 -5.688892 2.877442 1.239436 -2.103603 1.175735 -1.222138 0.304302 -1.912812 -4.002195 3.747876 6.883659 -4.827591 -0.321916 0.458356 0.914295 -1.793277 -1.854939 0.228662 1.950419 -0.811081 -2.209493 -4.064729 2.116464 -3.710004 4.311414 0.204908 0.088416 0.785737 1.518068 1.601009 -1.293530 1.035365 -7.034669 -1.037614 -1.049604 3.746406 0.273127 0.716064 -1.118836 2.523583 -2.988744 0.138712 4.070518 5.083060 -3.651701 0.796160 -3.769941 2.460872 -6.250802 -3.031685 4.034490 -0.120180 2.980767 -1.433620 2.226990 0.051531 -5.209507 -4.386399 0.171890 1.277928 0.844710 1.062642 -2.998690 1.240819 -0.907595 4.087476 -0.424142 3.959726 0.646931 -8.873730 4.058850 0.578505 -0.377367 1.872251 -1.557154 1.816928 4.478362 1.641814 1.828599 -1.481340 4.206567 0.508028 -2.430303 -4.457698 -1.286168 -3.903406 1.826816 -1.585665 -1.242308 -0.706259 2.751995 5.093532 1.640099 -1.127237 -3.026227 2.554935 -0.810547 3.822938 5.076160 -3.534028 3.357906 -1.477129 4.194275 -4.720662 -1.962633 5.568790 -1.385788 -0.694310 -4.701808 1.525729 -1.097625 1.158413 -4.408455 3.616781 0.138462 0.936871 1.227696 -1.174083 1.519855 -1.269655 -3.947085 1.770292 -1.956975 -3.954214 7.210466 -4.515146 -2.972345 -4.554569 -3.685308 4.073458 2.096783 1.490742 -0.719878 -4.753503 0.365677 2.524662 -1.591489 -2.320686 -2.524753 -1.692919 4.224930 -6.516075 -2.254709 2.963434 -3.254030 -0.002523 4.877132 6.251939 0.438788 -3.713958 -1.809759 -1.994443 -2.699170 1.841892 -2.474669 -4.643977 -0.129389 0.929600 1.104919 -4.413569 6.394178 -3.099840 0.037487 -2.110258 0.871712 -4.684892 1.324530 -4.483370 1.331743 0.452789 8.458789 -0.847518 -2.212854 4.014234 0.775548 -7.669666 1.171076 -0.559363 11.623514 -3.604969 -1.213400 0.215956 -2.084138 0.826302 -5.529184 -3.661662 -3.610841 1.821560 -0.150313 0.198807 0.758045 -3.912120 4.667533 3.360971 -3.240270 -0.056026 -2.696559 -1.849706 -1.569532 0.800565 -4.932423 0.736076 0.760443 3.447100 0.301949 -1.764473 -1.115963 -3.505817 4.306754 2.661433 -1.221196 -3.051237 0.790071 1.142499 0.859151 -2.383858 -4.884737 0.660635 5.487604 4.245714 -3.935765 -4.933509 -3.256482 -0.300947 3.755698 1.547874 0.536210 1.262267 -2.475291 1.917801 -3.823042 6.092117 5.951269 1.524248 -0.448140 -1.621654 -5.473115 3.404925 1.122447 -5.561184 2.288287 4.603635 4.623953 -0.127353 0.902984 -1.542553 -4.463653 -1.734550 2.405704 2.945334 -2.604840 9.403843 -1.409767 -2.496627 -3.948043 1.079945 -3.501522 0.926700 0.103786 -1.958907 -8.339563 0.116612 2.311377 -1.715564 0.236314 -0.015893 0.089776 0.998250 1.469523 -1.209304 -1.513599 -1.562980 -4.145666 3.765858 2.517119 2.046766 -5.301749 1.808682 -3.387198 4.563276 0.111372 1.950581 1.245761 6.920486 -1.292507 2.567503 -0.713286 -0.781895 -1.606799 -1.843731 2.857045 2.052978 -3.129397 3.843451 0.751135 -1.619988 -6.456826 1.947020 -2.096476 -2.404858 0.678016 -4.277107 -0.521172 0.213594 2.696129 4.434279 3.066138 -2.027679 1.659032 1.555046 -6.410187 1.908284 0.491227 2.134144 4.321315 1.602073 -0.074569 -4.345452 1.940580 0.816797 4.092318 10.212027 -1.958117 2.637317 3.854041 -1.367973 1.282616 9.699693 -1.274915 -1.094151 -2.598573 4.241115 -1.802029 -1.515128 -4.192940 -1.599394 5.819943 -0.100813 2.847509 -7.093383 0.210725 0.558135 7.266333 -0.271438 2.058804 2.186574 5.732213 2.754894 0.313069 -2.857416 -2.663511 4.679985 -1.878337 -4.396763 -3.085055 3.004918 -7.403125 -3.058139 -0.358902 -6.210966 2.379077 2.120796 4.377714 4.199470 -0.741420 0.859773 5.750779 -1.156464 1.190023 -5.060701 -4.070981 1.826805 1.286748 1.043746 -1.599943 4.261431 1.660444 -0.874880 2.205101 1.248843 3.049425 -0.061335 2.698517 -0.107328 0.106548 -2.022088 3.381314 -0.493292 -3.105167 -4.948247 3.884837 0.184952 -2.236478 0.975118 -1.602497 -1.139613 -0.489731 -3.144021 -0.339978 4.217056 -1.613394 1.777514 -5.793749 1.118182 -4.342849 3.651713 -5.531878 0.229615 0.206520 -4.264278 -0.388150 -2.547816 -2.620127 -2.240087 2.577327 -0.482963 -0.413589 2.932640 -2.117531 1.131156 -4.135079 -3.782290 1.362781 -4.972217 -1.488097 1.320215 1.155441 -0.866521 -0.231703 -4.883270 -4.114468 3.596810 -5.622802 -0.042771 -7.780714 -0.642085 -2.731673 -2.306863 3.015511 1.768468 1.315233 2.105377 -3.020821 0.877805 7.753324 2.931685 -0.607537 -2.895947 0.801101 0.782100 2.847331 4.237851 0.180361 -2.095935 1.971271 -3.214136 -0.238325 -1.107252 -4.244684 1.266444 -1.674951 -3.451588 5.350927 -3.463623 7.865061 0.973722 -1.519446 -3.264470 -5.303277 3.066988 3.847007 1.946075 2.083805 -5.341942 5.148851 1.933870 1.071330 2.574169 -4.029495 2.053706 -0.586459 -2.809362 3.055592 -0.857203 -3.102601 5.257305 -1.141845 -0.517228 2.211979 -0.606383 2.115319 1.419250 -1.344582 9.158955 -0.666627 -2.245930 -3.891398 1.821790 -4.223107 -1.633277 -1.994609 -1.906591 3.600985 -3.766653 5.259769 -3.262925 -7.645898 -5.859545 4.420496 -0.415704 -0.874752 -2.948150 -3.611060 2.902216 2.860250 1.699157 3.140268 4.655884 2.028285 -0.038127 -4.526024 -3.766411 0.959518 -3.056383 -5.909613 0.087370 2.808981 0.531720 -3.686447 5.334179 -3.725718 4.424363 0.708906 -2.408971 8.106069 -3.572233 0.483952 -1.779359 0.569382 2.841464 1.377010 -1.415335 -0.778687 2.101445 -2.663721 -2.375733 -4.816734 -4.630161 3.320806 -2.965762 0.332063 -1.861382 1.692045 2.066498 4.202600 5.701444 1.806749 1.662371 4.712864 -3.865528 2.141710 -4.126463 -1.426679 -4.381717 3.744470 5.403114 2.067301 -7.472753 0.627315 0.301698 -0.275631 3.616147 -0.602504 4.435201 -2.965284 1.695315 -0.496952 -6.220641 -3.043821 1.502355 -2.566141 -1.952946 -3.709443 0.654567 -4.287467 -0.606186 -0.962220 5.921416 1.723240 -2.978423 1.138719 4.044808 3.111677 -5.215497 -2.135017 -4.830040 3.151134 -0.271041 -2.879660 5.413613 -7.966406 -2.755873 5.756403 3.302001 4.645953 1.074845 -3.176874 1.156978 -1.526326 1.216530 1.912338 -2.200476 -1.520421 1.938830 -0.319992 0.219034 -5.108119 5.926963 1.386761 -1.605041 4.306196 6.183343 -2.285157 4.258281 -1.697030 6.074061 -6.222065 -4.838632 0.880455 -0.167099 -2.848874 -4.342504 -3.593802 0.052822 2.282281 2.031867 3.871774 -4.319446 2.746675 2.702375 -0.609153 -0.962418 -1.362597 -6.547029 -0.055324 -5.510487 0.615574 2.385361 -3.108135 3.351108 0.636419 0.976859 1.189093 0.518385 -2.276497 2.766192 9.518066 -2.516858 3.667454 1.273459 -3.684653 -0.232992 1.545886 2.570679 1.248665 6.335637 -11.413067 2.174080 2.032072 0.818987 4.651098 0.516341 -1.757631 2.463516 -2.420325 6.406104 -1.369338 3.656069 2.799686 -2.650534 -8.786575 -4.013846 3.526790 4.141969 2.209988 2.469370 -1.914356 5.551891 7.988552 6.076783 -3.688653 -3.236289 0.041310 2.359043 -3.694939 -3.140768 -5.441073 1.029354 3.617457 3.082960 -0.043530 -1.939139 1.860968 1.990363 1.146378 -4.699353 -4.257628 -3.485335 -2.857141 5.138353 1.137943 1.117358 -0.514780 -4.356869 -0.199946 -3.370069 -1.343590 -2.224781 -2.475697 1.159087 4.168482 -5.991354 -1.266262 1.392352 -1.997984 2.793524 -3.372503 2.416543 4.881693 -5.627002 4.291676 -2.052170 0.513244 5.277163 -6.654001 0.194816 5.190095 4.161991 -3.608400 -0.195119 2.732592 -0.695879 -0.722657 -0.573947 6.363468 -0.075324 0.827535 -0.979559 -5.832843 2.940873 1.654493 5.420941 -1.055722 -5.330669 2.404841 -5.357056 -4.460843 -2.000250 -5.932125 2.401933 1.810747 2.386775 -1.915885 -0.542829 -2.170944 -4.848802 5.093304 -4.989032 2.927347 0.312529 -3.873589 0.740276 -1.783984 3.229005 -0.808560 -1.509899 1.771895 3.901360 -3.797065 -4.837865 1.031786 0.141128 4.281367 0.605641 3.207516 -1.720738 -5.294416 4.157888 -0.281035 0.945474 -2.334458 0.574417 -3.927474 -2.499917 -1.676870 -1.913951 -2.598156 0.239792 -0.082073 -2.175972 8.953620 5.085923 4.502427 -0.751320 -0.065313 2.430069 -1.367317 -9.591145 6.884934 -5.983179 -4.243194 4.874643 -1.029154 -0.510128 0.055633 7.772958 -1.564670 -1.533853 -2.933780 2.368140 1.193680 -1.648062 6.036528 -2.853654 5.929722 0.674198 0.701279 -1.931752 -2.031158 -4.626156 5.930285 -6.492383 0.395357 0.340795 -1.561674 -3.351244 0.040005 4.498505 -1.998417 3.296645 5.950433 -7.853168 4.987893 1.483345 5.676328 -1.144835 1.562835 -0.805527 -2.960841 -2.079788 -4.287451 7.859577 -1.955879 6.189135 -1.610608 -0.218599 3.410500 -2.418008 -5.219362 -7.611454 0.149426 -0.251435 -0.683716 0.335627 1.014923 4.332715 -0.690637 -0.393617 4.299988 -0.128411 -2.698424 -4.566142 -6.210905 -2.606734 -0.161906 6.945441 -5.095313 1.832949 0.290369 1.098403 -1.472383 3.340575 -1.050579 -3.787393 -2.931092 -4.304827 -1.319374 -1.255994 -4.033812 -3.327836 2.296435 -2.982473 -4.502355 -0.898922 -0.974425 -3.786243 1.930747 -3.864237 4.530541 8.783889 -5.054760 2.027661 1.856143 -3.819148 -3.364764 -3.854999 1.030897 2.390998 2.123448 5.527257 2.517025 -4.346785 -0.042869 4.239531 4.352241 -0.303360 2.299571 -7.609145 -2.389804 -1.482345 -2.004388 -3.229172 4.006040 -7.159241 0.533049 1.203121 4.113850 0.425278 -2.213527 5.763414 1.794913 -1.160143 2.336747 3.931679 -7.044273 -0.253963 -0.497829 -1.181395 0.929460 -1.708603 3.957134 0.943662 -1.114052 -5.180547 3.028222 1.650775 0.623269 0.223552 0.532332 -1.665266 -2.969444 -7.381226 3.606582 -1.352925 -1.595090 -3.622380 -2.285384 -1.171205 -3.097655 -0.238616 1.592249 2.852180 0.193329 0.886979 -3.596271 0.045470 2.221567 -4.186352 0.913360 0.233943 2.807514 -2.133522 -1.039843 -3.031901 -2.839963 -0.399296 -1.081132 0.767934 -6.920058 2.753909 0.201265 -4.896364 1.259466 0.365017 2.240694 -0.720235 2.193228 -2.823372 0.312726 0.435363 -2.628676 2.163852 1.306683 0.922463 3.840288 0.882888 -3.713437 -2.854433 -2.726493 4.440993 -0.366125 -3.053268 -1.882357 -0.800597 -2.554620 3.039584 3.961235 2.442484 2.010162 0.141983 0.944510 -1.584830 3.421178 -0.772869 -4.109096 1.676470 -3.727900 2.396626 -0.464677 4.637162 -1.360287 6.712890 3.177038 -2.214743 0.982475 3.392352 -3.204524 -0.164471 4.320682 -1.814362 3.752215 -1.363181 -0.583251 2.053704 -6.274173 -5.166453 -7.522164 -1.870955 0.465297 2.298187 -5.220621 2.013697 2.502980 0.196740 -0.049559 -0.624772 3.667892 -2.466045 3.362556 0.539572 0.383424 -4.332772 -0.718820 -8.842628 -2.678801 -5.837076 -0.154175 1.779802 4.435358 -0.607090 -4.015828 -2.427470 5.654780 2.837374 -1.303167 -4.068381 -0.210082 -2.080893 -6.224185 -2.831075 4.023105 -3.150540 0.352130 0.940491 3.906795 -1.444738 2.004709 -1.190949 0.765262 2.426574 1.825926 6.344090 -2.186225 1.623118 -3.104634 -0.243174 -0.924609 5.669654 -3.968169 2.298149 -0.109287 -1.581476 -3.598599 -0.496021 -1.619507 2.916018 6.785470 8.578438 2.653212 1.551589 5.065775 -3.640290 6.276080 -1.766057 2.351453 -0.882355 -2.483405 -5.918895 -1.771793 5.498199 0.948560 7.539693 -3.458072 -4.109463 10.916550 0.965416 -2.167059 0.126847 -3.236593 2.648989 -5.683609 3.545396 -0.201346 -0.432026 3.226297 2.774787 -0.276921 2.794982 -2.956731 2.987907 -3.419575 -2.782869 2.556185 -0.948733 1.949932 4.538230 -3.707356 -2.015661 1.013103 0.528022 2.157603 -1.460195 1.614898 -0.876988 0.015093 -7.000390 -5.898135 2.007003 2.966955 1.714024 1.970520 -2.410341 -0.271373 0.503314 0.046914 -3.972936 3.171396 -10.664581 -0.297813 2.606939 -5.488147 -1.673001 -3.897885 6.801764 2.638320 -2.976696 1.313713 -1.569417 1.624003 -1.193271 0.656826 4.997025 3.532247 1.258158 -0.431633 2.666564 2.238769 1.238650 -4.621472 0.818359 -4.872592 -3.697211 -5.456226 5.442567 -1.474690 -0.886722 -7.656888 4.815735 -1.609317 1.300663 -2.024479 3.202580 -2.794080 -1.252765 -0.819280 1.745814 3.035516 5.100385 -1.018325 0.010735 0.505832 -1.768391 -4.480506 0.613811 4.388077 5.526565 -5.177117 2.587151 -2.242761 3.573129 -2.771843 -3.226243 3.936977 -7.487210 -0.231701 3.057057 -0.538769 0.007876 0.045808 -4.831459 1.141183 0.330842 5.263847 6.121407 0.233796 -1.043153 0.162092 0.225094 -3.021634 -3.840845 3.532719 -3.033171 0.698668 -5.994316 -1.558943 -1.259378 -1.548229 5.644240 -1.341898 4.171448 7.140679 6.532915 3.812077 0.846854 -4.391609 6.156745 -4.162931 -1.378327 -4.389261 -0.954770 -0.360965 -2.352492 -4.225657 1.718823 0.682686 3.418780 5.178143 -0.492552 -2.165799 1.613074 8.803050 -1.438344 5.995142 -0.237795 -2.213667 1.594863 -6.144904 2.095501 0.459293 -0.478327 2.675608 -0.123490 6.230825 0.592781 -1.711571 -1.108656 0.705351 2.460032 -1.112363 4.143906 -1.267206 -0.254945 0.801066 -1.951285 -4.645968 5.766769 -1.324712 -0.907921 -0.240401 -1.854497 1.464428 -1.373248 6.210609 1.843412 -1.231244 -4.902188 1.719070 -3.939558 -1.073128 0.731508 -0.001684 -2.614196 -3.518692 -2.071801 -4.077724 1.159548 -2.220589 2.629623 -2.970202 -1.547439 -2.928547 0.464740 4.969710 -4.312490 -1.167251 1.924802 -1.019098 -2.752496 -2.209127 0.402202 -2.859795 2.569801 -5.428448 -1.814119 -1.261394 1.636999 1.083632 5.713163 2.013046 2.421214 2.632132 -2.247772 0.473879 -5.412310 2.313435 -1.665712 -1.815561 -3.471922 5.398024 -0.455693 0.198281 -4.915726 1.178896 2.650903 -3.252577 2.351938 -0.700886 2.087481 5.056940 -3.430949 -4.936040 -1.745405 3.022328 4.216657 -2.441438 1.197064 -0.843867 0.247540 3.308234 -0.657415 6.227026 -0.592847 2.598338 2.942092 -7.554017 2.053450 0.915573 2.195597 -1.231148 -3.632018 0.552262 0.784895 -1.684589 3.799683 2.057170 4.272272 -1.194315 -2.594103 0.888424 0.255776 -2.945084 -0.376837 4.064138 -1.767844 -0.621958 0.466691 -2.000520 -1.793128 -4.360193 -1.582015 -2.096491 -4.540100 -3.163381 2.667128 2.172386 2.106192 4.657692 1.669462 4.340181 -3.757124 2.196992 3.544878 -8.303129 -4.116868 1.473605 5.639735 -5.601260 -3.817679 0.250822 2.485054 4.465243 6.109437 -3.213587 3.224125 -4.200868 5.021257 -4.586162 0.427942 2.120828 -6.189130 -1.783935 4.297342 5.555499 2.256717 1.982964 2.494933 -0.328797 7.699188 0.821698 -7.674559 -3.682701 1.872924 -4.131348 6.498858 2.286136 -2.701246 -0.923497 0.582188 0.458629 -0.673630 0.988621 2.949683 2.158428 0.364156 1.395476 1.500306 -1.376122 1.082521 -2.394336 0.060909 -0.123570 0.138663 -1.988290 1.312525 6.256857 2.461585 2.152910 2.301924 7.214071 0.972734 3.650681 -2.175582 5.626199 -0.967955 1.938363 -1.088321 4.268199 3.427710 -1.725645 -3.564657 0.046114 7.028828 0.255609 2.613565 2.572786 2.651366 3.207898 0.661414 0.319769 -5.427584 7.921578 -1.641173 -3.950580 2.538429 4.888926 -8.443094 6.779607 4.985312 -1.345703 1.638451 2.277928 -3.154643 0.181287 0.046125 7.446748 7.456595 -0.917285 -1.666545 2.282978 -0.409378 -0.686970 -4.349812 -1.892948 0.473568 0.847523 -3.387544 3.116054 -2.325113 -3.910595 -3.145303 -0.544251 1.183756 5.724015 -5.214489 -0.259863 -4.514481 -0.426905 -6.048535 -0.884688 -1.957992 -1.911249 -0.979603 3.054875 2.875438 8.163355 -5.999127 -4.049616 -1.001286 0.933979 -0.331179 -0.936766 -8.428569 -3.218624 3.083161 0.162551 -3.095834 -2.739458 -2.125451 1.185552 6.133782 -2.753475 -4.670132 1.805220 1.634444 3.591975 2.434223 1.830146 1.910560 -2.765199 1.204307 -4.635781 0.393810 9.648414 -0.641144 -2.257959 -2.978080 -1.502520 -6.194265 -0.924473 2.786242 -4.356031 -3.187999 -0.933162 2.599280 2.440955 -0.661284 -5.719165 2.655358 -0.859305 6.980359 0.174843 -4.555498 4.816107 -0.847763 7.015889 0.025338 1.952331 -3.159611 -2.190394 1.222744 0.427027 -0.651574 -3.049784 2.573820 2.619634 -2.720855 6.104950 -2.951281 -4.836894 -8.804384 0.068160 6.437107 1.416597 -3.513460 1.225409 2.000439 7.859262 -1.618772 0.720616 -2.913016 -2.503716 3.327686 -7.869969 1.011905 -1.924716 -1.588167 -0.703070 4.392313 -1.560991 6.767861 0.524136 -3.845654 4.577250 -9.220236 -2.679876 -0.507064 3.448429 -0.002161 0.411894 4.305479 -3.131240 -4.515601 1.731857 2.084084 2.930196 1.969557 -2.704558 -0.898628 2.758275 -0.135589 -0.929545 -1.838523 -9.603404 7.693045 5.880040 -0.182217 -1.847699 -0.534164 0.174645 -0.082560 -3.559536 -3.823343 -1.706011 -3.562534 -4.821762 1.429202 3.436499 -2.354050 -1.360243 6.949679 2.881230 2.546975 -0.022823 -2.441177 0.395223 2.536950 -1.063197 3.638808 2.632067 -7.225399 -2.192951 -1.608224 -2.131586 -0.298963 1.464501 3.646390 6.072201 -1.298587 0.619057 -4.444245 1.066813 -0.540832 -1.925711 10.470764 3.362518 -0.812864 -0.876997 2.636451 -0.809008 3.039395 -1.548527 -2.015796 -6.657257 -1.435796 -3.364909 -0.534599 -3.767582 1.772467 3.688982 3.581905 3.764642 1.543843 4.306686 -1.405533 -6.576713 1.766600 -5.191105 -2.322865 -2.042360 0.995097 -1.216017 -0.239377 3.083771 -2.577841 -4.881292 -3.810516 3.729992 -5.509208 3.073043 -2.467157 3.629886 -4.092072 -2.449010 0.374106 -5.683666 -0.284219 -0.548375 -1.106927 2.275938 -2.862444 -3.828548 -0.391570 -0.905704 1.186436 0.027754 -0.022250 0.468073 -1.494956 -3.045012 -0.056561 -0.966693 1.016674 7.917996 -3.793448 8.231258 -0.186322 0.648314 -4.444248 0.754859 -3.247362 1.406444 2.980238 0.395337 -1.665350 -4.811664 -3.445009 -3.270681 -1.705422 2.419213 6.093093 0.359780 2.236211 0.982392 4.175486 5.345742 0.592763 -3.025814 2.332637 -0.671313 0.022294 -2.477755 -7.147534 -3.488821 -0.810072 1.227789 0.473474 -2.105447 -0.566705 -2.089156 1.333062 0.626575 4.554193 3.040389 0.162919 1.120450 -3.351989 0.070633 2.014309 0.362316 -2.938526 0.116444 5.681999 2.546002 -2.430113 1.229843 3.203056 2.140319 4.028602 -4.610295 -3.562325 -0.071233 5.010627 -6.717769 1.916671 1.310211 1.335383 -0.858531 2.555418 -0.761608 1.836229 3.871777 -1.879540 3.269932 -4.747473 -3.454730 -0.240385 1.537122 -1.909790 5.894975 -2.697118 4.097502 1.339657 1.735646 6.200340 -3.235272 -0.109681 2.486978 -6.096735 0.650964 -7.707857 -8.870918 0.123652 -3.391984 -7.929829 -3.817859 2.194241 2.176915 -3.104792 0.953827 -1.751149 3.514332 -2.216121 3.082694 -0.741483 -3.177371 -12.175251 3.247680 -1.252561 -1.881729 0.605021 -1.659922 1.837257 -2.510804 -1.550889 -1.539056 2.407731 1.443420 0.905658 -4.058344 0.181417 -2.133869 0.846874 2.351548 1.034065 0.576927 3.679260 3.622999 -4.068505 -0.522333 -8.427436 2.456788 0.605200 -2.893801 0.370141 0.945734 1.798668 -5.231809 0.852580 2.571859 -1.910227 0.910148 -1.761938 -1.219303 -5.523365 0.891739 5.310738 -1.990172 -1.504866 7.014111 0.717511 1.383460 1.459878 0.991821 -2.415806 -4.768378 8.675255 -1.707435 -3.960648 0.394544 0.471943 -2.127275 -1.763760 -1.917377 0.349059 -0.308274 8.047838 -1.086887 -2.744737 -1.305436 -0.971157 -4.109865 5.834882 0.836449 0.652830 -3.657638 -3.838037 -0.126810 4.257270 4.660366 5.499196 1.877850 0.697544 4.611574 1.733872 0.828285 -0.525351 3.596721 4.954113 -0.849233 2.948738 -1.982457 3.837490 -2.133473 0.224295 -5.671334 0.063938 -2.633459 5.780467 -3.132890 -4.295606 4.625031 -3.732181 7.023139 2.779176 1.839672 -2.880290 0.911101 3.853772 5.084403 0.740353 8.512509 -0.940188 0.590552 8.890555 -5.738379 -2.359764 0.108610 -0.843522 -3.572063 -0.454291 0.109930 -2.226661 -1.284439 -5.346887 -2.214666 0.200197 -5.464027 3.170223 2.339465 7.487905 7.022413 -0.889386 0.575356 0.608948 -0.173441 1.379305 -2.997889 2.369885 2.102413 -7.419149 -2.031306 0.811276 2.384381 -1.374190 3.692975 -1.862895 -3.234413 -1.451617 -3.463373 1.240351 -0.099846 -0.619990 -0.121699 3.052069 6.043764 2.855555 -4.952189 1.437802 5.546060 3.752263 0.159954 -2.185540 -3.749502 0.162373 -7.502291 -1.533680 -0.265330 4.067434 1.117955 -0.369891 -1.429239 -2.756962 -4.820434 -2.073817 1.455986 2.459046 1.961388 0.464786 -8.088223 -0.049160 2.168027 -2.334864 1.745334 3.114960 0.421789 -5.678779 4.616880 -1.266675 0.542485 -2.882214 -0.329278 -3.276776 2.836411 5.227442 7.072790 0.760770 -0.652875 -5.045098 1.104927 2.156444 -2.204134 -0.131182 -2.472172 1.518255 -2.740965 0.768508 5.385011 5.930127 -0.353977 3.132655 -1.996521 -0.929186 4.158649 -2.554647 2.103385 3.786547 0.813327 -8.368103 1.750854 -3.805261 -3.898077 -4.102965 3.670531 -0.299495 3.115739 3.865954 -0.762018 -2.703073 -1.758044 -2.425708 -3.322833 1.162408 0.634923 -4.221259 3.004950 -1.739710 1.513269 -1.593791 0.704723 -0.035141 -0.365769 0.012270 -2.115882 -1.637892 -1.044452 -3.830508 4.283975 -2.327565 -6.809647 7.784600 1.027636 -6.461774 -4.660495 -1.442840 10.822741 -0.033800 0.482299 1.187737 -1.015859 0.526159 2.862604 -4.279092 -4.466037 -4.168184 -2.957161 -2.599375 0.310852 -2.346627 -1.667992 -6.060986 3.246737 7.165909 0.176116 3.054043 -4.567183 4.701526 -1.127981 3.672540 -0.421257 -3.728308 4.896889 -0.730999 -8.013910 -0.798192 -4.149520 -3.784997 1.232122 10.680807 -1.669426 -2.545977 2.514111 12.721674 1.683314 -3.922617 -0.946128 1.170960 3.170573 -2.217854 -2.141871 0.582875 -2.035535 -3.345957 -2.813984 -5.628437 -2.460290 0.188056 -2.529341 -1.993548 1.328019 1.623354 1.704738 1.499320 1.232561 -1.715728 1.195737 -4.267313 -3.785970 -1.019961 -1.371876 1.133057 0.914618 1.127511 4.192363 8.914648 0.012686 0.396808 0.351451 5.008239 -6.915090 -3.307008 -3.280324 -3.293095 -0.305648 5.038683 -1.242795 -2.749362 -3.809804 2.773227 3.841081 -5.440664 2.945874 2.092213 -3.061011 1.244838 -1.444759 8.665094 1.136118 -1.447860 2.115255 -3.541431 -7.516362 1.487049 2.170805 3.253082 -0.198420 -1.293332 5.361533 2.372776 -5.360150 2.970362 3.383702 7.078976 3.237422 -1.496605 -2.503495 3.690140 5.328998 0.774202 -0.569780 -0.461829 2.705943 0.474786 -4.297603 4.009437 2.356873 1.683625 1.751489 1.744122 -3.168235 5.622545 1.874520 -1.384342 -1.548376 3.977532 -1.923505 -1.221667 4.259352 -1.786441 -1.502352 -5.778139 0.447253 -2.789460 2.310721 -3.285066 2.578762 2.436351 0.359711 0.874126 -1.565010 -6.762743 4.568386 -0.023452 -2.860092 -4.811341 4.407778 -1.197656 4.499106 1.163983 0.978113 5.809450 -2.400411 -1.491954 3.791761 4.711624 1.186060 -1.558382 4.494343 -6.306773 0.414122 2.822769 8.740314 -1.268649 -0.144352 -1.384833 7.265932 -7.131346 -0.527863 -6.846686 -6.300721 7.217361 -4.520413 -0.789938 -4.805749 -0.642937 2.872344 -3.596058 -3.209858 -0.608650 -0.983308 -5.063750 -1.437188 -8.778055 -2.252010 -2.287496 2.827202 4.331956 -3.846511 3.401845 1.301777 3.804564 -4.628230 3.044271 4.140783 0.189516 -9.533549 -9.235388 -5.248681 -5.088659 -5.600686 -0.446145 -6.337070 -1.436543 2.962608 -6.820061 -2.709289 4.774641 2.689850 -3.458457 -2.570718 -3.961125 -3.051017 -0.100241 1.807395 0.120485 -0.166905 0.776791 -3.491454 0.121851 2.294449 -1.727389 -2.112537 -1.987683 -1.567546 -3.670153 7.273881 5.468543 -0.915522 0.072517 -4.222128 -3.271840 6.845628 1.320765 -2.394919 0.596668 1.526261 -0.306371 -2.494397 0.209977 1.529266 5.244704 1.758938 1.965218 2.327007 -4.936183 -3.516052 1.476127 4.446374 -2.797951 2.888172 -4.375207 0.207942 3.367826 10.083484 1.910151 -1.185258 2.293531 -2.460752 -1.984658 0.629732 -1.050554 -1.756468 6.083684 0.459353 -6.321968 6.042902 4.877371 -1.788702 0.888544 0.438508 2.760256 -7.912029 -0.576372 6.739682 -3.510046 -2.392261 6.219313 -2.846299 0.919907 -1.495057 3.922090 -2.833446 -2.439661 -1.599084 -1.689236 -1.710868 1.436944 0.733452 0.779817 -4.179154 -0.016194 -0.143666 1.973225 3.611138 7.714522 -1.193943 2.854776 -1.864095 1.381641 0.242030 1.642091 0.336304 0.130807 -1.886696 4.717666 -1.217701 1.856167 8.725352 -8.643309 1.156903 1.053024 -2.082652 0.753467 -2.451294 3.203064 -2.580246 0.881851 -3.524212 -5.862607 5.411307 -4.006910 4.005065 -1.767504 -6.139087 -1.267850 -1.105738 3.720946 4.608933 -4.557357 -7.484609 4.834422 -1.025931 -1.240264 -4.366836 3.621637 5.151987 -2.917900 1.448979 -6.132094 7.533237 0.693567 4.952665 -1.407143 -0.937499 -2.334497 -1.166921 0.892575 -0.128595 1.228425 -3.716631 -2.503565 -3.710819 2.098785 1.146932 0.267537 0.040935 3.030384 -2.097734 1.703950 8.869193 1.501253 6.175748 0.327930 -1.676068 -3.415065 2.034892 3.204537 -1.257187 1.241270 -0.709962 0.166773 -1.411816 -3.655770 4.082273 -3.012737 -0.140540 5.244795 1.832728 -0.101946 -1.757236 -1.080514 -3.852754 3.494624 -3.090735 -3.045035 0.361605 1.014335 -1.146185 2.020083 -1.099233 1.566353 -4.180110 7.130965 -7.457037 1.815881 1.529852 6.220595 -0.175654 0.503557 0.780543 6.113305 -3.187354 5.546754 0.947266 0.786087 3.483835 0.772391 -1.829579 -11.515682 0.733171 -0.261834 -1.701453 -4.012031 2.222018 -0.079784 1.173739 -0.912540 1.895618 -4.578887 -1.188001 1.199176 0.507946 -2.336453 1.319209 -1.137021 -0.506723 4.648026 -1.563972 -1.522895 -3.681748 -0.320807 -0.455461 1.683523 -1.373411 -1.001876 4.620351 -0.808610 -0.364743 2.370110 3.980629 -2.066925 1.034646 -6.655726 4.815703 5.837301 4.529353 1.253821 -3.297874 0.921716 -1.372873 5.689887 0.906042 -0.391281 0.261435 1.223437 4.368504 -1.330181 -3.897873 -5.893951 2.107994 -4.011866 1.420271 -4.062920 -2.746813 6.153513 2.847213 2.440667 4.731815 -11.499418 -0.653457 -1.200821 -7.137000 -1.777337 0.086935 -2.290987 9.307686 0.744830 4.728444 4.073855 -3.989835 -3.121326 -3.631547 3.347725 -1.003448 -1.312015 0.088689 0.912715 -5.894664 -1.544009 2.891552 0.959845 -0.002411 -2.028764 4.189681 -3.569720 2.863786 2.234726 0.843583 2.834311 2.452868 -2.752410 0.984195 0.720747 -1.991698 0.259728 4.891283 -1.449229 1.845259 -2.890698 3.373243 -2.631813 -4.869008 -1.756743 0.257773 2.210170 -0.441817 0.073980 -1.543137 -3.347924 0.221889 -3.163936 4.022041 2.513455 4.750505 -2.703909 6.777066 3.558486 -2.168286 2.991812 -0.908434 -4.148379 -0.703096 -3.354803 -5.126661 3.178301 -0.027553 7.787255 6.379951 3.641110 6.795264 3.676719 -1.703170 3.438689 1.360129 2.797903 6.697469 3.241663 -1.308407 -7.398752 2.490342 -3.949386 0.256076 -3.525156 4.330532 -1.100240 0.843197 -0.447391 2.724065 -1.014268 -3.572177 3.987241 0.176179 -2.506248 1.561734 -3.479619 -7.471234 4.107505 -0.093328 1.782327 1.265903 -3.129139 -1.337289 2.031505 -1.023287 -9.129003 4.470774 0.509753 0.288805 -1.504026 -2.829608 -1.798354 6.229530 1.912833 1.159852 -1.965569 2.001701 -0.356854 -0.029468 -0.402275 -6.110840 -0.265532 -0.252354 2.121657 4.408045 3.867131 -6.047525 -3.740344 -2.857641 4.411854 4.264151 0.101778 3.137090 -3.644431 1.421668 -0.617464 0.984493 -0.629181 -1.643836 6.340957 0.564433 3.987730 1.906578 -0.686245 -0.322991 1.659138 2.978472 -3.375213 -2.739513 3.647897 -2.076353 -6.254871 5.293728 3.462320 2.448475 7.598517 -3.231053 0.968838 1.311864 -1.591161 -2.155080 -0.592250 -0.927417 -0.604871 2.573139 0.505703 -1.790020 -3.464191 -5.297083 2.716594 3.583486 4.881047 4.360920 4.801962 -1.953518 2.306473 -5.959718 4.182723 1.249747 -2.541295 -4.263902 5.304470 0.000617 -9.191016 2.936610 -3.514060 0.993391 -4.447010 4.186967 1.035110 -1.071254 -4.609231 1.874953 -2.138141 0.485853 -2.959921 -4.926938 1.137687 1.415662 1.394508 1.389811 -1.435110 4.502446 6.203673 -7.638950 4.388355 2.989338 -0.373427 -0.113016 2.484856 -0.587051 -2.870706 5.686873 -5.639245 -2.551667 0.645202 0.221844 2.509554 -0.467994 0.185380 0.721423 -4.337785 -0.431899 1.289680 -2.368157 -4.606182 4.074383 0.906543 3.680694 -1.557706 -0.635485 2.035717 6.470954 -0.238553 4.840940 3.805195 -1.215422 -7.836379 1.746706 -2.391857 1.869471 3.219689 2.803838 3.104240 -5.913796 1.835973 -1.258754 -2.592187 -5.689178 -0.566710 6.824211 5.923296 -4.092158 -1.281667 -0.525883 -0.533279 3.512638 1.277757 -2.475350 -1.338192 0.390514 -1.180243 -1.136510 -4.081880 -9.086844 -0.270875 -0.774850 1.680348 4.134749 -3.511460 3.702117 -3.910173 -2.969963 -0.579894 0.345316 -0.567893 -5.612349 8.948991 5.394239 -2.737972 4.246876 3.290255 2.182971 -1.044233 -1.159409 -1.301150 -1.660649 -6.047619 0.336416 -0.518401 1.997638 4.370359 -1.051984 2.518507 0.141494 -2.215164 3.116810 1.332711 5.603224 4.446724 -3.319172 1.325834 1.466531 -9.180771 -2.903130 -3.949069 -4.369367 -6.513326 -2.249066 -6.302600 0.402258 -7.020829 -2.821363 2.057279 1.185921 -1.549120 -5.701679 0.992079 3.532741 -2.822537 -2.220816 -2.372656 2.865917 -2.682981 -1.884226 -9.143019 -0.068504 -8.191807 0.708642 2.151124 -1.287582 -0.451432 0.996906 1.397755 1.421109 -2.163489 -12.215942 -0.507549 -3.973110 -1.411411 -1.600051 1.339989 -0.796692 8.098020 -0.521619 -2.494794 -2.585273 0.027858 1.413548 -4.838464 -4.256493 -0.689454 -3.143691 -7.006570 -3.296582 -0.994345 -1.659219 3.534161 0.537745 -1.626704 -2.980455 -1.805888 3.189824 3.674494 -0.582088 -0.403117 0.193268 3.568800 3.097422 -0.350910 4.312002 -2.193219 3.451548 5.419933 -3.521670 2.504338 1.921027 3.924674 -9.655288 2.348332 -3.638804 1.357789 3.313763 2.651229 -0.332755 -4.244661 7.560885 -1.576149 -4.887106 0.939904 2.219594 -3.624241 0.146311 2.959104 2.456611 -3.137250 -1.708195 0.850166 2.390204 -1.050257 -0.785733 -3.309396 -2.393382 -1.705367 0.935579 -0.075849 -0.503608 4.889559 1.921445 -0.358939 0.356635 -4.892373 0.715022 4.605960 2.714343 4.588276 -0.770619 0.907926 -0.860078 -0.809587 -4.112654 -2.355752 2.059126 3.852377 -1.559728 0.200076 8.751943 -0.244079 5.064803 6.278396 4.318478 0.973213 3.975568 1.068708 -4.330584 -3.774939 4.227937 -0.597199 -3.353713 -2.202906 3.909699 0.904895 1.345993 1.294617 0.763740 0.463806 5.823685 -3.106281 0.129740 -2.453118 -1.814133 3.358039 2.147734 4.084071 -1.374033 7.427702 -0.694986 -0.258361 -2.708725 -2.926326 4.266956 -2.383076 -1.976480 -0.874196 7.292619 -0.961912 2.229309 -0.577565 6.983230 5.240775 4.620707 1.440310 4.272690 6.328406 -4.505451 1.345020 0.496937 -0.597828 -3.080834 -4.943895 -6.372730 -0.062282 -5.387221 5.930818 -6.102794 0.863418 -1.018468 -5.260479 3.676870 -2.759131 9.791443 7.789416 1.465043 3.288304 1.119109 1.542069 -1.764689 -3.003270 -0.977421 -4.539907 1.899705 2.149794 2.285067 -2.302223 -3.611829 4.993714 0.702159 -5.200748 3.409928 -2.742948 3.446513 -6.833251 2.679467 4.342731 -2.181511 3.877023 0.801548 -1.878775 4.458235 -4.236221 1.901703 0.695304 0.322003 0.564813 -2.015470 -3.592698 -2.617428 -5.052587 3.305605 -6.071571 0.261941 3.082918 2.959491 -1.798843 -0.599521 -0.368536 -0.601569 -3.826020 -0.797482 -1.505172 1.326780 1.560889 1.960366 -5.581313 6.280802 -0.277381 2.067134 6.378850 -0.119429 -4.633957 2.278353 -0.794975 -3.549109 1.248357 0.595022 0.163037 0.678773 -0.994837 -5.330414 -4.327540 -3.858216 0.888890 1.990204 1.439424 -0.548923 1.027711 2.067495 -0.497710 -0.980147 3.323894 1.602567 -1.323320 2.162634 -2.720588 -1.717860 1.205531 0.357544 -0.458425 1.835531 -5.848415 3.690297 -2.030918 -4.002195 -0.932814 6.226243 -0.566377 -0.044048 0.628844 -3.841933 2.061754 -0.985911 3.449734 1.969485 4.105498 -0.716396 2.934502 -2.208604 -4.212967 -6.767673 -6.402626 3.601843 1.954901 -0.863033 -1.706221 2.614175 -1.823804 -6.391976 1.655041 2.032749 0.266748 -1.842986 -0.426894 -9.527888 8.276268 -4.087204 0.892858 -0.249821 -0.216859 0.539616 1.247696 -3.863090 4.724460 -2.413766 -4.200837 6.384147 7.286049 3.432734 -1.304661 -5.046055 4.162423 -2.724023 -0.484420 3.384374 -3.432137 -1.825130 4.960209 4.476251 -1.365214 -3.718426 -0.271641 1.582970 -1.956629 0.879535 -7.237017 -2.998642 5.668863 -3.283392 -5.304848 3.291747 -0.190906 -2.363416 6.012789 -0.273474 -0.278921 0.165352 0.601501 2.648393 -3.593885 4.858088 8.752224 -0.769210 -4.395664 -0.224003 