2.165999 -0.519657 -0.660091 -0.798384 -0.934551 -1.068607 1.342499 3.755685 -1.545805 -4.079431 -2.932282 -0.184419 1.619394 0.338447 -7.704649 -3.151671 5.683896 -0.618553 -0.809829 6.566399 2.650450 -2.096174 -0.967974 -3.545931 1.356410 2.567330 1.227099 0.754680 -1.217153 -2.115268 1.314012 -4.748049 -4.931133 -0.020417 4.301053 1.003895 -6.041524 1.457745 -3.428479 -2.984060 -0.786036 -4.953246 0.509007 3.096863 0.729446 -1.041307 -0.270710 2.668233 -0.998359 6.028199 4.098341 3.190496 1.086199 4.332226 -3.706623 -3.361436 -1.081348 0.135492 -5.936225 0.227465 0.615213 -1.405717 -0.289490 2.472521 -0.909813 -1.009426 1.583759 1.008092 3.254490 -2.214230 -1.430772 -6.096392 -2.599692 -2.757635 -3.440557 -3.376902 2.320958 2.467982 2.910715 -4.449784 -3.039276 -0.072647 -3.586366 1.047510 2.270786 1.754023 0.102128 -3.653561 -2.078281 0.347132 1.559805 -0.038041 -0.697389 -2.483943 -0.846330 2.590852 1.821366 3.305707 2.206326 1.981599 7.352109 -3.812495 4.987729 -1.390461 0.823166 -2.230638 -5.085587 3.551082 2.423390 -0.333704 2.859635 0.081616 0.872611 3.316543 -2.840163 -5.368684 2.799216 4.482856 0.930784 -9.080355 6.256246 2.784099 -2.940138 5.234917 3.312340 -2.207442 1.628275 4.290457 -1.837693 -4.408693 6.654489 2.204236 4.098897 1.400812 -0.730704 2.786718 -0.202291 -3.020320 -0.935650 0.928125 -4.342156 4.409870 3.963703 1.118992 4.308293 9.037096 -2.598241 -4.453470 -1.061436 8.439922 0.620871 -2.328032 3.884999 1.402061 -5.138058 -3.698046 1.008730 -0.625177 -6.278601 -4.783890 -0.980025 -0.276326 0.375303 2.849160 4.665069 1.665554 4.876332 -0.548502 2.215133 1.609621 3.277637 -2.865951 -0.005384 0.322150 2.993946 2.634828 -2.908424 -2.042885 -3.980832 -5.794802 -5.218658 2.297995 1.167959 -1.402242 -4.901084 2.506256 -2.407072 -4.680157 -7.164038 -2.002756 0.244149 -2.421596 -1.302304 -0.295805 -1.862097 4.306237 3.114303 4.455748 6.003795 2.860550 -1.703590 1.764837 1.275633 -2.402115 -0.416646 1.531571 -1.356717 4.672359 -3.086080 -1.857369 -1.326399 -1.489347 -1.810200 -4.922859 0.995185 -4.121415 -7.887814 -0.648998 -3.523179 1.887506 1.119391 0.923190 1.589138 2.161639 -2.386421 -1.995365 2.748425 -1.277764 -1.659079 8.869649 -12.873560 0.939469 -1.379749 3.279625 -0.578407 -1.337469 -5.507061 3.721665 -1.472402 -1.185928 -1.712214 -1.718286 3.806961 -4.516708 4.240972 -1.571913 3.932290 1.154204 -1.846149 1.282895 0.706499 0.485897 -7.404780 1.397552 -1.531170 -1.603555 -3.684313 1.908406 -3.384572 -2.447202 -1.698420 3.359602 -2.742335 -4.631358 1.591729 -3.942771 4.490197 0.907171 3.022884 -2.192376 1.345892 -0.819747 -6.234825 -0.511818 -1.433551 -1.942338 -4.045145 -0.401749 -2.243643 -6.646288 -2.649759 2.226120 -1.643827 -1.441556 -3.363885 0.438612 -6.841990 -2.951479 -3.132763 -1.240675 1.093632 -4.188006 -0.115785 0.606202 0.870282 -4.351309 0.912204 -4.920980 0.650010 2.904924 2.087463 -0.521706 0.237089 -4.231201 -3.437716 1.449843 2.389088 -1.627350 -6.184185 -4.001545 2.536787 -3.317771 -0.871964 -1.660432 -1.696046 4.305952 3.837192 0.838707 -1.588865 -0.980108 -0.820588 3.507999 -0.760133 -3.753171 2.333171 2.394257 -0.178305 -0.057980 -5.425280 0.455130 2.368409 -3.810536 6.814062 0.308112 -3.987577 -4.738994 -6.504721 4.092783 4.005084 -2.867088 0.654726 1.662676 0.497053 0.939709 2.465599 3.236394 -0.770226 4.761294 -3.374434 -2.307553 -1.548462 -1.928489 -2.483353 -0.467876 1.867756 1.788418 -2.835244 -1.294150 4.183614 5.404245 -3.931501 6.712845 2.825170 2.781222 -4.563742 1.397364 3.128799 1.516084 5.976847 -0.553206 -2.397909 4.399346 -3.915408 -1.056567 0.467476 -3.129677 -0.075122 5.149568 -2.919389 3.389711 3.179110 2.707478 2.035119 1.331334 1.029422 -1.901339 -1.463089 1.181928 5.391737 1.621904 -3.479347 3.029317 0.305014 0.319856 -0.170274 -3.528751 -3.126105 -2.545142 0.560547 -2.383004 -2.077877 3.770068 5.742200 2.502560 2.592776 2.578515 2.387654 1.884737 1.006542 -2.471993 2.702241 2.168356 1.886410 -3.262325 2.809786 -2.608338 -2.258493 2.933077 1.521733 3.637643 0.891040 1.597662 2.082181 -5.813743 -2.235449 -0.403269 -6.631584 4.420722 -6.820454 -2.236941 -3.396353 -5.052891 -1.487930 0.179879 -8.043559 -1.411728 -0.923913 -2.804029 -2.027979 3.396757 -5.043146 3.626768 0.545456 -2.126095 -6.625870 -2.846316 -5.191161 -2.640219 -5.406334 2.844709 -2.729087 -3.830985 -2.044799 -1.594343 -4.182262 3.484774 1.913181 -3.774698 -2.275535 1.596472 -3.646337 -0.801445 -6.561415 1.505689 -1.826204 -1.400166 1.939808 1.633752 -0.608807 2.387427 1.741477 1.043104 -2.064236 0.816580 -4.682734 1.080474 -4.473771 -1.512955 3.648791 -2.438931 3.602618 5.732855 2.398523 2.574532 -2.912953 -4.836009 -4.648314 -4.956932 -0.179921 3.748116 0.588677 4.379173 2.616598 -1.678729 -3.574947 1.148120 4.210794 -3.322475 2.253855 0.008033 1.115570 -3.079738 5.019388 3.092307 -6.219606 5.294298 -0.941349 -0.551333 -5.028560 3.308781 -0.310573 -0.996297 -0.598053 -5.754929 0.718427 -1.884891 0.579156 5.068603 1.122453 6.826781 1.117252 -0.853597 -0.343773 4.001464 7.309778 2.185108 -0.645586 -4.607243 2.326873 -0.581874 -1.659248 -0.076500 -0.943204 -0.295601 5.665113 -2.546039 5.981023 2.287689 1.780787 -1.087525 1.270442 3.460996 -2.772679 -2.189565 -9.438272 -0.230716 -0.573307 6.248933 -0.324605 -4.876983 0.349077 1.066580 0.651489 -5.740776 -3.316578 -0.538202 7.135983 3.668600 -4.197982 -2.298987 -1.155664 -3.710044 0.767902 -3.793091 1.262317 -3.549641 -4.146351 2.706244 -0.702979 4.177277 2.744455 2.001163 2.305436 2.459207 2.547302 -0.847844 -3.760642 -3.595387 -1.143413 3.548157 -2.676684 -1.851640 4.370972 1.539774 -3.400633 2.187133 -4.043486 1.274100 0.667116 -4.890210 1.258396 3.618824 0.744387 -4.323105 -0.918191 4.251899 2.799819 7.123261 5.623687 -2.548696 7.004711 -4.030057 -1.181667 2.819304 -1.934898 -4.495538 -1.036977 -5.245100 -3.807089 -0.662157 -3.641946 1.417543 8.557699 -0.300055 3.432271 1.311274 1.645874 -3.987943 0.782074 4.450246 -0.136650 2.874853 -1.820915 -3.037873 3.328062 2.068557 -4.438110 -1.869038 -1.611770 4.098032 6.091975 0.063249 -1.931377 1.612219 -3.456866 -0.743165 0.667355 -0.562222 4.566032 -3.265278 1.139913 6.668214 0.195636 2.695038 -0.944908 1.623032 3.934050 -4.538955 -0.840840 -1.030899 -3.541088 2.197901 6.243382 4.969633 4.701365 5.157715 -2.261710 -6.468443 9.538412 0.649539 1.588854 3.849081 -3.650636 6.619121 3.624943 -2.272085 -5.131416 -0.007815 -5.403268 7.753340 3.446912 -4.506550 -2.095624 -0.503372 4.925238 0.286466 4.189839 0.572602 1.097630 2.577645 0.043769 4.956393 5.819152 -0.830501 -0.318084 0.147160 -2.013962 -1.695464 -12.159809 9.884489 -5.673336 10.844106 -2.956093 -1.480172 -1.747234 -6.580401 6.957440 3.303357 -1.043332 -2.371452 -8.212411 0.369203 -2.578574 -0.863024 0.326772 -0.518146 3.383632 -0.955087 -4.554385 4.404582 -2.372321 -0.134065 -0.869368 -1.006991 -0.130702 -2.029446 -1.012660 -3.551073 -3.229293 2.219941 -3.928677 -3.070229 2.999599 -4.919285 1.705230 1.382040 -4.221035 1.799247 3.812651 -1.891617 1.228111 -6.388164 2.785507 4.404849 5.551736 -0.576472 -0.085118 -6.439986 -4.652489 -1.850052 -0.794376 -4.747788 3.612504 -3.787372 -1.495509 2.578604 -0.522388 -0.933735 0.973672 0.331341 0.290591 3.147758 0.559637 -4.388676 4.342644 0.603342 -2.610613 -4.836920 -1.558860 1.238765 0.769401 -9.501213 -5.002537 1.045305 -7.022856 1.656800 3.125599 -0.156391 -1.452329 -2.600490 -1.588260 3.082434 -3.607181 1.403267 0.651774 1.024687 4.447822 -8.730929 -1.604987 5.753079 5.955759 -3.277958 2.514641 -4.573765 -0.162834 0.172157 -1.153448 -2.323085 5.161815 -0.413461 0.564007 1.336354 6.559942 0.079327 -2.771760 -5.008698 -2.061931 2.980091 9.435308 2.171047 -2.443913 -0.113447 1.095325 3.116488 -1.622924 -5.421939 -2.279794 -3.996174 0.046041 -2.493041 0.256216 2.838425 4.999833 4.635767 6.793552 1.054917 9.151514 -2.701185 2.643271 -3.525625 1.286538 3.228249 -0.493533 -2.401838 -3.856027 5.116178 1.610307 -4.383572 1.490671 8.543720 -0.341642 -1.988665 1.434080 -4.071868 -0.855704 -1.284954 -4.695181 0.847418 -4.127409 5.161461 -0.580415 4.919898 2.014209 9.269612 0.287779 8.002766 -0.893196 -3.289902 -2.596131 -0.437026 -6.444770 1.618139 -4.129241 2.200109 0.095992 -1.668714 -0.754755 -5.956822 7.630495 -2.383915 5.215923 7.302689 -3.778262 -1.246541 -8.245975 0.338783 -3.997194 -0.118021 2.007095 1.799018 6.112736 -0.923104 -4.808670 -1.385306 -0.121006 0.814549 1.826820 -1.089903 0.449780 -0.473698 -1.930915 -4.468529 2.724859 -1.659589 -1.939203 -1.120367 4.885322 2.258711 -7.764228 -3.394490 -0.920503 -1.842925 2.878956 1.622207 -0.750910 0.943844 -2.907010 3.033961 1.382239 -5.127022 3.043162 4.710186 1.784009 -0.118210 -1.988005 1.250451 -2.022919 -2.370481 -2.893701 1.991596 -0.635333 0.157009 0.833907 -1.563598 -3.546816 1.990387 5.846574 4.019104 -4.121086 -2.226421 1.549353 1.195462 0.229862 -0.995910 -1.355903 4.499661 -0.689298 5.047246 -6.112782 -4.898716 -3.978742 -6.871806 1.100700 4.780052 -3.817267 0.925652 -0.279737 0.823048 5.589178 3.343421 -0.722709 1.843774 2.181285 -0.138923 -5.153181 -4.482415 0.614451 -0.518398 4.240924 -1.618856 2.115250 0.585505 -1.360977 1.387438 -0.099192 -1.002036 1.396543 1.230310 -0.920883 -7.781227 4.315170 -4.741679 -2.087269 -4.631212 3.366415 3.049179 -2.128168 4.451874 -3.749405 -2.725324 2.920363 6.147757 -3.427482 2.419763 5.479167 2.597250 -9.841218 -0.153104 1.327281 -7.990757 3.331320 -2.941178 5.580040 -4.255309 5.368468 2.343522 3.743401 3.245802 -0.407392 -0.243013 -2.506886 -2.014166 3.151291 4.195073 0.789361 3.779429 -0.980765 0.175388 5.491821 -3.972892 -1.379895 -1.672543 -4.042278 -2.920973 -2.420960 0.610593 -2.203290 1.053567 -6.294223 -2.301594 0.901804 -2.310715 2.940305 -2.967737 0.655555 -1.189693 1.941596 -3.368784 1.818837 3.814019 0.315154 0.756474 -1.340440 -3.173910 -4.931662 -2.003868 -0.041734 1.568305 -1.090924 -2.428397 1.862724 4.829366 1.411726 -4.275313 1.364796 0.962801 3.353398 2.873386 -2.698256 -4.029355 -5.129304 -1.597959 0.219178 -3.604576 -0.458544 2.855350 3.571991 1.630287 -0.532533 -2.752777 0.025244 -5.691964 4.829072 -1.860415 -1.258825 5.388103 -2.422076 4.172168 -1.579473 -4.106130 1.577546 3.030538 -2.598184 5.761701 5.337506 7.876837 -0.211108 -1.868900 1.241334 -7.462355 0.842653 -5.706960 -8.006106 -3.260953 5.508322 -7.546112 -2.997631 -4.402697 -1.104015 -1.096743 -1.444202 -1.447806 4.033807 -3.424662 -1.749799 -1.284793 -1.500831 -1.772858 -4.684369 0.959791 5.751862 -0.082482 -1.630155 -3.294080 -2.480653 -2.484465 -3.294286 1.084302 -2.470523 -1.421854 5.079353 -0.508061 -2.593191 -4.758812 3.039468 -1.193511 3.177866 -0.114740 5.179464 -2.411098 -1.182986 -0.967566 -7.213485 5.690703 -4.424235 3.456650 -1.766421 1.755327 2.581716 -3.348389 -0.439157 -6.670465 3.720523 -0.274056 -0.917405 2.358503 4.699482 -5.601035 -1.722463 -4.580258 2.481239 5.664811 -1.417015 -0.752169 0.367276 3.875314 0.627213 -3.251752 1.287448 -0.075980 2.302563 4.498941 6.103084 2.825446 2.891301 -10.032760 4.105913 -0.784933 -2.501325 -0.371194 -0.821016 -4.862752 4.584155 -1.293184 0.815070 -0.148427 4.550622 0.967906 0.732865 0.956374 -4.495108 1.184743 2.750188 3.564688 -0.144239 2.628137 2.916477 2.726630 4.803813 0.627405 2.314621 -1.030921 1.480297 3.498223 -0.276212 -0.267842 -2.852324 2.699087 4.383769 0.381579 -2.297761 0.746044 0.818384 0.553782 4.987117 -1.794894 -1.549931 -3.320683 4.989247 6.034458 4.118162 0.992473 -6.234427 -6.642301 2.187077 -5.079364 1.630051 2.747862 -10.077781 4.032468 4.344148 8.615648 -3.669144 -0.818692 -0.370000 -0.733609 -0.560995 1.120048 -2.437512 3.466246 0.985745 1.373731 11.483362 -0.970299 -5.411054 -4.007125 -3.819575 -1.500016 -0.164727 -0.924852 -3.076039 1.553980 -2.210841 3.666182 -2.584108 -5.373893 8.034396 -1.712774 4.098706 -3.642237 7.819294 -5.705189 -2.195795 0.698396 1.562357 0.949691 -1.636350 -3.169404 0.792376 -1.529760 3.805041 2.153036 1.392675 6.884392 -1.239196 -5.065987 -6.286453 -0.764482 -2.001899 -0.567050 4.319412 -0.957184 1.237139 7.976467 4.276918 -1.894655 3.078663 7.010463 -2.407395 6.066177 -2.359883 -4.184766 -0.263290 4.421251 2.780090 1.618751 -3.031249 -3.796965 0.309226 0.174823 1.565399 -4.835189 -3.845600 2.833377 -2.275711 -6.470055 -0.229729 -0.698160 -3.323687 -2.596092 0.527229 -1.995906 -1.079785 4.744430 -1.436695 1.518185 1.673540 -1.067348 -0.679378 -5.780754 2.803611 -5.992482 -0.041044 -4.972960 -4.127650 2.365561 -0.777070 -2.940316 -2.218433 -1.619362 -1.039090 3.984923 -2.106872 -1.731306 -3.393888 5.343405 6.793032 -0.014932 0.405588 5.938430 -4.795015 4.201036 -2.374245 -5.495052 0.370473 2.493004 2.160792 -0.552528 0.459994 1.254013 -1.368983 1.396064 2.771341 4.068071 0.981364 -0.933632 -4.927622 1.427540 0.650323 1.950892 -6.776076 2.295435 -4.980711 -0.837030 4.704958 -2.124262 -4.280711 1.932854 -3.312691 -2.529203 -2.265938 -2.185187 0.429533 2.871503 5.257103 -5.502899 4.137505 -1.139609 -1.272392 3.625195 4.312499 -1.782439 4.269885 -0.651734 5.173661 1.649823 -1.540887 3.536883 2.315909 -8.110134 1.421012 -1.673663 3.426673 -2.490228 -2.002787 -3.654635 2.345193 -5.395062 5.384072 1.202120 0.959838 -3.326146 3.077586 2.796617 6.916719 -4.815249 -1.333452 1.728855 -1.098050 4.188963 5.260429 -3.553909 0.662817 -1.145659 -3.272040 -3.281595 -1.142993 5.919326 -3.178439 -4.067226 -1.969209 1.330732 1.070908 -0.014681 4.377086 -4.157465 -2.270107 -0.808606 -3.558632 -6.023383 -5.777382 2.288121 -3.709610 2.545560 0.462152 1.061164 1.893848 1.672515 3.617405 -2.899995 7.641829 -4.013530 1.983725 -8.048645 -4.233631 -6.213697 -6.333568 6.843577 -0.493481 5.399453 1.142469 -0.072972 1.344084 2.913834 -1.480238 -0.299936 -0.928546 2.106399 -2.741098 -1.462657 -3.511364 -0.740519 3.911848 -2.724516 2.823329 5.301188 2.495021 -4.565140 -5.970739 -2.751415 1.399453 4.772562 0.488015 -1.607782 0.653668 4.739710 1.563561 2.779067 -1.533828 5.798963 4.895607 -0.628743 -2.262548 3.469402 2.605966 4.041799 -2.472391 -7.253217 2.226188 -0.619389 4.244201 -2.318371 0.525315 1.318663 -3.453051 5.332155 6.025145 4.238539 6.411083 3.291073 1.232060 -1.008470 1.500462 0.021678 3.686399 7.566824 -3.786034 -1.569988 2.575865 -2.970721 4.595002 2.291631 3.634443 0.939165 4.647228 0.008349 0.200151 -2.567836 2.017053 3.108238 -5.607777 -3.988135 5.056612 -0.724466 2.304239 -0.794279 -0.753970 -0.260934 -2.526427 2.997239 -0.873647 1.762950 -3.145895 2.904251 5.322779 -3.428911 0.140136 -2.562886 2.825133 -2.929327 2.358793 -5.750586 -2.030805 -3.501119 -5.571043 -2.327170 -5.181113 -4.426452 -0.908258 -0.594803 5.147960 -3.113685 -1.710963 -5.954555 -5.046325 -2.179610 -3.313446 -1.014771 -0.880408 -2.291137 -5.531454 1.283215 -6.871032 6.235817 -1.042115 3.806826 1.412361 2.081100 0.450203 -2.193334 -2.251392 -3.054894 1.395567 8.213893 -3.599459 -4.093371 0.628867 -4.282495 1.098728 1.802861 2.584326 2.115751 0.473322 -0.429251 0.180877 -2.711474 -3.263110 1.008372 4.942182 3.995168 -5.874760 -5.685874 3.844890 -5.266538 -0.475944 0.533976 -2.965771 1.228456 4.811571 -0.363647 -5.205727 3.406746 2.052810 -1.916621 3.324579 0.063278 -4.456049 -2.683431 8.017977 -2.192539 0.164837 5.454340 1.959051 -5.130564 1.643341 0.917838 -0.319216 9.393644 -2.955615 -1.885465 -5.428673 1.202121 2.910655 0.672721 -2.552448 3.130992 -1.489145 -2.573058 3.170815 4.196030 7.685004 1.061601 -0.903832 -4.769646 -0.874188 -1.217850 -0.271613 3.446987 -0.088445 -3.873256 -1.384253 2.126957 -1.298082 0.427385 1.938782 -3.909427 2.693912 0.396140 -1.958872 -1.572989 0.833743 2.774547 1.759784 6.713473 3.363875 1.028530 4.432145 -4.068841 -3.781476 -4.110275 2.973090 -1.074819 -0.952137 -4.755520 -0.265154 -1.975450 -1.882350 5.126485 -4.644983 -1.006555 2.555934 -0.088030 -4.695541 -3.968333 1.421618 -4.890598 -4.309785 1.532410 3.489796 0.883780 -0.926113 -7.774252 -1.106958 13.754169 2.096852 -1.333165 -0.218316 1.197845 -0.467736 -6.002139 3.712306 0.979206 3.044752 1.067292 1.762466 0.077581 0.545830 5.175757 0.183130 -0.736677 -0.447501 2.545491 -0.016165 -7.539112 1.493911 2.924721 -3.365480 7.584857 3.530153 -4.004363 3.231364 -4.740000 0.677222 -0.762130 -1.731125 -1.697688 8.913479 5.714751 -4.626186 5.076886 1.669690 3.325020 -0.516526 3.671987 -2.406221 -1.501885 -2.719296 0.073686 -5.624210 -2.505413 5.191092 3.771716 1.136781 2.149075 2.743182 -2.296608 3.095836 3.979297 4.421933 3.490189 -1.426546 0.100688 -1.859039 -4.250309 3.114022 3.420374 -2.849775 1.114088 -0.367419 -4.345622 -0.660656 6.219889 1.112703 -2.056741 -3.295343 0.838310 -1.382517 8.891043 -1.338625 -1.551244 7.223365 3.880670 -1.230977 -0.863750 -1.005948 11.371819 -1.617627 -3.647392 -7.565862 1.872776 1.754940 0.317250 -2.980887 -5.066494 2.222896 0.129220 -2.581452 2.511221 4.046119 -3.976266 -4.998922 -1.111285 -3.896075 -6.261203 1.939156 3.245578 2.719177 -1.451716 -4.745088 2.051745 3.791914 -3.101297 -3.597644 1.680747 -3.286347 -4.277946 2.049015 -4.019280 -6.092673 -2.319262 -2.270760 -4.760424 1.285148 1.215013 1.160830 1.669338 -3.049107 -2.140853 3.071809 -0.820703 1.180738 -4.428093 -5.667959 -3.936885 -0.778849 3.767770 -0.512045 2.278303 5.399969 2.950550 3.490178 -2.212402 -2.286817 7.461528 -0.174283 2.100942 -5.655529 3.911556 -1.123928 -1.097488 -1.246230 -4.721930 1.273114 -1.472003 1.509732 6.556040 -2.102332 -3.136691 0.463179 0.035926 -0.724203 -1.442746 1.052865 -1.525897 -5.411017 1.529588 0.842718 2.700493 -0.519801 9.857380 0.887397 -0.840387 -2.100716 5.527488 1.066236 -0.114022 -0.330855 -5.327424 -3.362633 0.333752 -5.487776 -0.153739 -0.632016 4.798374 -5.585121 -0.984554 2.479970 1.546242 -4.029469 -1.252409 -1.343444 -6.157880 0.551991 -4.874742 -4.397918 4.157161 0.695225 6.018698 5.349258 2.726421 5.833089 7.561106 0.958482 7.831985 0.711714 -2.055757 1.110237 5.736019 -0.771706 -0.841826 -7.982736 1.336876 0.909585 0.186512 -0.185491 -2.808355 6.418147 -1.735714 6.592937 0.082165 4.773390 -0.710531 -0.602228 -0.219559 -3.343033 2.189353 1.229472 -1.789760 6.740996 0.822256 -8.599785 3.831757 -7.679556 -1.973443 0.005153 -3.440441 0.201259 3.396161 -0.999538 -0.168488 2.600200 -0.644902 -1.115519 -1.209699 -3.753338 -3.048210 0.199299 -5.022139 -4.209688 -5.915404 0.250386 5.077896 -1.203139 -2.889599 -4.073772 -5.113939 3.455473 4.014455 2.069930 -5.879431 1.759663 2.783354 -2.744193 5.009895 -2.342269 5.299336 -2.875994 3.410887 -1.771419 -1.696380 -6.229146 -5.927136 -0.420887 1.206448 -1.792675 1.708154 -0.156407 3.636708 0.957785 0.485077 -0.285168 -0.932419 -0.854966 -0.874280 1.783809 -1.062141 -0.623974 -0.204309 -7.861094 1.233098 0.330399 -2.992757 2.648367 -2.838825 1.069322 -1.168499 4.199134 0.459044 2.299130 -2.931820 0.233454 8.059973 6.163610 -2.628051 3.401321 0.609887 0.693169 -2.237582 4.830670 0.421639 -4.816269 2.217134 -8.264698 1.024023 8.045518 -2.166407 6.072967 2.924202 -1.351508 -0.056783 -2.867236 -5.806650 3.807328 -0.481855 -0.532517 0.387982 -0.891980 -2.127431 -4.251231 0.918622 -3.293915 -0.958053 1.975793 1.973643 0.141022 -6.607432 2.731812 -3.637498 3.652721 7.307482 -2.248607 -2.959702 1.527532 -0.696920 1.318191 -0.268630 1.353748 -1.632469 4.677876 -0.359010 -2.602677 -1.894137 2.979052 -3.438216 -0.816266 -0.734669 4.565078 1.753426 -0.532381 -5.045705 0.892483 -2.190544 4.985538 0.628971 -2.220392 -0.641519 -2.152872 1.211707 2.694043 3.678495 0.054380 8.128312 -5.097570 6.917817 0.676221 -0.260925 -3.156434 1.602596 -3.915267 4.178602 1.125085 -1.505336 -0.588281 -5.164887 -1.585993 0.410617 4.433729 5.677672 -0.118919 1.620569 2.598923 -7.665272 0.911771 -1.075793 2.567966 4.273638 -3.529071 4.088388 -0.647778 2.636872 6.658380 1.330395 3.408853 3.022092 0.879499 -1.075549 6.735328 9.987069 -0.314454 0.268212 3.538334 0.717388 -1.735910 -4.521562 -4.699386 0.497665 5.359850 1.959460 -0.293795 1.212930 4.771333 6.683395 -2.852398 -0.394194 -0.695769 -8.183479 -1.231280 3.386781 4.553658 -1.154636 2.844665 1.104216 1.548887 4.109444 -0.163823 1.534793 1.054312 -3.787485 -2.465983 3.096074 -5.445731 -4.678966 1.145985 -1.958764 1.170767 -3.727411 -2.555147 -1.779113 -9.066276 2.732727 3.561809 -0.196955 3.208307 -1.469434 2.723682 0.088941 2.230955 5.883728 -1.435891 -8.258951 1.672820 -1.153388 -1.335753 -4.184213 -6.466015 -0.071671 -2.451588 11.065944 -1.491748 -0.716943 -4.138961 -5.534508 0.443276 -1.601363 -2.754634 -2.764816 -1.458366 0.320785 0.935096 -4.171104 -1.266606 0.922544 0.247425 0.067477 2.712415 -2.397971 -6.344662 2.889083 -1.018440 -1.839422 3.210398 5.045552 -0.274939 0.973567 -3.442801 -3.075379 -0.790762 -1.939065 -2.682540 -2.482631 -1.242291 2.453049 -0.070384 -2.403718 0.444015 -0.004215 4.818756 3.617861 0.466780 -1.456931 4.582660 1.339274 -2.012645 2.880193 -3.434724 -0.190134 0.136724 0.040268 -5.067168 -4.120280 1.845982 0.821605 2.973860 2.578078 -5.016028 -2.930669 3.106675 -5.929712 4.235506 7.541099 0.915501 2.228784 -4.281648 2.566005 -6.217633 -1.282062 -0.086574 -4.151407 -2.600010 -1.149584 -2.523011 -1.682512 -6.686705 1.664409 5.456241 6.604043 -6.641760 -1.526537 -2.651243 2.685304 -6.552584 -2.011743 -0.038848 -2.548530 7.031950 3.759623 3.538934 1.041991 1.183602 3.389613 1.655856 3.269459 -0.368771 -5.157998 9.302944 -2.757074 -4.825586 -3.976468 1.155807 0.578620 7.623368 -1.263291 -0.429102 1.127947 -3.435091 -0.655871 0.437404 4.148094 -2.129701 -0.901475 3.167025 -2.054190 -6.390071 4.414788 -0.388906 6.576566 -2.007179 4.384891 -2.882635 0.859182 3.384882 6.184615 -3.474944 7.419890 1.648939 2.159497 2.609070 -0.680880 1.555869 -2.077110 -1.976782 5.709433 -0.760300 -4.970916 1.729174 4.027036 3.088339 2.319909 -3.165142 -4.771467 -0.846827 6.738957 1.737468 -4.260404 -2.644285 6.435809 0.625884 0.488603 -0.066349 -0.583295 -0.111602 -7.442735 1.483330 -2.169743 2.990020 -7.441402 4.365793 1.521790 -8.776813 -1.217533 -1.811388 5.376944 -1.174545 -0.770746 0.243252 0.786315 -0.891607 -3.728305 -1.439460 3.045524 2.130520 -2.965654 -4.240656 -0.149420 -2.514227 0.005473 -1.053999 3.445100 -1.963835 -3.059970 1.055373 0.660038 2.698724 1.559814 3.462641 0.577940 1.276914 1.793510 -1.325534 1.049605 -2.364927 7.785453 0.982797 3.743546 -1.012620 -2.808927 0.762239 4.764032 5.289151 -1.590838 -3.197302 -6.383408 0.541009 -2.616117 -1.123301 -4.567788 -3.861867 -2.050933 -0.927054 -5.515499 -2.209529 -2.233997 2.883187 -0.342290 5.047751 -2.871533 1.052562 4.093997 -2.330233 -7.471654 -1.708536 2.999458 -0.659634 2.226947 -2.706504 -6.507862 3.327323 2.264781 0.600889 -0.350457 -0.097940 -6.777095 -2.203823 -1.897640 7.272127 -0.261067 -2.645216 4.161534 -0.895920 2.712371 1.813047 0.348596 -5.397839 3.202619 -4.857219 -6.746472 4.776332 0.629410 0.425061 3.309498 3.234042 0.768421 1.118192 3.516412 -0.676176 4.001063 0.562799 -2.153075 -1.290646 6.728712 -10.034986 -0.688208 6.748491 2.050797 -2.952064 -1.732660 -0.789412 -3.210305 -0.201815 -6.315437 -3.799318 -3.051371 -2.124378 -1.402425 1.385995 1.435282 -1.088770 2.133611 1.808050 3.810788 -4.629125 3.838779 -2.187300 0.502211 -2.029903 2.938210 -5.295294 3.348413 -2.091545 3.131302 0.134338 2.584227 -5.200779 0.877248 -1.783406 5.503725 1.463284 -4.067690 -2.507785 -4.164577 1.826327 3.089236 -3.703067 2.082737 -5.413558 6.906582 -1.797269 0.619118 0.315654 -5.495352 3.649935 -0.076721 2.293690 1.902595 -0.816323 -2.334311 0.682555 0.303183 1.910272 -1.609350 1.301820 4.006488 -6.442931 3.031345 2.058771 3.494237 2.685214 2.101835 -0.160853 2.887758 0.237610 -0.289095 6.596554 -0.333620 -2.615392 1.031583 1.020944 3.350879 -2.758839 -7.493874 6.508844 2.382014 2.058417 -0.654564 -0.215022 0.661937 3.222879 2.262386 -1.748840 3.527870 0.816844 -1.400700 -3.317984 4.682340 3.260932 -0.299172 5.230304 -0.588361 0.366119 0.959555 2.929299 1.608341 -1.826050 3.952216 -1.731974 -0.882346 -2.822614 4.956604 -9.159940 0.004724 -2.515950 2.606312 -0.004915 -2.355356 -3.687758 4.800211 4.053073 0.427804 -4.832425 4.071126 1.063660 -4.092196 -0.815078 -4.010711 -0.920048 -3.187271 -0.101628 -2.758283 2.990571 -4.498520 1.713022 1.511665 3.499177 0.470216 5.513398 4.861247 4.253921 -6.041329 -4.647302 -1.742346 -2.697983 -0.763830 -1.526301 1.577326 2.610670 3.643855 3.857490 -4.614803 1.228205 7.905660 0.281953 7.773535 -0.996540 -2.220451 -0.634370 1.782722 0.336792 -6.453405 -5.434804 0.843763 -4.154059 -2.847829 0.132100 -7.816584 -0.929307 6.884370 2.579436 2.254055 2.680444 0.707988 -1.410685 -1.281671 0.383362 -8.889373 -0.014943 -5.191842 0.923309 -3.806805 -0.281529 0.239025 5.095597 1.889335 6.593669 0.619410 -4.032413 -2.706812 -2.773419 4.165945 -0.603563 1.682791 -0.385857 -4.099734 0.677120 -2.319732 2.118801 -2.141583 -2.253552 1.285897 1.552080 4.643448 -3.693047 -2.825608 0.143960 -3.120068 2.082566 0.868657 -1.874157 1.878005 -2.716574 -4.184007 -1.237985 -4.490891 0.587472 2.332219 -3.046549 3.583403 3.786406 3.785744 -4.382484 1.330062 3.034648 1.495547 -3.946313 -0.723389 -5.480143 0.945329 3.223882 4.285315 5.800853 0.271300 -0.798196 0.167019 2.370759 -1.810921 -5.424990 0.092264 4.966458 1.965107 -2.585899 -1.346417 -0.797643 -3.395584 1.569332 4.958223 3.276720 3.574576 1.951041 0.275486 -1.950409 -4.745620 -0.265034 0.515887 2.178067 2.241162 -2.014803 5.123210 -0.212723 2.243941 -1.634039 0.069242 -5.346224 0.674270 3.342071 -0.041479 0.489118 -1.688557 -3.496999 2.290005 1.203869 0.234157 2.449380 2.476293 -2.145450 -3.535942 -2.770476 -0.617949 5.975480 -1.024456 1.999882 0.249319 1.547483 -5.547921 -2.504665 -0.730324 -7.297475 -1.141262 1.550372 1.648101 2.450405 -7.159238 -2.489022 -2.458554 -0.494772 0.894536 2.205111 -5.244188 2.324639 3.195308 2.663732 -3.388573 -5.926797 -2.631169 2.310467 4.011633 -4.687032 -3.263939 3.504115 0.770146 3.115380 -0.850473 -1.217080 -3.259623 -2.235428 0.617725 2.048844 1.273723 6.337721 0.675118 1.574459 -0.549617 4.443336 -4.864350 -2.373351 2.596704 -3.646706 0.088504 3.001648 -4.977495 -3.588693 2.221518 -1.365280 -4.385719 -1.126187 1.637092 3.955194 -1.334654 -0.526265 -0.326940 -2.818474 0.140982 -5.931591 -0.450904 -0.670542 -2.937305 0.770369 0.723539 0.951680 8.562510 4.367028 -1.272948 2.074657 1.962679 1.305038 0.314734 -3.019207 -2.837348 5.413864 7.147676 3.334606 -1.773027 4.648220 1.709668 -3.906738 1.196253 -3.064402 -5.642006 3.331754 -2.307408 -1.586126 4.281249 -1.259305 6.933035 3.000080 5.211156 4.485758 -1.215617 -0.323737 -3.295039 4.340660 -0.096826 -3.275219 5.461044 -0.269798 0.903339 1.295018 0.775635 0.236268 2.253908 4.303708 -1.805606 1.665828 -3.115592 -2.463233 -4.829301 -2.283602 2.397198 1.285315 4.196540 -0.644481 3.360175 -1.478234 6.261736 1.635145 5.275802 4.227723 -3.791615 -1.770756 1.378140 -2.016694 -0.158043 -1.135996 -1.095949 -5.404170 1.697101 -3.457186 -8.303801 -4.380441 3.251569 -0.575973 4.714016 2.098069 2.838576 6.260620 -1.991001 -6.976977 0.785613 -0.774411 -6.686407 7.053061 0.779286 -3.361920 6.641599 5.847844 1.957422 1.259649 0.933302 -2.135356 -4.380071 -3.497297 -3.731818 -6.316604 -0.100533 4.906569 1.643629 -2.653356 4.201204 -3.669649 -0.431009 1.487001 -0.218686 1.813304 1.746959 -0.037700 -1.758312 -3.460752 2.090922 -4.563760 0.604370 0.113895 -2.330711 1.716217 -8.204569 -1.103542 3.604257 1.938712 -1.209484 -3.366271 3.453297 3.364511 -4.654326 1.096473 -2.614747 5.273347 1.801470 -1.019460 -2.785674 3.234812 -4.556785 3.454128 1.908213 0.892231 -1.246586 2.317635 2.521841 1.927358 -6.072617 -0.135888 1.822278 -4.044584 -5.746719 -2.257811 -1.882360 1.089534 6.027990 -0.320236 5.400554 5.507562 5.232973 -3.161075 -2.865477 -0.362425 -4.119939 1.022085 0.105607 0.138872 1.262882 4.745591 -5.644882 3.052530 -3.134524 1.635496 -1.773085 -4.330257 2.119634 1.803349 -5.543131 -4.270033 -6.280749 2.089054 3.402330 -2.812998 0.697201 -3.630134 0.984770 1.034518 -0.136877 1.517600 -4.433091 4.721925 -0.894809 2.125069 -3.092999 7.412525 -1.704549 0.957182 -3.965726 -0.946771 -0.708702 -3.639011 -5.750938 -0.116011 -0.172126 2.646976 -0.088258 0.419374 0.959701 1.144197 -1.661766 -2.039877 -2.265200 0.328235 5.212865 -3.377224 5.491162 -7.679624 -3.085258 2.532390 0.587180 7.330263 -2.209472 -3.035667 -1.021848 4.770117 0.864733 -3.375902 4.343872 -1.755325 1.988096 4.958253 -3.746270 -2.888065 0.032718 4.623036 -2.232165 -1.980926 1.459708 -3.631938 5.408878 -0.954587 -1.347509 -1.167246 -3.443302 0.038857 2.003235 -3.748231 -0.506439 -5.296899 3.729995 5.374059 -1.084121 -3.033270 0.408099 -1.757477 -6.706233 -3.578417 3.538823 1.969761 -2.976268 3.853101 9.013155 -4.733565 -5.630011 -0.002887 3.428769 -3.453022 -0.560513 2.233631 2.391141 0.955518 -1.049508 1.232483 -7.436102 -1.276003 -1.791012 -4.966956 -1.383699 4.206189 -3.668145 -2.313576 1.232589 3.258866 -0.393557 -3.075468 2.577782 1.923390 1.950605 -0.674582 -0.721181 4.530781 3.569938 0.333631 5.258163 -0.774211 2.479379 -7.926395 0.880733 2.321691 0.737479 -1.838763 1.249907 -0.575085 -2.273465 -1.564862 -2.112968 -0.271294 4.382508 -4.076360 -2.646964 -1.357007 1.733340 6.165256 1.588429 3.738858 0.988105 4.456006 4.284031 5.560316 -3.628631 -0.778851 -5.789653 2.535263 3.956434 -0.088946 0.368941 -3.971903 3.099604 0.085224 1.865780 -1.865965 -2.108018 9.018453 -2.677334 1.091284 1.210455 0.806217 -1.768994 -4.516332 -1.482745 -7.103873 1.878252 -1.114867 3.936410 1.281018 -3.248117 -4.016749 6.864850 7.334025 4.918620 6.574297 1.190293 -2.481034 -3.465428 1.518724 4.053612 -1.190729 -3.547675 0.723473 -8.146917 -2.927182 -0.332812 0.518339 4.427583 -4.017997 5.872438 0.949221 1.823073 4.355469 -0.162226 1.917129 1.086662 1.081879 3.694893 -7.002984 5.117677 3.808398 5.221506 4.439766 -1.261068 -4.948461 -0.960722 -1.093635 -2.352794 1.821568 1.215623 -8.294768 0.098174 0.901743 0.334006 -2.883550 -2.885853 -4.903730 1.407453 6.735445 -4.840406 -3.444983 -2.019742 1.181922 0.742310 -0.095396 2.256988 -0.366525 -3.954870 0.359736 0.023875 4.531544 0.705769 -4.295910 0.015737 -1.761784 -8.517420 0.466005 -3.229017 -0.611359 -0.092428 3.386767 3.979625 -3.322012 -1.390153 1.350817 5.414171 3.813930 -2.126398 -0.708751 -6.941002 3.072922 -8.104277 -0.137656 1.644716 3.691015 -3.085439 4.152660 4.844422 -3.310784 -4.840341 -1.985755 2.336777 -3.781844 -0.173534 -1.996702 -0.707667 -1.737844 -3.606380 -3.299199 -0.862515 -0.890611 4.492956 -3.540725 8.470917 0.256710 -1.555534 -0.722848 -3.866394 -1.109551 3.225038 -7.913206 1.650460 -3.036824 -4.094927 -5.455461 0.081518 1.922984 -1.725216 -0.775476 -2.483560 3.812887 -1.520345 -1.510725 -6.921553 3.867132 0.244901 -5.201053 1.248538 -4.163630 -2.930782 0.168132 -0.703601 1.172633 0.597165 6.161657 2.780064 2.746819 -2.359252 2.851849 -8.610452 7.211650 2.006863 -1.832895 -0.688706 -2.478389 3.857430 -2.536946 -2.840717 -3.382039 -3.665254 2.271916 6.525586 5.184172 -2.934874 -3.768318 -4.958110 -2.373149 6.295136 -2.356681 -7.703271 2.502234 3.306519 0.851608 0.424075 -0.572808 -1.289887 3.775090 0.312022 2.231782 1.702250 -0.773806 2.248727 -1.145544 3.576124 2.076810 -3.865059 -0.380921 4.618023 0.999973 0.562278 -2.285876 5.641843 4.353638 -1.614210 3.823350 2.627228 2.196017 1.855153 -3.990299 1.432738 3.097462 2.163079 -6.183507 5.133851 -5.874473 0.371634 -2.417134 -0.516058 -0.895454 1.503512 -0.845222 1.888903 -0.652470 2.145359 1.415213 5.766597 1.813274 4.019669 3.699771 -6.961480 4.816709 0.515674 -3.240663 -0.638059 1.522208 1.496172 1.537527 -0.651404 2.048720 -3.659232 -8.070291 3.020244 6.165583 -3.307527 0.447148 1.285350 -0.674066 -0.036760 -0.560261 5.827130 6.212135 2.945772 0.993556 -0.784436 2.639636 1.667095 0.056384 1.362915 3.197769 3.330393 -8.938359 1.335677 -1.721782 2.707536 -1.119313 6.052991 -2.174181 -0.496520 1.228998 0.798397 2.510371 -1.409262 -3.982206 2.012845 -0.579518 -5.084895 1.030999 -7.117293 -3.334756 4.756748 -1.737325 3.875427 -1.337274 2.663533 -2.203157 -4.322689 6.311952 3.536570 2.584366 -2.361678 1.720113 -2.623235 -7.081997 6.412048 0.639068 2.295008 -2.406232 -3.177085 -1.198642 -0.889939 3.753036 -3.703322 -0.940137 -0.054341 -1.807175 1.939206 -1.124442 -11.319915 3.356977 2.069886 -1.359495 -3.387899 0.378383 6.228816 0.286046 3.226746 -2.907878 -0.037622 -4.689824 -4.128246 1.049891 -0.231380 -2.606275 1.057820 -0.960248 -2.619857 0.726568 2.695959 -1.151242 -1.099124 2.042756 1.935210 -5.681101 -1.683126 3.324490 1.885988 1.397815 1.337767 -3.451612 -1.923368 1.389102 0.325073 -3.420476 -8.236429 -3.823508 7.188250 0.535919 3.173343 0.505253 -3.753881 -1.885221 0.754895 9.419648 -1.655654 -1.110815 -2.066950 1.833081 -0.440470 -1.141091 -4.546524 5.572420 2.059211 2.346254 2.806671 2.892214 0.522866 5.547246 -3.756213 -1.297504 3.687689 -2.333567 -1.618492 -1.137410 -3.259091 -5.097012 -4.278213 1.120619 -2.519379 0.624866 -6.494305 0.495344 -4.127203 4.153395 2.861182 1.582549 1.914300 -0.221556 0.841915 -4.357863 0.973402 4.780423 -2.244625 -3.970040 0.024912 -7.003249 -2.854222 -0.386732 3.475778 -0.397664 0.329416 1.707306 4.767545 -0.634383 6.937094 -2.869030 4.842614 -1.043868 1.742740 -0.822242 -0.917598 -0.529911 1.627012 1.148797 -1.719402 3.973059 -1.517205 -0.886052 2.040012 1.193709 -4.357403 6.562346 -7.453767 -0.756868 -2.890376 -0.184023 4.680358 5.770746 0.220810 3.582235 -3.487596 7.984576 5.714583 -1.548194 -1.504455 -1.205457 -0.331832 -5.328551 0.388790 -5.612863 0.084301 -7.097694 -2.980726 -2.198327 -2.012626 1.134694 -1.888695 -1.178715 2.084014 4.583109 3.950082 -1.874154 -1.086567 1.819786 1.222345 -4.538554 0.875848 2.915187 2.515983 5.359838 -0.206120 2.993356 -4.763658 6.376280 4.274673 4.888893 -3.343281 -7.033927 0.580835 0.166904 -5.866942 -5.936511 -3.011972 -4.674552 4.620421 1.643576 1.505751 -3.073018 -4.110281 2.056642 -1.978056 -0.009838 -3.262169 0.015219 0.953195 -1.122914 -2.953206 7.475658 0.517228 2.963401 -2.313180 0.997588 -1.332060 -3.827039 -0.959493 8.192118 -1.439272 4.683702 -0.203693 -1.802627 1.752129 0.732523 -5.625180 4.476362 -1.747775 -0.927358 -4.994961 -0.980286 -3.383658 -6.022116 2.275019 5.866449 -2.875578 4.120474 -3.133254 3.312493 5.212964 -4.389795 0.825913 -0.057667 2.822235 -2.408996 0.787068 -1.699690 -6.728851 -2.695426 2.076596 3.229776 2.479979 -4.802346 2.533953 2.808712 7.394500 -4.882580 -7.249281 4.315076 -1.993569 6.101060 2.010697 4.230717 -0.406205 -6.775570 2.770681 -1.953490 2.106599 -4.221325 -0.977507 -2.259534 -0.978453 -2.637107 -0.286750 4.147386 7.993866 -5.896798 1.491926 -0.501469 2.208537 -3.745131 -4.249762 3.415673 2.269321 0.162381 0.986663 1.301404 4.171646 -4.207730 1.358916 2.685733 6.627855 -1.866699 -0.876206 0.080584 -2.367299 3.109069 3.932664 4.761891 -0.939692 0.598244 -0.823396 1.910567 0.951307 2.088135 8.607447 -0.546679 -1.592749 2.538851 2.149467 -3.855228 -1.556976 0.341310 -2.888086 0.750360 -1.293342 -0.772430 -0.282210 -2.609080 -2.275309 2.662317 -5.785900 3.074228 0.081204 0.324592 -1.707602 -3.764390 -0.392700 1.529846 -4.261824 -1.111345 -0.923068 4.773254 -5.900210 -4.376711 -0.967652 1.045166 3.099469 4.608575 -3.670020 0.708095 -0.757091 2.062073 -1.856009 -0.130837 -0.545300 2.145490 7.626408 -3.497070 -7.157147 2.260081 -1.475671 5.438689 0.822412 -1.935055 2.223436 -1.928136 -0.691586 1.082844 -0.391315 4.099941 -1.888638 -0.636122 -2.240824 1.112049 3.310700 1.737213 1.072665 1.046869 -0.900379 -5.098218 0.941335 2.418844 0.910199 5.660310 -0.072081 3.698590 1.598033 4.224681 0.407766 -0.644793 1.656172 -1.634735 -1.099518 -0.698883 1.952819 1.593737 -3.748608 -2.703564 7.930892 1.058832 -4.098266 2.116147 -3.379654 -2.491028 -2.121746 5.069307 0.696238 3.414250 -0.991759 2.521404 -2.396122 -9.703992 6.621838 -9.209202 2.079974 -5.782945 0.830391 1.867813 -0.746991 -4.919945 -4.593282 -1.457538 0.677206 -0.197881 -0.217997 0.332656 -3.650076 -2.015094 0.731378 -0.514830 -1.283399 1.239784 -1.218548 2.290577 -5.078133 -3.875805 1.489392 10.347719 0.161066 8.115396 0.218442 -0.934438 5.484143 -6.649236 -1.784315 6.938218 -5.388869 -1.087785 0.070968 -1.531928 -5.985936 -5.139214 -2.562960 -1.113025 3.948236 6.100781 0.714263 4.966939 2.894291 0.035598 -3.290667 6.054573 -1.609153 -6.867566 0.286418 0.499905 -1.835553 3.756833 5.245910 6.526473 0.861020 -0.616371 -0.074828 -0.526160 -3.748850 -1.826682 -2.561310 2.836304 5.470291 2.761032 0.736649 -1.140387 1.923913 0.808803 1.930501 -4.499358 3.805426 1.109273 4.100741 3.933719 -6.992202 -0.228184 4.427860 -2.391694 2.515354 -0.866128 -0.099720 -4.283671 4.728216 0.821684 -2.894106 7.961514 -3.884192 2.560906 0.152836 0.092915 2.471987 6.384515 0.115976 5.237547 -2.626774 1.108862 0.924109 -5.038455 2.889264 3.893126 0.620773 -1.225836 -0.008717 8.371024 4.006481 0.605463 -2.192545 -1.863795 6.470327 -0.206765 -8.202939 -1.659703 1.183920 1.158767 0.881677 5.718782 -0.135618 -1.466926 2.551168 1.628246 -4.611257 0.867586 2.818894 -5.549449 -1.198057 2.131681 -0.889577 -5.725808 3.099731 4.666484 -1.573702 -2.957557 0.694098 0.601240 -2.044017 -4.364381 0.888166 7.857881 -3.477216 0.739269 3.791630 -1.740198 -0.944549 1.298825 0.101975 -0.491511 2.593212 0.101653 0.419755 -4.118698 -5.689406 -7.669434 2.969210 -3.745512 4.137885 -3.602461 8.583337 -4.196144 -0.097312 -5.095968 4.495973 -2.471177 -0.322536 2.686930 2.661200 1.032394 -3.318225 5.015443 3.199418 1.853668 -3.596347 -0.337959 -4.850821 -6.258781 -2.791556 1.460676 -2.232331 3.574277 3.881155 1.749234 2.728231 -4.887259 3.316548 -1.136453 0.551173 -2.513332 3.014516 -1.715732 -3.207208 0.576671 -2.688191 2.311399 1.370736 -1.576047 6.905770 1.126268 -0.665837 -5.270292 -4.592480 3.094367 -4.041504 -3.790528 -0.560522 0.181829 -1.156620 2.146001 -5.987039 2.354944 1.612373 3.539720 -2.235445 1.064102 1.697287 -6.103907 5.350980 3.322308 -0.641452 -0.084165 -2.044092 -0.996284 -0.905110 -1.126611 -4.396926 0.903516 0.936633 3.614580 0.956296 1.359050 -0.879624 -3.174468 2.218347 0.670329 4.825048 1.337638 1.818226 -4.937586 -0.784307 -0.840040 0.394741 -0.888262 3.753604 -4.046906 3.061890 3.528359 -4.763567 1.045932 5.072702 0.851252 3.183133 -1.987372 1.691440 -0.823543 -3.176500 -0.670480 0.683426 0.178680 2.867981 2.926268 5.737070 0.301903 -1.695877 -1.477067 -2.125180 2.414050 -1.582818 1.058218 -6.171041 -1.398843 -0.454756 -3.497455 1.603878 -4.696198 1.366996 -0.960056 4.849138 -0.662456 -0.494780 -5.070449 3.176771 4.618472 0.416637 -2.101235 1.363016 -0.653342 -0.144730 4.617848 5.283201 1.347782 1.896881 2.519194 5.010718 -8.676515 -2.222908 -0.330870 0.967754 -4.547367 1.527903 1.932338 2.338688 0.492877 -2.047214 5.506985 6.435588 -0.024941 2.795208 -2.477969 -3.850847 4.658998 2.761143 1.157025 3.290697 -4.034071 8.159939 -0.601042 -0.517511 -0.936174 -4.178240 -0.831111 -3.728570 -3.054547 -0.075765 2.556250 -2.400692 3.564208 -1.758038 -1.178436 -0.820733 3.934827 2.649438 -0.651283 2.750762 -2.302421 -3.833874 -0.471860 -3.915210 -1.598448 3.201563 2.711037 3.013293 1.167195 -2.919394 -2.004527 -4.782429 -0.077246 -4.151078 -3.983551 -2.666458 6.289275 -1.584196 4.478457 1.510367 -1.345452 -0.794973 4.064479 -4.940796 -1.944561 -3.986286 -3.216465 2.520488 4.399327 -1.426233 4.463105 2.083478 2.464676 -0.315042 -5.710434 -0.144460 4.029458 2.830084 -0.149328 0.687004 -0.655595 0.305270 -4.857356 0.103561 6.415441 -0.449431 0.517114 1.620599 -0.141620 0.549482 -2.439624 -2.944915 