3.787574 3.787574 3.787574 3.787574 3.787574 3.787574 3.787574 3.787574 3.787574 3.331735 3.330902 3.331097 3.330264 3.329431 3.328599 3.327767 3.378301 3.377456 3.443293 3.442432 3.441571 3.440711 3.439850 3.438990 3.438130 3.459536 3.458671 3.457806 3.456942 3.456083 3.455219 3.458550 3.457736 3.457086 3.456221 3.455357 3.454498 3.453634 3.452772 3.452347 3.451496 3.450633 3.449777 3.448915 3.448053 3.447193 3.446331 3.445471 3.444609 3.443748 3.442887 3.442385 3.441524 3.440664 3.439804 3.440132 3.439271 3.438412 3.437651 3.436793 3.437326 3.436623 3.436757 3.435939 3.435080 3.434223 3.434798 3.433950 3.433092 3.432234 3.431589 3.433231 3.433082 3.432229 3.432467 3.432354 3.431644 3.430826 3.434543 3.433685 3.432826 3.431973 3.431143 3.431830 3.431964 3.431299 3.438091 3.438058 3.437199 3.436513 3.437376 3.436517 3.435681 3.435827 3.435049 3.434190 3.433529 3.434354 3.433496 3.432652 3.439286 3.446373 3.446053 3.447787 3.446951 3.456771 3.455907 3.455053 3.455256 3.454392 3.453548 3.454292 3.454209 3.453345 3.455074 3.454361 3.459123 3.458259 3.458892 3.459464 3.458792 3.457955 3.457737 3.459533 3.458984 3.458140 3.457451 3.457771 3.456920 3.457133 3.456311 3.456514 3.457678 3.456823 3.456297 3.455890 3.455295 3.454454 3.453680 3.453007 3.453502 3.452709 3.458092 3.457254 3.462227 3.463085 3.465375 3.466306 3.465571 3.464761 3.463965 3.464099 3.463686 3.462923 3.462057 3.461209 3.461310 3.460996 3.460750 3.460813 3.460048 3.459346 3.458824 3.457960 3.458076 3.459304 3.458988 3.459014 3.458295 3.457440 3.456940 3.457443 3.461182 3.460967 3.460114 3.459839 3.459584 3.458770 3.458098 3.458307 3.460052 3.462792 3.462194 3.461759 3.460898 3.460054 3.459295 3.458445 3.457672 3.458078 3.457215 3.457005 3.457079 3.456226 3.455365 3.456429 3.455934 3.455593 3.455480 3.455686 3.459227 3.459301 3.458526 3.457676 3.456863 3.456693 3.457100 3.457146 3.456415 3.456546 3.455755 3.456117 3.458109 3.457456 3.457349 3.456503 3.456426 3.455773 3.454972 3.454266 3.455901 3.455122 3.454261 3.453397 3.452703 3.451933 3.452803 3.452123 3.451853 3.451200 3.450442 3.450880 3.450541 3.450118 3.449276 3.448712 3.449148 3.448320 3.449929 3.451202 3.451349 3.450547 3.451366 3.451112 3.451616 3.450992 3.450425 3.450271 3.450060 3.451131 3.450852 3.449992 3.450710 3.449851 3.449411 3.448860 3.448002 3.447504 3.447571 3.446770 3.446058 3.445427 3.444794 3.444175 3.443650 3.442926 3.442085 3.441267 3.440530 3.439913 3.439566 3.438728 3.438133 3.440593 3.439762 3.438930 3.438080 3.437279 3.436558 3.435726 3.436274 3.436687 3.436088 3.435616 3.435697 3.435295 3.434761 3.434341 3.435334 3.434483 3.433726 3.435257 3.434445 3.433688 3.433102 3.433729 3.433081 3.432502 3.431961 3.433099 3.433187 3.432846 3.433787 3.433598 3.434059 3.434838 3.437603 3.437262 3.437136 3.436490 3.441229 3.440404 3.440627 3.440702 3.440790 3.440171 3.440360 3.439980 3.439461 3.438611 3.437823 3.439716 3.440343 3.440022 3.439250 3.440410 3.439988 3.439196 3.438613 3.438633 3.437887 3.437335 3.436541 3.436866 3.438637 3.440173 3.440097 3.439428 3.438835 3.438236 3.437557 3.438565 3.438072 3.437220 3.436719 3.436693 3.435876 3.437193 3.436779 3.435975 3.435236 3.434543 3.436953 3.436140 3.435668 3.435745 3.435485 3.434707 3.434759 3.434265 3.433983 3.433470 3.436840 3.437151 3.437273 3.436540 3.435830 3.437808 3.437212 3.438560 3.437923 3.437126 3.437032 3.438048 3.437990 3.437193 3.436484 3.437084 3.436847 3.436168 3.435981 3.435174 3.434813 3.434024 3.433886 3.433383 3.432558 3.431961 3.431395 3.431905 3.431230 3.430817 3.430931 3.430523 3.430968 3.430443 3.429713 3.429194 3.428471 3.428204 3.429217 3.428380 3.428417 3.427611 3.426866 3.427526 3.426865 3.427228 3.426677 3.427979 3.428144 3.427680 3.427370 3.426940 3.427205 3.427409 3.428737 3.428597 3.428486 3.428456 3.427738 3.427304 3.427577 3.426838 3.426435 3.426336 3.425720 3.425925 3.425804 3.426053 3.426028 3.425388 3.424674 3.424035 3.423341 3.422946 3.422359 3.422037 3.422067 3.422589 3.422564 3.422121 3.422631 3.422027 3.423357 3.424472 3.424173 3.423447 3.424005 3.423439 3.424408 3.423606 3.423106 3.425139 3.425451 3.426687 3.425915 3.425971 3.425329 3.425027 3.425198 3.424582 3.423910 3.423232 3.424114 3.424652 3.426362 3.425890 3.426390 3.425533 3.425838 3.425217 3.425677 3.425567 3.425361 3.424622 3.424315 3.423675 3.423210 3.422631 3.423378 3.422597 3.422448 3.421913 3.422185 3.421886 3.421528 3.420723 3.419882 3.419064 3.419122 3.418327 3.418034 3.417629 3.416882 3.416544 3.416662 3.416026 3.416140 3.416063 3.416325 3.416505 3.417135 3.416782 3.417873 3.417183 3.416577 3.415888 3.416562 3.415779 3.416439 3.416276 3.415901 3.415214 3.414483 3.415062 3.415865 3.416372 3.416727 3.417648 3.417087 3.416312 3.415985 3.418509 3.419674 3.419019 3.419092 3.419215 3.418491 3.417730 3.417077 3.416677 3.416252 3.415598 3.416545 3.416974 3.416783 3.417081 3.417296 3.416651 3.416172 3.417208 3.417739 3.416988 3.416696 3.416985 3.416314 3.415660 3.415298 3.416145 3.415313 3.416766 3.416311 3.417347 3.417634 3.418686 3.418092 3.417798 3.416947 3.416307 3.416149 3.416235 3.415723 3.415054 3.414388 3.414839 3.418719 3.417909 3.417072 3.416652 3.416828 3.416385 3.415705 3.415467 3.414676 3.414668 3.414253 3.414016 3.413966 3.413663 3.414753 3.415245 3.414701 3.414094 3.413342 3.413636 3.412932 3.412745 3.412126 3.413959 3.413892 3.414329 3.414232 3.414881 3.414316 3.413834 3.413218 3.414069 3.416150 3.415785 3.416118 3.415674 3.414889 3.414371 3.414631 3.414172 3.414275 3.413748 3.413063 3.413339 3.412710 3.412140 3.412261 3.414298 3.414244 3.413643 3.415460 3.417026 3.417877 3.418931 3.418979 3.418856 3.419963 3.419434 3.418756 3.418936 3.420007 3.420083 3.419573 3.419608 3.418859 3.418035 3.417251 3.416415 3.416173 3.415558 3.415103 3.414460 3.414601 3.414223 3.415136 3.416354 3.416248 3.415749 3.416414 3.415992 3.415900 3.416086 3.415706 3.415157 3.414767 3.415699 3.415395 3.414624 3.414068 3.414771 3.414454 3.413680 3.413547 3.413017 3.413513 3.415173 3.414515 3.413951 3.413317 3.413407 3.413155 3.413679 3.413341 3.412728 3.413319 3.415025 3.414460 3.413651 3.413218 3.413537 3.412897 3.412323 3.412815 3.412301 3.412755 3.414203 3.413643 3.413623 3.413128 3.412925 3.413007 3.412708 3.412023 3.411881 3.411111 3.410397 3.410971 3.411623 3.412243 3.412025 3.411234 3.411907 3.411186 3.410608 3.410149 3.410947 3.411403 3.411063 3.410904 3.410479 3.409703 3.409562 3.408779 3.408298 3.408470 3.407993 3.407752 3.407169 3.406527 3.405735 3.405757 3.405614 3.405257 3.404563 3.405652 3.406577 3.406733 3.407129 3.406514 3.406845 3.408407 3.408220 3.407375 3.406877 3.406885 3.407476 3.408353 3.407553 3.407117 3.406310 3.408331 3.408401 3.407706 3.407990 3.407420 3.407973 3.408294 3.407700 3.407129 3.406672 3.407050 3.406678 3.406971 3.406311 3.405597 3.405421 3.405492 3.404814 3.404579 3.405232 3.405797 3.405047 3.407089 3.406912 3.407842 3.407219 3.406773 3.406996 3.406452 3.406078 3.405928 3.405728 3.404933 3.404458 3.404962 3.404834 3.406253 3.406384 3.406077 3.407676 3.407246 3.407242 3.407454 3.408189 3.407790 3.408146 3.408330 3.408747 3.410044 3.409688 3.409540 3.409540 3.410090 3.409406 3.408869 3.408532 3.407792 3.407366 3.408926 3.410049 3.409853 3.409526 3.408939 3.408807 3.408236 3.408273 3.408309 3.408903 3.408744 3.408066 3.408347 3.408456 3.407767 3.407395 3.407088 3.406340 3.407463 3.407063 3.406713 3.406502 3.406112 3.405644 3.404950 3.404391 3.403990 3.404218 3.404899 3.404399 3.404113 3.403740 3.403824 3.403204 3.402805 3.402893 3.402336 3.402251 3.402428 3.402359 3.402844 3.402849 3.402358 3.402371 3.402751 3.403216 3.402990 3.402706 3.402490 3.401711 3.402545 3.402903 3.403057 3.403847 3.403689 3.403172 3.403856 3.403822 3.404161 3.403515 3.403308 3.402627 3.403170 3.402915 3.403598 3.405069 3.404949 3.404416 3.405564 3.406382 3.405689 3.405506 3.404714 3.404262 3.403786 3.403514 3.402795 3.401990 3.402210 3.401872 3.401634 3.401379 3.401072 3.401916 3.401401 3.401150 3.401601 3.401360 3.401037 3.400900 3.400577 3.400632 3.399981 3.399515 3.399962 3.399522 3.398767 3.398370 3.398006 3.397442 3.397266 3.397405 3.397466 3.396831 3.396936 3.397701 3.397236 3.396876 3.396906 3.396903 3.396975 3.396848 3.397881 3.397391 3.399585 3.399539 3.399850 3.399357 3.399102 3.399584 3.399217 3.398496 3.398674 3.398247 3.398408 3.398073 3.399477 3.399029 3.398912 3.399299 3.398864 3.398242 3.398711 3.398510 3.398564 3.398219 3.399015 3.398559 3.398158 3.397498 3.399038 3.399296 3.398871 3.398318 3.398261 3.398871 3.399390 3.398683 3.398526 3.399771 3.400137 3.400093 3.400078 3.399850 3.399699 3.401432 3.401099 3.400336 3.400295 3.400026 3.399673 3.399585 3.399081 3.398676 3.398217 3.398460 3.398492 3.398181 3.397509 3.397564 3.397332 3.398118 3.397596 3.397470 3.396909 3.397171 3.397333 3.397817 3.397454 3.398618 3.398443 3.398559 3.398106 3.398551 3.398543 3.398171 3.397542 3.397059 3.396648 3.396278 3.396531 3.396232 3.396040 3.396276 3.395619 3.395922 3.395527 3.395011 3.395180 3.395562 3.395028 3.395591 3.395689 3.396188 3.395983 3.396483 3.399254 3.401244 3.401741 3.401373 3.401381 3.400931 3.400718 3.400460 3.399785 3.399626 3.399214 3.399132 3.398603 3.398023 3.397814 3.397145 3.397915 3.398527 3.398554 3.397826 3.397441 3.396923 3.396487 3.395804 3.395508 3.395235 3.395236 3.395341 3.396522 3.396399 3.396975 3.397251 3.398436 3.398698 3.400353 3.400228 3.402001 3.401595 3.401461 3.401063 3.401024 3.400446 3.399872 3.400028 3.399313 3.398816 3.398574 3.398995 3.398606 3.398196 3.398212 3.398966 3.400043 3.400210 3.400714 3.402413 3.401925 3.401994 3.401649 3.401994 3.401591 3.401892 3.402537 3.402176 3.402035 3.402236 3.402487 3.402428 3.402632 3.402352 3.401884 3.401456 3.402486 3.402616 3.402541 3.403284 3.402855 3.402882 3.402493 3.402076 3.402348 3.401995 3.401272 3.400594 3.401075 3.400404 3.401308 3.402322 3.402517 3.401996 3.401706 3.401131 3.401049 3.400688 3.400998 3.400847 3.400402 3.400968 3.400952 3.401019 3.401203 3.400724 3.400099 3.399865 3.399482 3.399064 3.398668 3.398675 3.399024 3.398452 3.398263 3.397703 3.397007 3.396987 3.398981 3.398361 3.397713 3.397692 3.398100 3.398150 3.397999 3.398157 3.398998 3.398838 3.398736 3.398712 3.398645 3.398434 3.398265 3.398210 3.397820 3.397038 3.396779 3.396974 3.396961 3.396265 3.396124 3.398021 3.397762 3.397406 3.397258 3.396894 3.396211 3.396243 3.395762 3.395322 3.394916 3.394738 3.394844 3.395434 3.398287 3.398001 3.398096 3.397662 3.397767 3.397093 3.396449 3.396674 3.397154 3.398449 3.398473 3.398068 3.398223 3.399663 3.399325 3.399223 3.398716 3.398265 3.397529 3.397135 3.396471 3.397073 3.396790 3.396675 3.396252 3.395892 3.395274 3.394480 3.394024 3.393480 3.393206 3.394231 3.395658 3.395722 3.396525 3.395832 3.395094 3.394475 3.394079 3.394055 3.393698 3.393619 3.393429 3.393230 3.392994 3.393147 3.392917 3.392905 3.392359 3.392643 3.392692 3.392094 3.391967 3.391950 3.392370 3.391912 3.391448 3.391053 3.390836 3.390555 3.390380 3.389835 3.391249 3.392570 3.392336 3.391664 3.391044 3.390705 3.391631 3.391856 3.391708 3.391216 3.390766 3.390507 3.390018 3.389647 3.391412 3.391468 3.391882 3.391295 3.390798 3.390657 3.390517 3.390863 3.391764 3.390976 3.391892 3.391613 3.392422 3.392072 3.391407 3.391172 3.391208 3.391082 3.391122 3.391324 3.391265 3.390931 3.390608 3.391452 3.391186 3.391738 3.391203 3.390657 3.392337 3.392943 3.392750 3.394084 3.395173 3.394518 3.394134 3.394342 3.393810 3.393912 3.394163 3.394590 3.394332 3.395001 3.394904 3.395127 3.394491 3.394469 3.393854 3.393410 3.393390 3.393609 3.393355 3.393609 3.393649 3.393940 3.394266 3.394404 3.394262 3.393666 3.394730 3.394547 3.394307 3.394455 3.394040 3.394303 3.394560 3.396675 3.396543 3.396907 3.396996 3.397914 3.397654 3.397076 3.396586 3.396224 3.396684 3.396156 3.395555 3.395728 3.395817 3.396982 3.396475 3.396138 3.397929 3.399351 3.398804 3.398325 3.398724 3.399672 3.400214 3.400109 3.399495 3.401203 3.402628 3.403319 3.403283 3.402908 3.403907 3.403668 3.403413 3.404111 3.403869 3.403480 3.402992 3.403082 3.402986 3.403333 3.402706 3.403323 3.403059 3.404202 3.403780 3.402980 3.402409 3.402174 3.401481 3.401854 3.402336 3.402206 3.401533 3.400994 3.400636 3.401248 3.401678 3.401769 3.401751 3.401812 3.402134 3.401581 3.403321 3.403107 3.402665 3.405030 3.405461 3.405197 3.404865 3.404695 3.404014 3.403769 3.403977 3.404880 3.405842 3.405557 3.405432 3.404957 3.405039 3.404787 3.405452 3.405046 3.404981 3.404556 3.405505 3.405439 3.404711 3.404987 3.404436 3.403745 3.403015 3.403004 3.402967 3.402521 3.402512 3.402411 3.402964 3.402545 3.402683 3.404206 3.404112 3.405402 3.405397 3.405212 3.405550 3.405273 3.404993 3.404667 3.404457 3.404902 3.405587 3.406832 3.408444 3.408769 3.408278 3.408051 3.408820 3.408055 3.408016 3.407658 3.407748 3.408335 3.408597 3.408515 3.409428 3.409233 3.409283 3.409775 3.409657 3.410112 3.409613 3.409406 3.409085 3.408821 3.408799 3.408648 3.408906 3.408892 3.408584 3.408484 3.408269 3.407756 3.407339 3.407251 3.407512 3.407139 3.407030 3.407211 3.407187 3.407245 3.408943 3.408874 3.408735 3.408454 3.407941 3.407354 3.407583 3.407980 3.408840 3.408126 3.407907 3.408358 3.408015 3.408281 3.407594 3.407590 3.408083 3.408086 3.407595 3.407419 3.408527 3.408311 3.408243 3.408666 3.408484 3.408225 3.407669 3.407139 3.406750 3.407104 3.407813 3.407258 3.406815 3.407996 3.407924 3.408627 3.409257 3.409472 3.408736 3.408088 3.407471 3.407346 3.406737 3.406261 3.406052 3.406663 3.406303 3.406362 3.407583 3.406989 3.406629 3.405998 3.406150 3.407693 3.408588 3.408857 3.408840 3.408523 3.408125 3.407798 3.408439 3.408896 3.410724 3.410429 3.410387 3.410010 3.411100 3.410731 3.410803 3.411128 3.411400 3.411583 3.411307 3.411611 3.411078 3.411396 3.410984 3.410564 3.410333 3.410163 3.409667 3.409944 3.409907 3.411031 3.411156 3.410626 3.410541 3.410423 3.409709 3.409081 3.410334 3.410025 3.410127 3.409390 3.409832 3.409735 3.409621 3.409532 3.409390 3.410434 3.410421 3.410857 3.412697 3.412993 3.413950 3.413932 3.413529 3.413358 3.414069 3.413539 3.414963 3.414806 3.414472 3.414012 3.413742 3.413851 3.413322 3.412876 3.413485 3.414102 3.413532 3.414910 3.415241 3.414918 3.415836 3.415796 3.415210 3.415606 3.415158 3.414757 3.414844 3.414611 3.414306 3.414303 3.414009 3.413949 3.414414 3.413847 3.413307 3.412738 3.412897 3.412965 3.414679 3.414457 3.414467 3.414237 3.414125 3.414537 3.414358 3.414747 3.414421 3.415370 3.415110 3.414763 3.414627 3.415676 3.415296 3.415103 3.414894 3.414987 3.414663 3.414829 3.417974 3.417560 3.417388 3.416598 3.416501 3.416081 3.416044 3.417430 3.417564 3.417316 3.417198 3.416724 3.416145 3.417448 3.417225 3.416448 3.416247 3.416581 3.417795 3.418043 3.417423 3.417663 3.417883 3.418037 3.418331 3.418879 3.418339 3.419181 3.419758 3.419390 3.420042 3.420040 3.419697 3.419360 3.418816 3.420100 3.419885 3.420124 3.421035 3.420812 3.421184 3.421245 3.421331 3.421119 3.421963 3.421899 3.421743 3.421962 3.421864 3.421762 3.421380 3.421068 3.421046 3.420521 3.421145 3.420965 3.420556 3.420316 3.420222 3.420290 3.420107 3.420872 3.420630 3.420190 3.419983 3.419519 3.420247 3.420053 3.420175 3.421060 3.420979 3.420651 3.420757 3.420364 3.420021 3.419778 3.420087 3.419716 3.419410 3.418931 3.418333 3.418636 3.419034 3.418592 3.417888 3.417294 3.416718 3.417309 3.416817 3.417213 3.417526 3.417008 3.416982 3.416358 3.416158 3.415612 3.415339 3.414785 3.414167 3.414375 3.413751 3.413861 3.413482 3.412710 3.412641 3.413370 3.412962 3.412594 3.412475 3.411900 3.412043 3.411909 3.411790 3.411447 3.410997 3.411990 3.411182 3.410566 3.410258 3.410297 3.410348 3.409912 3.410460 3.410677 3.410599 3.410337 3.409724 3.409458 3.409264 3.409498 3.409600 3.410515 3.411041 3.410679 3.411028 3.411244 3.411606 3.411759 3.411646 3.412588 3.411999 3.411958 3.411621 3.411422 3.411162 3.410888 3.410541 3.410639 3.410014 3.409381 3.409242 3.409242 3.409207 3.409185 3.408756 3.409214 3.409014 3.408893 3.408828 3.409144 3.408439 3.409516 3.409935 3.409800 3.409207 3.408492 3.408572 3.407976 3.408041 3.408229 3.407955 3.407799 3.408681 3.408022 3.408226 3.408459 3.408571 3.408529 3.408561 3.408698 3.408388 3.408354 3.408415 3.408515 3.408591 3.409607 3.409451 3.409001 3.408481 3.408003 3.407559 3.407114 3.406744 3.407002 3.407683 3.407486 3.406966 3.407411 3.406992 3.407443 3.407125 3.406618 3.407324 3.407709 3.407605 3.407194 3.407275 3.406891 3.406737 3.406802 3.406475 3.406295 3.405699 3.405621 3.406492 3.406665 3.406478 3.406315 3.406304 3.406493 3.406048 3.405910 3.405395 3.404946 3.404728 3.404305 3.404007 3.404004 3.404683 3.405411 3.405043 3.404684 3.404260 3.404073 3.404768 3.404793 3.404679 3.404595 3.404673 3.404215 3.403743 3.403524 3.404157 3.403765 3.404191 3.405185 3.405172 3.405380 3.406106 3.405867 3.406701 3.406700 3.406800 3.406977 3.407209 3.407535 3.407120 3.406761 3.406258 3.406660 3.405926 3.405560 3.405005 3.405557 3.405505 3.405695 3.406147 3.405822 3.405363 3.405189 3.404811 3.404079 3.404704 3.404607 3.404398 3.403850 3.403498 3.403214 3.403769 3.403377 3.404263 3.403815 3.404017 3.404600 3.404491 3.404090 3.403562 3.403069 3.403595 3.403010 3.403012 3.403642 3.403455 3.403157 3.403399 3.403189 3.404166 3.404690 3.404882 3.404814 3.405916 3.405474 3.405489 3.405433 3.405140 3.404811 3.404727 3.404475 3.404206 3.404871 3.405085 3.404512 3.403999 3.404534 3.404019 3.403973 3.403230 3.402502 3.401962 3.401333 3.400817 3.401032 3.401450 3.401384 3.401321 3.401056 3.400576 3.400548 3.400146 3.400524 3.400239 3.399851 3.399148 3.399514 3.399129 3.399092 3.398815 3.398306 3.398154 3.397571 3.397302 3.397729 3.397871 3.397806 3.398317 3.398440 3.399198 3.399881 3.399773 3.399354 3.399372 3.399465 3.399528 3.398874 3.398541 3.399310 3.398772 3.399325 3.399203 3.399944 3.399601 3.399506 3.399020 3.398792 3.399215 3.399588 3.399348 3.399406 3.399466 3.399331 3.399211 3.398803 3.398341 3.398074 3.397456 3.397800 3.398563 3.398083 3.397721 3.397502 3.398028 3.397747 3.397359 3.398332 3.398347 3.398384 3.398557 3.398693 3.398140 3.398714 3.398292 3.398753 3.398197 3.398266 3.398413 3.398307 3.398103 3.398188 3.398728 3.398486 3.398991 3.399388 3.400596 3.401491 3.401706 3.401193 3.400797 3.400174 3.400026 3.399678 3.399444 3.399622 3.399693 3.399729 3.399780 3.399124 3.398740 3.398990 3.398841 3.398796 3.398609 3.398047 3.397711 3.398195 3.397724 3.397512 3.397564 3.397454 3.396998 3.397704 3.397918 3.397952 3.397748 3.397294 3.397107 3.397377 3.397575 3.398152 3.398555 3.398190 3.398832 3.399452 3.399143 3.399026 3.399055 3.398272 3.398226 3.398766 3.398417 3.399064 3.398828 3.398459 3.398551 3.398187 3.398692 3.399403 3.399306 3.398574 3.398855 3.398682 3.398461 3.398373 3.398321 3.398107 3.398180 3.398844 3.398277 3.397827 3.397905 3.398004 3.397369 3.396913 3.396957 3.397325 3.397199 3.397510 3.397525 3.397067 3.397823 3.398702 3.398352 3.397953 3.398100 3.398100 3.397837 3.398539 3.399985 3.399780 3.400507 3.400392 3.400387 3.400009 3.399850 3.399315 3.399237 3.398564 3.399863 3.399438 3.399958 3.400077 3.399815 3.400300 3.400073 3.400175 3.400127 3.402270 3.402022 3.402160 3.402770 3.402442 3.402246 3.403378 3.403278 3.403077 3.403794 3.405344 3.405635 3.406275 3.407259 3.408268 3.408399 3.408898 3.409101 3.409305 3.409146 3.409362 3.409230 3.409122 3.408562 3.408335 3.408217 3.408578 3.408049 3.407308 3.407344 3.407695 3.407516 3.407578 3.407459 3.407530 3.408698 3.408498 3.408883 3.408433 3.408954 3.408562 3.408137 3.408180 3.408945 3.410182 3.410079 3.410464 3.410350 3.410033 3.410118 3.410011 3.410092 3.409572 3.409239 3.409868 3.411178 3.411311 3.410976 3.411567 3.412831 3.412863 3.413394 3.413104 3.413384 3.413271 3.413244 3.412875 3.412869 3.412361 3.412371 3.412935 3.412540 3.412474 3.411912 3.411539 3.411307 3.410534 3.409821 3.410039 3.409951 3.409951 3.409762 3.409480 3.409981 3.409775 3.410634 3.411801 3.411469 3.410725 3.410828 3.411006 3.410851 3.411805 3.411421 3.411316 3.411239 3.412144 3.411710 3.411394 3.411516 3.411062 3.411191 3.410929 3.410901 3.410674 3.411076 3.410811 3.410217 3.410933 3.411325 3.410672 3.411129 3.411084 3.411090 3.411467 3.411169 3.410791 3.410366 3.410431 3.410728 3.410519 3.410288 3.409787 3.410361 3.410183 3.410343 3.410601 3.411112 3.411502 3.412234 3.412715 3.412748 3.412818 3.412829 3.412927 3.412495 3.412621 3.413014 3.412659 3.412899 3.412834 3.413390 3.412932 3.413226 3.414247 3.413974 3.413874 3.413225 3.413376 3.413547 3.413548 3.413514 3.413238 3.412921 3.412749 3.412321 3.412168 3.411702 3.411476 3.411427 3.411103 3.411430 3.411982 3.411628 3.411156 3.411367 3.410972 3.410687 3.411168 3.411710 3.411720 3.411635 3.411486 3.412709 3.412970 3.412996 3.412804 3.412761 3.412559 3.412396 3.411985 3.411655 3.411265 3.411285 3.410670 3.411371 3.411422 3.411625 3.411073 3.411170 3.411241 3.411949 3.412209 3.412451 3.412687 3.412053 3.411745 3.411314 3.410804 3.410349 3.411131 3.410604 3.412047 3.411880 3.411626 3.411876 3.412803 3.412418 3.412366 3.411875 3.412445 3.412094 3.411746 3.412069 3.412206 3.412908 3.412628 3.412973 3.412917 3.412942 3.412868 3.413045 3.412655 3.412780 3.413385 3.413540 3.414029 3.414206 3.414178 3.414171 3.414308 3.414282 3.414758 3.414399 3.413805 3.414356 3.413901 3.414503 3.414837 3.415076 3.414933 3.414903 3.414664 3.414279 3.415487 3.415012 3.414926 3.415675 3.415332 3.414587 3.414710 3.415680 3.415310 3.415108 3.414859 3.415132 3.415070 3.415136 3.415254 3.415939 3.416241 3.416667 3.416563 3.416498 3.416445 3.416325 3.416359 3.416049 3.415992 3.416760 3.416886 3.416693 3.416624 3.416253 3.415882 3.416545 3.415876 3.415945 3.415656 3.415183 3.415704 3.416446 3.416949 3.417443 3.417575 3.417478 3.417128 3.416745 3.416820 3.416958 3.416916 3.417021 3.417117 3.416999 3.417718 3.417368 3.417781 3.417381 3.418564 3.418962 3.418489 3.418380 3.418939 3.419095 3.420433 3.420753 3.420967 3.420919 3.420674 3.420054 3.419772 3.419408 3.420765 3.420228 3.419573 3.419471 3.418875 3.418435 3.418488 3.418294 3.417816 3.417943 3.418464 3.419187 3.419253 3.420088 3.419742 3.419821 3.420132 3.420430 3.420557 3.420461 3.419980 3.420346 3.420366 3.419821 3.419393 3.419223 3.419345 3.418865 3.419780 3.419455 3.418909 3.418857 3.419242 3.419487 3.420642 3.421210 3.421015 3.420951 3.420656 3.420824 3.420666 3.420912 3.421595 3.421274 3.420515 3.420749 3.420797 3.420482 3.420105 3.420626 3.420292 3.420455 3.420821 3.420861 3.421280 3.420649 3.420796 3.420311 3.419768 3.419298 3.419441 3.419411 3.419394 3.418958 3.418590 3.419503 3.418956 3.418503 3.418064 3.417876 3.417507 3.417217 3.417044 3.417699 3.417223 3.417639 3.417745 3.417574 3.417005 3.416387 3.416560 3.416800 3.416906 3.416609 3.416294 3.416638 3.416461 3.416012 3.416509 3.416067 3.416114 3.416219 3.415873 3.415515 3.415785 3.416230 3.417160 3.416705 3.416911 3.416450 3.417194 3.416765 3.416159 3.416056 3.415858 3.415611 3.415416 3.415772 3.415511 3.415252 3.414922 3.414366 3.414145 3.414174 3.414064 3.413530 3.414012 3.414987 3.414881 3.415167 3.414981 3.415313 3.415354 3.415394 3.415756 3.416213 3.416469 3.416628 3.417015 3.416460 3.415880 3.415719 3.415823 3.416054 3.415872 3.416449 3.416406 3.416574 3.416248 3.415639 3.416093 3.415764 3.415580 3.415392 3.415657 3.415590 3.415477 3.415816 3.415533 3.416131 3.416124 3.416073 3.416660 3.416448 3.417234 3.416891 3.416875 3.416891 3.416464 3.416105 3.415847 3.415425 3.415572 3.415696 3.415750 3.416267 3.415560 3.416298 3.415950 3.416310 3.416339 3.416092 3.416019 3.416573 3.417187 3.416907 3.416262 3.416652 3.416974 3.416886 3.416657 3.416530 3.416067 3.416196 3.415922 3.415523 3.415278 3.415637 3.416566 3.416983 3.417865 3.417340 3.416813 3.416528 3.416115 3.415615 3.415796 3.415678 3.415481 3.415378 3.415442 3.415365 3.415009 3.416058 3.415571 3.416178 3.416436 3.416321 3.416323 3.416998 3.417103 3.417319 3.417370 3.418164 3.418909 3.419514 3.418957 3.418656 3.418378 3.417937 3.418193 3.418395 3.419420 3.419377 3.419477 3.419651 3.418912 3.418150 3.417894 3.417919 3.417935 3.417402 3.417085 3.417260 3.417133 3.417328 3.417005 3.416388 3.416836 3.416621 3.416471 3.415957 3.415790 3.415719 3.416329 3.416173 3.415931 3.416434 3.416958 3.417409 3.417727 3.419288 3.419489 3.420206 3.419924 3.419200 3.418844 3.419052 3.419004 3.418853 3.418969 3.419020 3.418973 3.418757 3.420269 3.419795 3.419801 3.419595 3.419662 3.419796 3.419998 3.419914 3.421082 3.421053 3.420937 3.421457 3.421370 3.420747 3.420453 3.420522 3.419930 3.419733 3.420304 3.420355 3.420558 3.420291 3.420511 3.420365 3.420628 3.420613 3.420906 3.421369 3.422004 3.421480 3.421982 3.422009 3.421481 3.421116 3.420881 3.422676 3.422427 3.422862 3.422683 3.422821 3.422495 3.423090 3.422614 3.422953 3.422423 3.422140 3.422662 3.423116 3.422855 3.422603 3.423112 3.422871 3.422497 3.422259 3.422707 3.422808 3.424045 3.423484 3.423423 3.422702 3.422582 3.423629 3.423445 3.423064 3.422744 3.422720 3.422643 3.423070 3.423728 3.423219 3.423502 3.423000 3.423254 3.423543 3.423607 3.423892 3.424127 3.423790 3.423887 3.424036 3.424508 3.424749 3.424242 3.425016 3.424357 3.424713 3.424593 3.425244 3.424615 3.424323 3.423695 3.423217 3.422871 3.422793 3.422869 3.422842 3.422574 3.422918 3.423078 3.422966 3.422952 3.422930 3.422939 3.422896 3.423412 3.423269 3.423680 3.422937 3.423878 3.423654 3.423366 3.423434 3.424873 3.424515 3.425014 3.424859 3.424863 3.424681 3.423957 3.424047 3.423765 3.424111 3.423383 3.423402 3.423586 3.423218 3.423881 3.424308 3.424518 3.424081 3.424540 3.424052 3.423697 3.423429 3.423348 3.423785 3.423984 3.423518 3.424361 3.424111 3.423789 3.423676 3.423952 3.424960 3.425177 3.425054 3.424458 3.424385 3.424453 3.424680 3.424751 3.424436 3.424355 3.424181 3.423969 3.423984 3.423911 3.423338 3.423491 3.423236 3.423578 3.423761 3.424985 3.424891 3.425632 3.425572 3.425009 3.425331 3.424755 3.424651 3.424105 3.423710 3.424329 3.424134 3.423784 3.423771 3.423832 3.424417 3.424484 3.424511 3.424715 3.424429 3.424290 3.423981 3.423878 3.423397 3.424015 3.424111 3.423988 3.424852 3.424736 3.424863 3.424408 3.424064 3.423535 3.423550 3.423752 3.424222 3.424640 3.424796 3.424628 3.424168 3.423979 3.423957 3.424348 3.424175 3.423883 3.424224 3.424318 3.424734 3.424656 3.424948 3.424741 3.424687 3.424398 3.424082 3.423820 3.423789 3.424208 3.423636 3.423577 3.423711 3.424136 3.423903 3.423516 3.422859 3.422775 3.423132 3.422457 3.422591 3.422635 3.422083 3.421766 3.421812 3.421667 3.421551 3.421371 3.421632 3.422763 3.423617 3.424461 3.424404 3.424785 3.424638 3.424068 3.423397 3.423425 3.423924 3.423564 3.423136 3.422798 3.422947 3.422512 3.422113 3.422150 3.422329 3.421774 3.421700 3.421317 3.421083 3.420471 3.421327 3.420766 3.421879 3.422154 3.422244 3.421786 3.422590 3.422435 3.422596 3.422595 3.423904 3.423817 3.423942 3.423495 3.423146 3.423373 3.423443 3.423999 3.423726 3.424767 3.424528 3.425560 3.425676 3.425122 3.425450 3.424975 3.424726 3.424832 3.424773 3.424577 3.424532 3.424475 3.424292 3.423973 3.424340 3.424543 3.424624 3.424946 3.424590 3.424836 3.425384 3.424839 3.425441 3.425373 3.425257 3.425238 3.425177 3.425135 3.425669 3.425431 3.425426 3.424818 3.424789 3.424254 3.423894 3.423560 3.422993 3.422424 3.422076 3.422461 3.422723 3.422381 3.422207 3.421603 3.422641 3.422452 3.422160 3.422384 3.421939 3.421616 3.421682 3.421373 3.421172 3.421256 3.420932 3.420440 3.420630 3.420951 3.420615 3.420360 3.420753 3.421125 3.421537 3.421139 3.420789 3.420369 3.419756 3.419564 3.420154 3.420070 3.419931 3.420008 3.420955 3.420766 3.421546 3.421674 3.421476 3.421649 3.421662 3.421232 3.421436 3.421034 3.420711 3.420803 3.421219 3.421974 3.421955 3.422628 3.422474 3.422618 3.422611 3.422542 3.423189 3.423908 3.423365 3.423258 3.423343 3.423018 3.422907 3.422829 3.423702 3.423591 3.424126 3.423825 3.423477 3.423119 3.423564 3.423577 3.423638 3.423477 3.423522 3.423140 3.423893 3.423426 3.423246 3.423047 3.422493 3.422977 3.423018 3.423525 3.423508 3.423511 3.423274 3.423925 3.424264 3.424875 3.424655 3.425012 3.425111 3.425043 3.426166 3.426569 3.426291 3.426400 3.426216 3.426825 3.427010 3.426969 3.426656 3.427047 3.427192 3.427467 3.427705 3.427789 3.427989 3.427990 3.428118 3.428142 3.428181 3.428395 3.429108 3.429144 3.429362 3.429121 3.429389 3.429061 3.428287 3.427571 3.427157 3.427070 3.426841 3.426910 3.426520 3.426478 3.426370 3.426025 3.425705 3.426171 3.425898 3.426453 3.426247 3.425832 3.425397 3.425631 3.425964 3.426305 3.427612 3.428557 3.428221 3.427975 3.427385 3.427899 3.428174 3.428527 3.428832 3.429274 3.429711 3.429852 3.430529 3.430145 3.430588 3.430460 3.430274 3.429880 3.429636 3.429361 3.429940 3.429969 3.429528 3.429153 3.428719 3.428446 3.428446 3.428553 3.429635 3.429788 3.429781 3.429403 3.429750 3.429912 3.430707 3.430594 3.431119 3.431705 3.431303 3.431167 3.431541 3.433267 3.433108 3.433145 3.433451 3.433547 3.433271 3.433817 3.433986 3.434705 3.434592 3.435678 3.435397 3.435488 3.434760 3.435133 3.435244 3.435293 3.435008 3.435763 3.436470 3.436406 3.436855 3.436675 3.436594 3.437318 3.437198 3.436802 3.437447 3.437762 3.437505 3.437557 3.437697 3.438133 3.437828 3.438038 3.438586 3.438382 3.438267 3.438566 3.438164 3.438274 3.438240 3.437594 3.437154 3.436964 3.436451 3.436488 3.437203 3.436789 3.436592 3.437444 3.437032 3.437060 3.437459 3.436960 3.437067 3.436641 3.437064 3.437221 3.436732 3.436103 3.436194 3.436530 3.436995 3.436571 3.437506 3.437153 3.437899 3.438145 3.437722 3.437748 3.438209 3.438476 3.438799 3.438950 3.438933 3.438719 3.439364 3.439171 3.439070 3.438783 3.438502 3.439034 3.438989 3.439024 3.438841 3.438920 3.438821 3.438418 3.438209 3.437897 3.437972 3.438175 3.437947 3.438303 3.438821 3.438831 3.438770 3.438396 3.437850 3.437957 3.438066 3.438672 3.438644 3.438550 3.438198 3.437751 3.437717 3.437800 3.438301 3.438460 3.438092 3.438086 3.437683 3.437384 3.437573 3.437436 3.437190 3.439680 3.440154 3.441141 3.440853 3.441452 3.441660 3.441306 3.441607 3.441533 3.441699 3.441448 3.441022 3.440570 3.439966 3.440084 3.440166 3.439765 3.439352 3.440420 3.439911 3.439509 3.438934 3.439058 3.438745 3.439754 3.439224 3.439111 3.438763 3.438825 3.438376 3.438312 3.437981 3.438316 3.439085 3.440147 3.439673 3.439509 3.438939 3.438406 3.437735 3.437410 3.437290 3.437930 3.437246 3.436935 3.436958 3.437209 3.437225 3.437661 3.437350 3.437289 3.437121 3.437056 3.436813 3.436280 3.436640 3.437201 3.436950 3.436455 3.436669 3.436436 3.436600 3.436473 3.437481 3.437002 3.436649 3.436385 3.435755 3.435361 3.434914 3.435524 3.435268 3.434724 3.434761 3.434348 3.433683 3.434526 3.434362 3.433929 3.433516 3.433613 3.433021 3.433374 3.433014 3.432670 3.432356 3.431896 3.431875 3.431446 3.431976 3.431449 3.432015 3.432746 3.432557 3.432593 3.432874 3.433323 3.433348 3.433792 3.433753 3.433324 3.433517 3.433665 3.434553 3.434756 3.434785 3.434405 3.434181 3.434077 3.434062 3.435099 3.434785 3.434399 3.433969 3.434659 3.434760 3.435108 3.435554 3.435553 3.435029 3.436243 3.436670 3.436640 3.436336 3.436045 3.435436 3.435066 3.436280 3.436400 3.436858 3.436888 3.436410 3.436222 3.435853 3.435768 3.435288 3.435350 3.434890 3.434708 3.434402 3.434987 3.435103 3.435114 3.435251 3.434979 3.434439 3.434356 3.433952 3.433283 3.432880 3.432932 3.432479 3.433197 3.433463 3.433310 3.432970 3.433076 3.432668 3.432116 3.432021 3.432689 3.432733 3.432574 3.432836 3.432612 3.432918 3.433049 3.432570 3.432680 3.432540 3.432442 3.433254 3.433003 3.433173 3.433106 3.433288 3.433793 3.433334 3.432905 3.433511 3.434110 3.433989 3.434038 3.433974 3.434706 3.434790 3.434732 3.434420 3.434226 3.434195 3.434378 3.434241 3.434508 3.434019 3.433945 3.433589 3.433534 3.433234 3.433220 3.434254 3.433940 3.433721 3.433510 3.433396 3.432997 3.433564 3.433386 3.432782 3.432820 3.432338 3.432475 3.432319 3.432166 3.431902 3.431827 3.432806 3.432978 3.433184 3.432840 3.432731 3.432695 3.432679 3.433012 3.432991 3.433240 3.432906 3.433568 3.434959 3.435101 3.435097 3.435173 3.435268 3.434731 3.434958 3.435010 3.434682 3.434749 3.434467 3.434615 3.435657 3.435512 3.435648 3.436075 3.436243 3.436496 3.436424 3.436117 3.436186 3.435569 3.435122 3.435002 3.435541 3.435383 3.434880 3.434996 3.435321 3.435702 3.435683 3.435985 3.435521 3.435331 3.435444 3.435123 3.434584 3.434094 3.433969 3.433715 3.433600 3.433868 3.434140 3.433867 3.434322 3.434640 3.434495 3.434145 3.433746 3.433303 3.433039 3.432733 3.434065 3.433662 3.433534 3.434301 3.435799 3.435554 3.435332 3.435333 3.435642 3.435530 3.435948 3.436463 3.436233 3.435714 3.435398 3.435336 3.435539 3.435726 3.435996 3.436474 3.435963 3.435814 3.436208 3.435825 3.435640 3.435425 3.435913 3.435631 3.435210 3.434830 3.435088 3.435468 3.435311 3.435093 3.435500 3.434778 3.434643 3.434642 3.434095 3.434893 3.434603 3.434329 3.434084 3.434705 3.435010 3.434570 3.434458 3.433995 3.434325 3.434240 3.433972 3.434429 3.434256 3.434676 3.434654 3.434582 3.434236 3.436275 3.436111 3.436446 3.436141 3.435648 3.435965 3.436690 3.436485 3.436133 3.435778 3.435443 3.435343 3.434843 3.434522 3.434220 3.434199 3.434212 3.434111 3.433704 3.433363 3.433521 3.433543 3.433299 3.433684 3.433393 3.433810 3.433305 3.433002 3.432733 3.432247 3.432314 3.432706 3.432310 3.432320 3.432024 3.431800 3.431851 3.431414 3.431044 3.430426 3.430473 3.430200 3.430139 3.430299 3.430572 3.430578 3.430923 3.430704 3.430377 3.430112 3.430356 3.429806 3.431403 3.431138 3.430813 3.430896 3.430842 3.430934 3.430569 3.430225 3.430204 3.430046 3.429882 3.429498 3.429920 3.429492 3.429595 3.429339 3.428845 3.428986 3.429329 3.429094 3.428668 3.429222 3.429074 3.428966 3.429816 3.429767 3.430010 3.429503 3.430051 3.429794 3.430336 3.430729 3.430606 3.430561 3.431345 3.431571 3.431267 3.430722 3.430719 3.430409 3.430946 3.430415 3.430150 3.430026 3.429907 3.429743 3.429570 3.429482 3.429363 3.428909 3.429458 3.429263 3.428776 3.429154 3.428987 3.429133 3.429074 3.429017 3.428805 3.428384 3.428003 3.427444 3.427172 3.426794 3.426483 3.426100 3.425862 3.425684 3.425990 3.426228 3.426173 3.426449 3.426807 3.426387 3.425915 3.425919 3.425830 3.425911 3.425771 3.425982 3.425758 3.426252 3.427011 3.427056 3.426931 3.426938 3.426860 3.426959 3.426924 3.426315 3.426744 3.426505 3.426445 3.425900 3.425303 3.425079 3.425060 3.426519 3.426415 3.425984 3.425701 3.426136 3.426623 3.426468 3.426350 3.426878 3.426828 3.427328 3.427162 3.427199 3.426696 3.426402 3.425984 3.425695 3.425511 3.425113 3.424668 3.424361 3.423744 3.423742 3.423676 3.423089 3.422972 3.423249 3.422972 3.423891 3.423840 3.424717 3.424661 3.425287 3.426076 3.426175 3.427037 3.426795 3.426857 3.426399 3.426735 3.426841 3.426904 3.427553 3.427520 3.427365 3.427007 3.426897 3.426498 3.426594 3.426455 3.426282 3.426628 3.427079 3.427761 3.427871 3.427784 3.427477 3.428269 3.428027 3.428318 3.427566 3.428333 3.428255 3.428037 3.428873 3.428907 3.428552 3.428730 3.428839 3.428283 3.428430 3.429151 3.428645 3.429012 3.429098 3.430218 3.430808 3.431126 3.431465 3.432131 3.432354 3.432162 3.431762 3.431378 3.430918 3.430523 3.431042 3.430839 3.431215 3.430733 3.430377 3.429728 3.429958 3.430118 3.430809 3.430935 3.430412 3.432032 3.431970 3.431775 3.431554 3.431194 3.431467 3.431151 3.430874 3.431221 3.431111 3.430973 3.430730 3.430868 3.431143 3.430906 3.431156 3.430962 3.430441 3.429964 3.430024 3.430268 3.430667 3.430313 3.429696 3.429459 3.429000 3.428833 3.428407 3.428253 3.428340 3.428277 3.428652 3.428954 3.428584 3.429037 3.429118 3.429339 3.429389 3.429433 3.428962 3.428702 3.430154 3.430352 3.430424 3.431236 3.431318 3.430574 3.430898 3.431695 3.432033 3.432862 3.433587 3.433648 3.433268 3.433944 3.434745 3.434719 3.434196 3.433661 3.433868 3.434805 3.436032 3.435408 3.434991 3.434752 3.434804 3.434674 3.435414 3.435719 3.436491 3.437190 3.437222 3.437248 3.437307 3.437241 3.437570 3.437161 3.436918 3.436803 3.436220 3.436499 3.436701 3.436211 3.436573 3.436232 3.436097 3.436367 3.436393 3.437040 3.437434 3.437505 3.438022 3.439148 3.438841 3.438703 3.438803 3.438310 3.438525 3.438190 3.438067 3.438106 3.437733 3.437371 3.437657 3.437732 3.437069 3.436744 3.436255 3.436324 3.436549 3.436328 3.436930 3.437675 3.437571 3.437918 3.438008 3.437544 3.437566 3.437155 3.436437 3.437325 3.436610 3.437182 3.436940 3.437249 3.437208 3.437578 3.438180 3.438151 3.438238 3.438380 3.438360 3.438598 3.438264 3.438632 3.438147 3.438442 3.438903 3.438561 3.438349 3.438356 3.437799 3.437615 3.437688 3.438572 3.438692 3.438677 3.438747 3.439418 3.439002 3.438928 3.438356 3.438471 3.438545 3.438806 3.438795 3.438190 3.438331 3.437850 3.438244 3.437952 3.438345 3.438744 3.438632 3.438168 3.438106 3.438411 3.438148 3.437887 3.437627 3.437489 3.437553 3.437143 3.436808 3.436265 3.436037 3.435919 3.436263 3.436407 3.436283 3.435978 3.437228 3.437054 3.436381 3.436455 3.436155 3.436398 3.436186 3.436027 3.436078 3.437308 3.437438 3.437588 3.437361 3.437774 3.438165 3.438522 3.438461 3.438128 3.437974 3.437432 3.437444 3.437944 3.438254 3.437949 3.438048 3.437912 3.437911 3.438308 3.438434 3.437900 3.438983 3.439879 3.440159 3.440910 3.441984 3.442544 3.442673 3.442800 3.442509 3.442255 3.441804 3.441620 3.442100 3.442244 3.442720 3.443892 3.443289 3.443203 3.443623 3.443705 3.443451 3.443137 3.442735 3.442886 3.442918 3.443692 3.443616 3.443202 3.442798 3.442793 3.442186 3.441976 3.442243 3.442677 3.443761 3.443430 3.443200 3.443281 3.443802 3.443675 3.443263 3.442995 3.443448 3.443403 3.443476 3.443850 3.444045 3.444313 3.444002 3.443906 3.444032 3.443623 3.443710 3.443957 3.444579 3.444135 3.443995 3.444001 3.444382 3.444364 3.444229 3.443949 3.444896 3.444723 3.444486 3.444724 3.444388 3.444045 3.443913 3.443781 3.443720 3.443400 3.443281 3.442621 3.442708 3.443754 3.444164 3.445174 3.445303 3.445107 3.445323 3.446391 3.446326 3.446152 3.445908 3.446300 3.445690 3.444954 3.444873 3.445343 3.444998 3.445186 3.445217 3.445656 3.446240 3.446241 3.445933 3.445950 3.446109 3.446291 3.446468 3.446332 3.446328 3.445938 3.446133 3.446511 3.447004 3.447055 3.446927 3.446468 3.446496 3.446011 3.446207 3.446072 3.446578 3.446812 3.447807 3.447544 3.447212 3.447473 3.448069 3.448028 3.448864 3.448880 3.448484 3.447982 3.448400 3.448444 3.448407 3.448053 3.447945 3.447373 3.448298 3.447955 3.447646 3.447324 3.447228 3.447017 3.446720 3.446714 3.446358 3.446165 3.445884 3.446264 3.446057 3.447369 3.447188 3.447005 3.446720 3.446473 3.446582 3.446812 3.446969 3.446653 3.446956 3.447091 3.447053 3.446538 3.446687 3.446282 3.445964 3.445889 3.445814 3.445675 3.445553 3.445938 3.446342 3.446602 3.446305 3.445993 3.446893 3.446810 3.446853 3.447348 3.448457 3.448929 3.448468 3.448295 3.448549 3.448250 3.447952 3.447833 3.447662 3.447296 3.447536 3.447879 3.448369 3.448208 3.447462 3.447361 3.446959 3.448097 3.447970 3.448044 3.448422 3.448422 3.449689 3.449449 3.449346 3.449014 3.448558 3.448600 3.448681 3.448843 3.448535 3.447941 3.447458 3.446925 3.446679 3.446717 3.446465 3.446279 3.445695 3.445283 3.445401 3.446163 3.446048 3.446542 3.446292 3.446037 3.446421 3.445920 3.446040 3.446892 3.446340 3.446090 3.446030 3.446327 3.445893 3.446107 3.445992 3.446019 3.446485 3.446166 3.446385 3.446208 3.446711 3.446382 3.446367 3.445823 3.447081 3.446769 3.446696 3.447081 3.447304 3.447479 3.447317 3.448251 3.448290 3.447797 3.447351 3.448376 3.448216 3.447840 3.447844 3.447758 3.447434 3.447030 3.447026 3.447761 3.447794 3.447720 3.447202 3.447654 3.447760 3.447390 3.447454 3.446900 3.446753 3.447713 3.447780 3.447917 3.447543 3.447123 3.447110 3.447313 3.447368 3.448113 3.447774 3.447504 3.448018 3.447842 3.447701 3.447526 3.447675 3.447436 3.447802 3.447382 3.447308 3.447201 3.446974 3.446973 3.446568 3.447151 3.447383 3.447185 3.448806 3.449068 3.448687 3.448519 3.448730 3.448752 3.448583 3.448321 3.448242 3.448469 3.448241 3.447746 3.447542 3.448612 3.448844 3.448764 3.449204 3.449466 3.450298 3.449970 3.449626 3.449416 3.449473 3.449334 3.449186 3.449416 3.449117 3.448761 3.448888 3.448518 3.448548 3.447777 3.447424 3.447454 3.447485 3.447491 3.447288 3.446896 3.446390 3.446229 3.446492 3.447569 3.447998 3.448249 3.448302 3.449151 3.449775 3.449684 3.450409 3.450657 3.450380 3.450342 3.449803 3.449830 3.449691 3.449453 3.449368 3.449883 3.449957 3.450542 3.450448 3.450519 3.450848 3.451489 3.452005 3.452962 3.452718 3.452695 3.452382 3.451699 3.451241 3.452034 3.451827 3.451800 3.451352 3.451178 3.450970 3.450890 3.450693 3.450650 
