4.787942 4.716048 4.645648 4.576720 4.509242 4.443192 4.378549 4.315291 4.253397 4.192844 4.133611 4.075676 4.019018 3.963614 3.909444 3.856485 3.804715 3.754114 3.704659 3.656328 3.609101 3.562954 3.517867 3.473818 3.430785 3.388746 3.347680 3.307565 3.268380 3.230101 3.192709 3.156181 3.120495 3.085630 3.051564 3.018276 2.985743 2.953944 2.922857 2.892461 2.862734 2.833653 2.805199 2.777348 2.750079 2.723370 2.697200 2.671547 2.646389 2.621705 2.597472 2.573670 2.550276 2.527268 2.504626 2.482327 2.460350 2.438672 2.417273 2.396130 2.375222 2.354527 2.334024 2.313690 2.293504 2.273445 2.253490 2.233618 2.213807 2.194036 2.174282 2.154525 2.134742 2.114911 2.095012 2.075021 2.054919 2.034682 2.014289 1.993760 1.973387 1.953236 1.933305 1.913591 1.894093 1.874809 1.855736 1.836873 1.818218 1.799768 1.781522 1.763479 1.745635 1.727989 1.710539 1.693283 1.676219 1.659345 1.642660 1.626160 1.609845 1.593712 1.577759 1.561985 1.546387 1.530963 1.515712 1.500631 1.485719 1.470973 1.456392 1.441974 1.427716 1.413617 1.399674 1.385887 1.372252 1.358768 1.345433 1.332245 1.319202 1.306301 1.293542 1.280922 1.268439 1.256091 1.243876 1.231793 1.219839 1.208012 1.196310 1.184732 1.173275 1.161938 1.150718 1.139613 1.128622 1.117743 1.106973 1.096311 1.085755 1.075303 1.064952 1.054701 1.044548 1.034490 1.024527 1.014656 1.004874 0.995181 0.985574 0.976051 0.966610 0.957249 0.947966 0.938760 0.929628 0.920568 0.911579 0.902659 0.893809 0.885028 0.876316 0.867672 0.859096 0.850589 0.842149 0.833777 0.825472 0.817234 0.809062 0.800957 0.792918 0.784945 0.777037 0.769195 0.761418 0.753705 0.746057 0.738473 0.730953 0.723496 0.716103 0.708773 0.701506 0.694302 0.687160 0.680079 0.673061 0.666104 0.659208 0.652373 0.645599 0.638885 0.632231 0.625637 0.619103 0.612627 0.606211 0.599854 0.593555 0.587314 0.581132 0.575006 0.568939 0.562928 0.556974 0.551077 0.545236 0.539451 0.533722 0.528048 0.522429 0.516865 0.511356 0.505902 0.500501 0.495155 0.489861 0.484622 0.479435 0.474301 0.469219 0.464189 0.459212 0.454286 0.449412 0.444588 0.439816 0.435094 0.430422 0.425800 0.421228 0.416706 0.412232 0.407808 0.403432 0.399105 0.394826 0.390594 0.386410 0.382274 0.378184 0.374142 0.370145 0.366195 0.362291 0.358432 0.354619 0.350851 0.347128 0.343449 0.339815 0.336224 0.332678 0.329175 0.325715 0.322297 0.318923 0.315591 0.312301 0.309053 0.305847 0.302681 0.299557 0.296474 0.293431 0.290428 0.287465 0.284542 0.281658 0.278813 0.276007 0.273240 0.270511 0.267820 0.265167 0.262551 0.259972 0.257431 0.254926 0.252457 0.250025 0.247628 0.245267 0.242941 0.240650 0.238394 0.236172 0.233985 0.231832 0.229712 0.227625 0.225572 0.223552 0.221564 0.219608 0.217684 0.215792 0.213932 0.212103 0.210305 0.208537 0.206800 0.205093 0.203415 0.201768 0.200149 0.198560 0.196999 0.195467 0.193963 0.192486 0.191037 0.189615 0.188219 0.186850 0.185507 0.184190 0.182899 0.181632 0.180391 0.179174 0.177981 0.176812 0.175667 0.174545 0.173446 0.172369 0.171315 0.170283 0.169273 0.168283 0.167315 0.166368 0.165441 0.164534 0.163647 0.162780 0.161931 0.161102 0.160291 0.159498 0.158723 0.157965 0.157225 0.156502 0.155795 0.155105 0.154430 0.153771 0.153128 0.152499 0.151886 0.151286 0.150701 0.150130 0.149571 0.149026 0.148494 0.147974 0.147467 0.146971 0.146487 0.146014 0.145552 0.145100 0.144659 0.144228 0.143806 0.143394 0.142990 0.142596 0.142209 0.141831 0.141460 0.141097 0.140741 0.140392 0.140049 0.139712 0.139381 0.139056 0.138736 0.138420 0.138109 0.137803 0.137500 0.137201 0.136905 0.136612 0.136322 0.136034 0.135748 0.135464 0.135181 0.134899 0.134618 0.134338 0.134057 0.133777 0.133495 0.133213 0.132930 0.132645 0.132359 0.132070 0.131779 0.131485 0.131188 0.130888 0.130584 0.130276 0.129964 0.129647 0.129325 0.128998 0.128665 0.128326 0.127981 0.127630 0.127271 0.126905 0.126532 0.126151 0.125762 0.125365 0.124958 0.124543 0.124118 0.123683 0.123239 0.122784 0.122319 0.121842 0.121355 0.120857 0.120347 0.119825 0.119291 0.118746 0.118187 0.117616 0.117032 0.116435 0.115825 0.115201 0.114564 0.113914 0.113250 0.112573 0.111883 0.111179 0.110461 0.109730 0.108986 0.108228 0.107458 0.106675 0.105879 0.105070 0.104249 0.103415 0.102570 0.101712 0.100842 0.099960 0.099066 0.098160 0.097244 0.096315 0.095375 0.094424 0.093462 0.092489 0.091506 0.090511 0.089506 0.088490 0.087464 0.086428 0.085382 0.084326 0.083260 0.082184 0.081098 0.080003 0.078899 0.077785 0.076662 0.075530 0.074389 0.073240 0.072081 0.070915 0.069739 0.068556 0.067364 0.066164 0.064957 0.063741 0.062518 0.061287 0.060049 0.058803 0.057550 0.056290 0.055023 0.053749 0.052469 0.051181 0.049888 0.048588 0.047281 0.045969 0.044650 0.043326 0.041996 0.040660 0.039318 0.037972 0.036620 0.035263 0.033901 0.032534 0.031162 0.029786 0.028405 0.027020 0.025631 0.024238 0.022841 0.021440 0.020036 0.018628 0.017217 0.015803 0.014385 0.012964 0.011541 0.010115 0.008687 0.007256 0.005822 0.004387 0.002949 0.001510 0.000069 -0.001373 -0.002818 -0.004263 -0.005710 -0.007157 -0.008606 -0.010056 -0.011506 -0.012956 -0.014407 -0.015859 -0.017310 -0.018762 -0.020213 -0.021664 -0.023115 -0.024565 -0.026014 -0.027462 -0.028910 -0.030357 -0.031802 -0.033246 -0.034688 -0.036129 -0.037568 -0.039005 -0.040441 -0.041874 -0.043304 -0.044732 -0.046158 -0.047581 -0.049001 -0.050418 -0.051833 -0.053245 -0.054675 -0.056148 -0.057691 -0.059332 -0.061092 -0.062978 -0.064984 -0.067104 -0.069334 -0.071667 -0.074099 -0.076625 -0.079239 -0.081937 -0.084712 -0.087560 -0.090475 -0.093452 -0.096487 -0.099573 -0.102705 -0.105879 -0.109089 -0.112329 -0.115595 -0.118881 -0.122183 -0.125494 -0.128809 -0.132124 -0.135434 -0.138732 -0.142013 -0.145273 -0.148506 -0.151707 -0.154871 -0.157992 -0.161066 -0.164086 -0.167048 -0.169947 -0.172777 -0.175535 -0.178220 -0.180832 -0.183371 -0.185837 -0.188229 -0.190548 -0.192792 -0.194961 -0.197056 -0.199076 -0.201021 -0.202890 -0.204684 -0.206401 -0.208043 -0.209608 -0.211096 -0.212507 -0.213841 -0.215097 -0.216275 -0.217376 -0.218398 -0.219342 -0.220206 -0.220992 -0.221698 -0.222325 -0.222872 -0.223338 -0.223725 -0.224030 -0.224255 -0.224399 -0.224463 -0.224448 -0.224352 -0.224178 -0.223926 -0.223595 -0.223187 -0.222702 -0.222140 -0.221502 -0.220788 -0.219999 -0.219134 -0.218196 -0.217183 -0.216097 -0.214938 -0.213706 -0.212403 -0.211029 -0.209585 -0.208074 -0.206495 -0.204851 -0.203142 -0.201370 -0.199536 -0.197640 -0.195685 -0.193672 -0.191601 -0.189474 -0.187292 -0.185057 -0.182769 -0.180430 -0.178040 -0.175602 -0.173117 -0.170585 -0.168008 -0.165387 -0.162723 -0.160019 -0.157273 -0.154489 -0.151667 -0.148809 -0.145915 -0.142987 -0.140027 -0.137035 -0.134012 -0.130960 -0.127881 -0.124774 -0.121643 -0.118487 -0.115308 -0.112107 -0.108885 -0.105645 -0.102386 -0.099110 -0.095819 -0.092513 -0.089194 -0.085863 -0.082522 -0.079170 -0.075811 -0.072445 -0.069072 -0.065695 -0.062315 -0.058933 -0.055549 -0.052166 -0.048785 -0.045406 -0.042031 -0.038662 -0.035299 -0.031944 -0.028597 -0.025261 -0.021936 -0.018623 -0.015325 -0.012041 -0.008774 -0.005524 -0.002293 0.000918 0.004108 0.007276 0.010422 0.013545 0.016644 0.019718 0.022768 0.025791 0.028789 0.031759 0.034701 0.037615 0.040500 0.043355 0.046180 0.048973 0.051735 0.054464 0.057160 0.059823 0.062450 0.065043 0.067600 0.070121 0.072604 0.075050 0.077457 0.079826 0.082154 0.084442 0.086689 0.088894 0.091057 0.093176 0.095252 0.097283 0.099270 0.101210 0.103104 0.104952 0.106751 0.108502 0.110204 0.111856 0.113459 0.115011 0.116513 0.117964 0.119362 0.120709 0.122003 0.123244 0.124431 0.125558 0.126601 0.127543 0.128370 0.129064 0.129611 0.129995 0.130200 0.130209 0.130009 0.129586 0.128930 0.128030 0.126876 0.125456 0.123761 0.121780 0.119503 0.116917 0.114014 0.110782 0.107211 0.103290 0.099009 0.094356 0.089322 0.083896 0.078073 0.071935 0.065628 0.059294 0.053016 0.046800 0.040652 0.034576 0.028576 0.022656 0.016821 0.011076 0.005423 -0.000131 -0.005584 -0.010930 -0.016165 -0.021289 -0.026304 -0.031213 -0.036019 -0.040724 -0.045331 -0.049843 -0.054263 -0.058594 -0.062839 -0.066999 -0.071079 -0.075080 -0.079006 -0.082859 -0.086643 -0.090359 -0.094012 -0.097602 -0.101135 -0.104611 -0.108035 -0.111408 -0.114734 -0.118015 -0.121254 -0.124454 -0.127618 -0.130747 -0.133839 -0.136895 -0.139915 -0.142898 -0.145844 -0.148752 -0.151622 -0.154454 -0.157248 -0.160003 -0.162718 -0.165394 -0.168030 -0.170626 -0.173181 -0.175695 -0.178169 -0.180600 -0.182990 -0.185337 -0.187642 -0.189904 -0.192122 -0.194297 -0.196428 -0.198515 -0.200557 -0.202554 -0.204506 -0.206413 -0.208274 -0.210089 -0.211860 -0.213585 -0.215265 -0.216901 -0.218492 -0.220038 -0.221540 -0.222998 -0.224411 -0.225781 -0.227107 -0.228388 -0.229627 -0.230822 -0.231973 -0.233081 -0.234146 -0.235169 -0.236148 -0.237085 -0.237979 -0.238831 -0.239640 -0.240407 -0.241133 -0.241816 -0.242457 -0.243057 -0.243616 -0.244133 -0.244609 -0.245043 -0.245437 -0.245790 -0.246102 -0.246374 -0.246605 -0.246796 -0.246946 -0.247057 -0.247127 -0.247158 -0.247150 -0.247101 -0.247014 -0.246887 -0.246721 -0.246515 -0.246271 -0.245989 -0.245668 -0.245308 -0.244910 -0.244474 -0.243999 -0.243487 -0.242937 -0.242350 -0.241725 -0.241063 -0.240363 -0.239627 -0.238853 -0.238043 -0.237196 -0.236312 -0.235393 -0.234437 -0.233444 -0.232416 -0.231352 -0.230253 -0.229118 -0.227947 -0.226741 -0.225501 -0.224225 -0.222914 -0.221568 -0.220189 -0.218774 -0.217325 -0.215843 -0.214326 -0.212775 -0.211190 -0.209572 -0.207921 -0.206236 -0.204518 -0.202767 -0.200983 -0.199166 -0.197317 -0.195435 -0.193521 -0.191575 -0.189608 -0.187642 -0.185695 -0.183790 -0.181946 -0.180185 -0.178527 -0.176993 -0.175603 -0.174379 -0.173340 -0.172508 -0.171900 -0.171513 -0.171341 -0.171376 -0.171609 -0.172035 -0.172644 -0.173431 -0.174386 -0.175503 -0.176774 -0.178191 -0.179747 -0.181435 -0.183246 -0.185174 -0.187211 -0.189348 -0.191580 -0.193897 -0.196293 -0.198760 -0.201291 -0.203878 -0.206513 -0.209189 -0.211898 -0.214633 -0.217387 -0.220151 -0.222918 -0.225682 -0.228433 -0.231164 -0.233869 -0.236539 -0.239168 -0.241746 -0.244268 -0.246725 -0.249110 -0.251414 -0.253632 -0.255755 -0.257775 -0.259686 -0.261479 -0.263147 -0.264683 -0.266079 -0.267327 -0.268419 -0.269350 -0.270110 -0.270692 -0.271089 -0.271293 -0.271298 -0.271105 -0.270721 -0.270150 -0.269399 -0.268472 -0.267376 -0.266115 -0.264695 -0.263122 -0.261402 -0.259539 -0.257539 -0.255408 -0.253152 -0.250775 -0.248283 -0.245682 -0.242978 -0.240175 -0.237279 -0.234296 -0.231232 -0.228091 -0.224880 -0.221604 -0.218268 -0.214877 -0.211437 -0.207954 -0.204432 -0.200877 -0.197293 -0.193687 -0.190063 -0.186427 -0.182783 -0.179138 -0.175496 -0.171863 -0.168244 -0.164643 -0.161068 -0.157522 -0.154010 -0.150539 -0.147114 -0.143739 -0.140419 -0.137161 -0.133970 -0.130850 -0.127807 -0.124846 -0.121972 -0.119191 -0.116508 -0.113928 -0.111457 -0.109099 -0.106860 -0.104745 -0.102759 -0.100909 -0.099198 -0.097632 -0.096216 -0.094957 -0.093858 -0.092925 -0.092163 -0.091579 -0.091176 -0.090958 -0.090921 -0.091061 -0.091373 -0.091851 -0.092491 -0.093287 -0.094236 -0.095332 -0.096569 -0.097944 -0.099452 -0.101086 -0.102843 -0.104718 -0.106705 -0.108801 -0.110999 -0.113296 -0.115685 -0.118163 -0.120725 -0.123365 -0.126078 -0.128861 -0.131707 -0.134613 -0.137572 -0.140580 -0.143632 -0.146723 -0.149848 -0.153002 -0.156181 -0.159378 -0.162589 -0.165810 -0.169034 -0.172258 -0.175476 -0.178685 -0.181884 -0.185073 -0.188251 -0.191417 -0.194570 -0.197711 -0.200839 -0.203952 -0.207051 -0.210134 -0.213202 -0.216253 -0.219287 -0.222303 -0.225301 -0.228281 -0.231240 -0.234180 -0.237099 -0.239997 -0.242873 -0.245727 -0.248557 -0.251364 -0.254146 -0.256904 -0.259636 -0.262342 -0.265022 -0.267674 -0.270299 -0.272894 -0.275461 -0.277998 -0.280505 -0.282981 -0.285426 -0.287839 -0.290218 -0.292565 -0.294878 -0.297156 -0.299399 -0.301607 -0.303778 -0.305913 -0.308009 -0.310068 -0.312089 -0.314070 -0.316011 -0.317911 -0.319771 -0.321589 -0.323364 -0.325097 -0.326786 -0.328432 -0.330032 -0.331587 -0.333097 -0.334560 -0.335976 -0.337344 -0.338664 -0.339935 -0.341156 -0.342328 -0.343449 -0.344518 -0.345536 -0.346501 -0.347413 -0.348272 -0.349076 -0.349825 -0.350519 -0.351157 -0.351738 -0.352262 -0.352728 -0.353136 -0.353484 -0.353773 -0.354001 -0.354169 -0.354275 -0.354320 -0.354301 -0.354220 -0.354074 -0.353865 -0.353590 -0.353250 -0.352845 -0.352372 -0.351833 -0.351227 -0.350553 -0.349811 -0.349000 -0.348120 -0.347171 -0.346152 -0.345063 -0.343903 -0.342672 -0.341370 -0.339995 -0.338549 -0.337029 -0.335437 -0.333771 -0.332031 -0.330216 -0.328327 -0.326363 -0.324322 -0.322206 -0.320014 -0.317744 -0.315397 -0.312972 -0.310469 -0.307888 -0.305228 -0.302488 -0.299668 -0.296768 -0.293788 -0.290726 -0.287583 -0.284358 -0.281050 -0.277661 -0.274193 -0.270645 -0.267020 -0.263320 -0.259546 -0.255700 -0.251783 -0.247796 -0.243741 -0.239620 -0.235434 -0.231185 -0.226875 -0.222503 -0.218074 -0.213587 -0.209044 -0.204448 -0.199798 -0.195098 -0.190348 -0.185550 -0.180706 -0.175817 -0.170884 -0.165910 -0.160895 -0.155841 -0.150750 -0.145624 -0.140463 -0.135269 -0.130044 -0.124790 -0.119507 -0.114198 -0.108864 -0.103506 -0.098126 -0.092726 -0.087306 -0.081870 -0.076417 -0.070950 -0.065470 -0.059979 -0.054478 -0.048969 -0.043453 -0.037932 -0.032407 -0.026881 -0.021353 -0.015827 -0.010303 -0.004782 0.000732 0.006240 0.011739 0.017228 0.022705 0.028169 0.033619 0.039052 0.044467 0.049864 0.055239 0.060592 0.065922 0.071226 0.076503 0.081751 0.086970 0.092157 0.097311 0.102431 0.107515 0.112562 0.117569 0.122537 0.127462 0.132344 0.137182 0.141973 0.146717 0.151411 0.156055 0.160646 0.165184 0.169667 0.174093 0.178462 0.182771 0.187018 0.191204 0.195325 0.199381 0.203370 0.207291 0.211142 0.214922 0.218629 0.222261 0.225818 0.229298 0.232699 0.236019 0.239259 0.242415 0.245486 0.248472 0.251369 0.254178 0.256897 0.259523 0.262056 0.264494 0.266836 0.269079 0.271224 0.273268 0.275209 0.277046 0.278779 0.280404 0.281922 0.283330 0.284626 0.285810 0.286880 0.287834 0.288672 0.289390 0.289989 0.290467 0.290821 0.291051 0.291155 0.291132 0.290980 0.290698 0.290284 0.289737 0.289056 0.288239 0.287289 0.286209 0.285001 0.283668 0.282214 0.280642 0.278954 0.277154 0.275244 0.273228 0.271108 0.268887 0.266570 0.264157 0.261654 0.259061 0.256383 0.253623 0.250783 0.247867 0.244877 0.241816 0.238688 0.235496 0.232242 0.228929 0.225561 0.222141 0.218671 0.215154 0.211594 0.207993 0.204354 0.200681 0.196977 0.193244 0.189485 0.185704 0.181903 0.178086 0.174255 0.170413 0.166564 0.162710 0.158855 0.155001 0.151151 0.147309 0.143477 0.139659 0.135857 0.132074 0.128314 0.124579 0.120873 0.117198 0.113557 0.109954 0.106391 0.102871 0.099398 0.095974 0.092602 0.089286 0.086024 0.082816 0.079660 0.076555 0.073500 0.070493 0.067534 0.064620 0.061751 0.058925 0.056141 0.053398 0.050695 0.048029 0.045401 0.042808 0.040249 0.037723 0.035229 0.032766 0.030331 0.027925 0.025546 0.023193 0.020865 0.018562 0.016283 0.014027 0.011792 0.009579 0.007387 0.005214 0.003059 0.000923 -0.001197 -0.003300 -0.005388 -0.007462 -0.009522 -0.011569 -0.013604 -0.015628 -0.017642 -0.019647 -0.021643 -0.023631 -0.025613 -0.027591 -0.029566 -0.031538 -0.033511 -0.035484 -0.037460 -0.039440 -0.041426 -0.043418 -0.045419 -0.047429 -0.049450 -0.051484 -0.053532 -0.055595 -0.057676 -0.059774 -0.061893 -0.064032 -0.066194 -0.068380 -0.070586 -0.072803 -0.075022 -0.077235 -0.079433 -0.081607 -0.083748 -0.085847 -0.087897 -0.089887 -0.091809 -0.093654 -0.095414 -0.097080 -0.098643 -0.100094 -0.101425 -0.102627 -0.103691 -0.104608 -0.105371 -0.105969 -0.106395 -0.106639 -0.106694 -0.106549 -0.106198 -0.105629 -0.104836 -0.103810 -0.102541 -0.101020 -0.099240 -0.097192 -0.094866 -0.092254 -0.089350 -0.086161 -0.082702 -0.078987 -0.075030 -0.070847 -0.066450 -0.061856 -0.057077 -0.052129 -0.047025 -0.041780 -0.036408 -0.030924 -0.025342 -0.019677 -0.013942 -0.008152 -0.002322 0.003535 0.009404 0.015278 0.021157 0.027042 0.032931 0.038824 0.044722 0.050624 0.056531 0.062441 0.068355 0.074272 0.080193 0.086117 0.092045 0.097975 0.103908 0.109844 0.115782 0.121723 0.127666 0.133611 0.139557 0.145506 0.151455 0.157407 0.163359 0.169313 0.175267 0.181222 0.187178 0.193134 0.199091 0.205047 0.211004 0.216960 0.222916 0.228871 0.234826 0.240779 0.246732 0.252684 0.258634 0.264583 0.270530 0.276475 0.282419 0.288359 0.294297 0.300232 0.306163 0.312090 0.318013 0.323930 0.329843 0.335750 0.341652 0.347547 0.353435 0.359317 0.365191 0.371057 0.376915 0.382765 0.388605 0.394437 0.400258 0.406069 0.411869 0.417656 0.423430 0.429190 0.434934 0.440663 0.446375 0.452069 0.457745 0.463401 0.469037 0.474651 0.480244 0.485813 0.491359 0.496879 0.502374 0.507843 0.513284 0.518696 0.524079 0.529433 0.534755 0.540045 0.545303 0.550526 0.555716 0.560869 0.565987 0.571067 0.576109 0.581112 0.586075 0.590997 0.595878 0.600716 0.605511 0.610261 0.614966 0.619625 0.624237 0.628802 0.633317 0.637783 0.642198 0.646562 0.650873 0.655131 0.659335 0.663484 0.667578 0.671614 0.675593 0.679514 0.683375 0.687176 0.690915 0.694593 0.698208 0.701759 0.705246 0.708669 0.712027 0.715320 0.718548 0.721710 0.724805 0.727835 0.730797 0.733692 0.736519 0.739278 0.741969 0.744592 0.747145 0.749629 0.752042 0.754386 0.756659 0.758861 0.760992 0.763052 0.765039 0.766954 0.768796 0.770565 0.772260 0.773882 0.775430 0.776903 0.778301 0.779623 0.780870 0.782041 0.783136 0.784154 0.785094 0.785958 0.786743 0.787450 0.788078 0.788628 0.789098 0.789489 0.789799 0.790029 0.790179 0.790247 0.790233 0.790138 0.789960 0.789700 0.789357 0.788931 0.788421 0.787826 0.787148 0.786384 0.785536 0.784601 0.783581 0.782475 0.781282 0.780003 0.778638 0.777186 0.775648 0.774023 0.772313 0.770516 0.768632 0.766663 0.764607 0.762465 0.760238 0.757923 0.755523 0.753037 0.750465 0.747806 0.745062 0.742232 0.739315 0.736313 0.733225 0.730051 0.726791 0.723445 0.720013 0.716495 0.712892 0.709203 0.705428 0.701567 0.697621 0.693589 0.689471 0.685268 0.680979 0.676605 0.672145 0.667599 0.662968 0.658251 0.653449 0.648561 0.643588 0.638529 0.633385 0.628156 0.622841 0.617441 0.611956 0.606385 0.600730 0.594988 0.589162 0.583250 0.577254 0.571172 0.565005 0.558752 0.552415 0.545993 0.539488 0.532899 0.526229 0.519478 0.512647 0.505737 0.498749 0.491684 0.484543 0.477326 0.470035 0.462671 0.455234 0.447726 0.440147 0.432498 0.424781 0.416996 0.409145 0.401227 0.393244 0.385198 0.377088 0.368916 0.360683 0.352390 0.344038 0.335627 0.327158 0.318634 0.310053 0.301418 0.292729 0.283988 0.275195 0.266350 0.257456 0.248513 0.239521 0.230482 0.221396 0.212264 0.203087 0.193867 0.184602 0.175296 0.165948 0.156559 0.147130 0.137662 0.128156 0.118613 0.109033 0.099420 0.089775 0.080103 0.070406 0.060691 0.050961 0.041220 0.031474 0.021725 0.011979 0.002240 -0.007488 -0.017200 -0.026893 -0.036561 -0.046201 -0.055808 -0.065377 -0.074905 -0.084387 -0.093819 -0.103197 -0.112515 -0.121770 -0.130958 -0.140073 -0.149113 -0.158074 -0.166956 -0.175758 -0.184479 -0.193117 -0.201671 -0.210141 -0.218525 -0.226822 -0.235031 -0.243150 -0.251180 -0.259118 -0.266964 -0.274716 -0.282373 -0.289935 -0.297401 -0.304773 -0.312051 -0.319235 -0.326326 -0.333325 -0.340232 -0.347049 -0.353775 -0.360411 -0.366959 -0.373418 -0.379789 -0.386073 -0.392270 -0.398382 -0.404408 -0.410350 -0.416208 -0.421982 -0.427674 -0.433283 -0.438811 -0.444258 -0.449625 -0.454913 -0.460121 -0.465252 -0.470304 -0.475280 -0.480179 -0.485003 -0.489751 -0.494425 -0.499025 -0.503551 -0.508005 -0.512387 -0.516698 -0.520938 -0.525108 -0.529209 -0.533241 -0.537204 -0.541101 -0.544930 -0.548693 -0.552390 -0.556022 -0.559590 -0.563094 -0.566536 -0.569914 -0.573231 -0.576487 -0.579682 -0.582817 -0.585892 -0.588910 -0.591869 -0.594770 -0.597615 -0.600404 -0.603137 -0.605816 -0.608440 -0.611010 -0.613528 -0.615993 -0.618407 -0.620769 -0.623081 -0.625343 -0.627556 -0.629721 -0.631837 -0.633906 -0.635929 -0.637906 -0.639837 -0.641723 -0.643566 -0.645365 -0.647121 -0.648835 -0.650507 -0.652138 -0.653729 -0.655281 -0.656793 -0.658267 -0.659703 -0.661102 -0.662464 -0.663791 -0.665082 -0.666337 -0.667558 -0.668744 -0.669896 -0.671014 -0.672099 -0.673151 -0.674169 -0.675156 -0.676110 -0.677032 -0.677923 -0.678784 -0.679613 -0.680412 -0.681181 -0.681921 -0.682631 -0.683313 -0.683965 -0.684590 -0.685187 -0.685756 -0.686298 -0.686814 -0.687302 -0.687765 -0.688202 -0.688614 -0.689000 -0.689362 -0.689700 -0.690014 -0.690303 -0.690570 -0.690814 -0.691035 -0.691234 -0.691411 -0.691567 -0.691701 -0.691815 -0.691908 -0.691981 -0.692034 -0.692068 -0.692083 -0.692079 -0.692057 -0.692016 -0.691958 -0.691883 -0.691791 -0.691682 -0.691557 -0.691416 -0.691260 -0.691088 -0.690902 -0.690701 -0.690486 -0.690257 -0.690015 -0.689760 -0.689492 -0.689211 -0.688919 -0.688615 -0.688300 -0.687973 -0.687636 -0.687289 -0.686932 -0.686565 -0.686189 -0.685805 -0.685411 -0.685010 -0.684601 -0.684184 -0.683761 -0.683330 -0.682893 -0.682451 -0.682002 -0.681548 -0.681089 -0.680626 -0.680158 -0.679687 -0.679211 -0.678733 -0.678252 -0.677768 -0.677282 -0.676794 -0.676305 -0.675816 -0.675327 -0.674840 -0.674355 -0.673870 -0.673388 -0.672907 -0.672427 -0.671949 -0.671472 -0.670997 -0.670523 -0.670050 -0.669579 -0.669109 -0.668641 -0.668174 -0.667709 -0.667244 -0.666782 -0.666320 -0.665860 -0.665402 -0.664945 -0.664489 -0.664034 -0.663581 -0.663129 -0.662679 -0.662229 -0.661782 -0.661335 -0.660890 -0.660446 -0.660003 -0.659562 -0.659122 -0.658683 -0.658246 -0.657810 -0.657375 -0.656941 -0.656509 -0.656078 -0.655648 -0.655219 -0.654792 -0.654365 -0.653941 -0.653517 -0.653094 -0.652673 -0.652253 -0.651834 -0.651416 -0.651000 -0.650584 -0.650170 -0.649757 -0.649345 -0.648935 -0.648525 -0.648117 -0.647710 -0.647304 -0.646899 -0.646495 -0.646092 -0.645690 -0.645290 -0.644891 -0.644492 -0.644095 -0.643699 -0.643304 -0.642910 -0.642517 -0.642125 -0.641735 -0.641345 -0.640956 -0.640569 -0.640182 -0.639797 -0.639412 -0.639029 -0.638646 -0.638265 -0.637884 -0.637505 -0.637127 -0.636749 -0.636373 -0.635998 -0.635624 -0.635251 -0.634878 -0.634508 -0.634138 -0.633769 -0.633401 -0.633035 -0.632669 -0.632305 -0.631942 -0.631580 -0.631219 -0.630860 -0.630501 -0.630144 -0.629788 -0.629433 -0.629079 -0.628726 -0.628375 -0.628025 -0.627676 -0.627329 -0.626982 -0.626637 -0.626293 -0.625951 -0.625610 -0.625270 -0.624931 -0.624594 -0.624258 -0.623923 -0.623589 -0.623257 -0.622927 -0.622597 -0.622269 -0.621943 -0.621617 -0.621293 -0.620971 -0.620650 -0.620330 -0.620012 -0.619695 -0.619380 -0.619066 -0.618753 -0.618442 -0.618133 -0.617824 -0.617518 -0.617213 -0.616909 -0.616607 -0.616306 -0.616007 -0.615709 -0.615413 -0.615119 -0.614826 -0.614534 -0.614244 -0.613956 -0.613669 -0.613384 -0.613101 -0.612819 -0.612538 -0.612260 -0.611983 -0.611707 -0.611433 -0.611161 -0.610891 -0.610622 -0.610355 -0.610089 -0.609826 -0.609563 -0.609303 -0.609044 -0.608788 -0.608532 -0.608279 -0.608027 -0.607777 -0.607529 -0.607283 -0.607038 -0.606795 -0.606554 -0.606315 -0.606077 -0.605842 -0.605608 -0.605376 -0.605146 -0.604917 -0.604691 -0.604466 -0.604244 -0.604023 -0.603804 -0.603587 -0.603372 -0.603159 -0.602947 -0.602738 -0.602530 -0.602325 -0.602121 -0.601920 -0.601720 -0.601522 -0.601327 -0.601133 -0.600941 -0.600752 -0.600564 -0.600378 -0.600195 -0.600013 -0.599834 -0.599656 -0.599481 -0.599307 -0.599136 -0.598967 -0.598800 -0.598635 -0.598472 -0.598311 -0.598152 -0.597996 -0.597842 -0.597689 -0.597539 -0.597391 -0.597245 -0.597101 -0.596959 -0.596820 -0.596682 -0.596547 -0.596413 -0.596282 -0.596153 -0.596026 -0.595901 -0.595778 -0.595658 -0.595539 -0.595423 -0.595308 -0.595196 -0.595086 -0.594978 -0.594872 -0.594768 -0.594666 -0.594566 -0.594468 -0.594372 -0.594278 -0.594186 -0.594096 -0.594008 -0.593922 -0.593838 -0.593756 -0.593676 -0.593598 -0.593522 -0.593448 -0.593376 -0.593306 -0.593237 -0.593171 -0.593106 -0.593043 -0.592983 -0.592924 -0.592867 -0.592812 -0.592758 -0.592707 -0.592657 -0.592609 -0.592563 -0.592519 -0.592477 -0.592437 -0.592398 -0.592361 -0.592326 -0.592292 -0.592261 -0.592231 -0.592203 -0.592177 -0.592152 -0.592129 -0.592108 -0.592089 -0.592071 -0.592055 -0.592041 -0.592029 -0.592018 -0.592009 -0.592001 -0.591995 -0.591991 -0.591988 -0.591988 -0.591988 -0.591991 -0.591995 -0.592000 -0.592007 -0.592016 -0.592027 -0.592039 -0.592052 -0.592067 -0.592084 -0.592102 -0.592122 -0.592143 -0.592166 -0.592190 -0.592216 -0.592244 -0.592272 -0.592303 -0.592335 -0.592368 -0.592403 -0.592439 -0.592477 -0.592516 -0.592557 -0.592599 -0.592642 -0.592687 -0.592734 -0.592782 -0.592831 -0.592882 -0.592934 -0.592988 -0.593044 -0.593101 -0.593159 -0.593219 -0.593281 -0.593344 -0.593408 -0.593474 -0.593542 -0.593611 -0.593682 -0.593754 -0.593828 -0.593904 -0.593981 -0.594060 -0.594141 -0.594223 -0.594306 -0.594392 -0.594479 -0.594567 -0.594658 -0.594749 -0.594843 -0.594938 -0.595035 -0.595134 -0.595235 -0.595337 -0.595441 -0.595547 -0.595655 -0.595764 -0.595876 -0.595990 -0.596106 -0.596224 -0.596344 -0.596466 -0.596591 -0.596718 -0.596847 -0.596979 -0.597113 -0.597250 -0.597389 -0.597531 -0.597675 -0.597823 -0.597972 -0.598125 -0.598280 -0.598439 -0.598600 -0.598764 -0.598931 -0.599101 -0.599274 -0.599450 -0.599630 -0.599812 -0.599998 -0.600187 -0.600380 -0.600576 -0.600775 -0.600978 -0.601184 -0.601394 -0.601608 -0.601825 -0.602046 -0.602270 -0.602499 -0.602731 -0.602967 -0.603207 -0.603451 -0.603699 -0.603951 -0.604207 -0.604468 -0.604732 -0.605001 -0.605274 -0.605551 -0.605832 -0.606118 -0.606409 -0.606703 -0.607002 -0.607306 -0.607614 -0.607927 -0.608244 -0.608566 -0.608893 -0.609225 -0.609561 -0.609902 -0.610247 -0.610598 -0.610954 -0.611314 -0.611679 -0.612050 -0.612425 -0.612805 -0.613190 -0.613581 -0.613976 -0.614376 -0.614781 -0.615192 -0.615607 -0.616028 -0.616453 -0.616884 -0.617320 -0.617761 -0.618207 -0.618659 -0.619115 -0.619577 -0.620044 -0.620517 -0.620994 -0.621477 -0.621965 -0.622459 -0.622957 -0.623461 -0.623971 -0.624486 -0.625006 -0.625531 -0.626062 -0.626598 -0.627140 -0.627687 -0.628239 -0.628797 -0.629359 -0.629928 -0.630501 -0.631080 -0.631664 -0.632253 -0.632848 -0.633448 -0.634053 -0.634663 -0.635279 -0.635899 -0.636526 -0.637157 -0.637793 -0.638435 -0.639082 -0.639734 -0.640392 -0.641054 -0.641722 -0.642395 -0.643073 -0.643756 -0.644445 -0.645138 -0.645837 -0.646541 -0.647250 -0.647964 -0.648683 -0.649408 -0.650137 -0.650872 -0.651611 -0.652356 -0.653106 -0.653861 -0.654621 -0.655386 -0.656156 -0.656931 -0.657711 -0.658497 -0.659287 -0.660082 -0.660883 -0.661688 -0.662498 -0.663314 -0.664134 -0.664959 -0.665790 -0.666625 -0.667465 -0.668311 -0.669161 -0.670016 -0.670876 -0.671741 -0.672611 -0.673486 -0.674366 -0.675251 -0.676140 -0.677035 -0.677934 -0.678839 -0.679748 -0.680662 -0.681581 -0.682505 -0.683434 -0.684367 -0.685306 -0.686249 -0.687197 -0.688150 -0.689108 -0.690070 -0.691037 -0.692010 -0.692986 -0.693968 -0.694955 -0.695946 -0.696942 -0.697943 -0.698948 -0.699959 -0.700974 -0.701994 -0.703018 -0.704047 -0.705081 -0.706120 -0.707163 -0.708211 -0.709264 -0.710322 -0.711384 -0.712451 -0.713522 -0.714598 -0.715679 -0.716765 -0.717855 -0.718950 -0.720049 -0.721153 -0.722262 -0.723375 -0.724493 -0.725615 -0.726742 -0.727874 -0.729010 -0.730151 -0.731296 -0.732446 -0.733600 -0.734759 -0.735923 -0.737091 -0.738264 -0.739441 -0.740622 -0.741809 -0.742999 -0.744194 -0.745394 -0.746598 -0.747807 -0.749020 -0.750237 -0.751460 -0.752686 -0.753917 -0.755152 -0.756392 -0.757636 -0.758885 -0.760138 -0.761396 -0.762657 -0.763924 -0.765194 -0.766469 -0.767749 -0.769033 -0.770321 -0.771613 -0.772910 -0.774212 -0.775517 -0.776827 -0.778141 -0.779460 -0.780783 -0.782110 -0.783442 -0.784777 -0.786117 -0.787462 -0.788810 -0.790163 -0.791520 -0.792882 -0.794248 -0.795618 -0.796992 -0.798370 -0.799753 -0.801140 -0.802531 -0.803926 -0.805326 -0.806729 -0.808137 -0.809549 -0.810965 -0.812386 -0.813810 -0.815239 -0.816672 -0.818109 -0.819550 -0.820995 -0.822445 -0.823898 -0.825356 -0.826818 -0.828284 -0.829754 -0.831228 -0.832706 -0.834188 -0.835674 -0.837165 -0.838659 -0.840158 -0.841660 -0.843167 -0.844677 -0.846192 -0.847710 -0.849233 -0.850760 -0.852290 -0.853825 -0.855364 -0.856906 -0.858453 -0.860003 -0.861558 -0.863116 -0.864679 -0.866245 -0.867816 -0.869390 -0.870968 -0.872550 -0.874137 -0.875727 -0.877321 -0.878919 -0.880520 -0.882126 -0.883736 -0.885349 -0.886967 -0.888588 -0.890214 -0.891843 -0.893476 -0.895113 -0.896753 -0.898398 -0.900047 -0.901699 -0.903355 -0.905015 -0.906679 -0.908347 -0.910019 -0.911694 -0.913373 -0.915057 -0.916743 -0.918434 -0.920129 -0.921827 -0.923529 -0.925235 -0.926945 -0.928659 -0.930376 -0.932097 -0.933822 -0.935551 -0.937283 -0.939019 -0.940759 -0.942503 -0.944250 -0.946002 -0.947757 -0.949515 -0.951278 -0.953044 -0.954814 -0.956587 -0.958365 -0.960146 -0.961930 -0.963719 -0.965511 -0.967307 -0.969106 -0.970909 -0.972716 -0.974527 -0.976341 -0.978159 -0.979980 -0.981806 -0.983634 -0.985467 -0.987303 -0.989143 -0.990986 -0.992833 -0.994684 -0.996538 -0.998396 -1.000257 -1.002123 -1.003991 -1.005864 -1.007740 -1.009619 -1.011502 -1.013389 -1.015279 -1.017173 -1.019070 -1.020971 -1.022876 -1.024784 -1.026695 -1.028610 -1.030529 -1.032451 -1.034377 -1.036306 -1.038239 -1.040175 -1.042115 -1.044058 -1.046005 -1.047954 -1.049907 -1.051864 -1.053823 -1.055785 -1.057751 -1.059720 -1.061692 -1.063666 -1.065644 -1.067625 -1.069608 -1.071594 -1.073583 -1.075575 -1.077569 -1.079567 -1.081566 -1.083569 -1.085574 -1.087581 -1.089591 -1.091603 -1.093618 -1.095635 -1.097654 -1.099676 -1.101700 -1.103726 -1.105754 -1.107784 -1.109816 -1.111851 -1.113887 -1.115925 -1.117965 -1.120007 -1.122051 -1.124097 -1.126144 -1.128193 -1.130244 -1.132296 -1.134350 -1.136406 -1.138462 -1.140521 -1.142581 -1.144642 -1.146705 -1.148768 -1.150833 -1.152900 -1.154967 -1.157036 -1.159106 -1.161177 -1.163248 -1.165321 -1.167395 -1.169469 -1.171543 -1.173618 -1.175694 -1.177770 -1.179846 -1.181922 -1.183998 -1.186074 -1.188149 -1.190225 -1.192300 -1.194375 -1.196449 -1.198522 -1.200595 -1.202667 -1.204739 -1.206809 -1.208878 -1.210946 -1.213013 -1.215079 -1.217143 -1.219206 -1.221268 -1.223328 -1.225386 -1.227442 -1.229496 -1.231549 -1.233599 -1.235648 -1.237694 -1.239738 -1.241779 -1.243818 -1.245855 -1.247889 -1.249920 -1.251949 -1.253974 -1.255997 -1.258016 -1.260033 -1.262046 -1.264056 -1.266063 -1.268066 -1.270066 -1.272062 -1.274054 -1.276043 -1.278027 -1.280008 -1.281985 -1.283957 -1.285926 -1.287890 -1.289849 -1.291805 -1.293755 -1.295701 -1.297643 -1.299579 -1.301511 -1.303438 -1.305359 -1.307276 -1.309187 -1.311093 -1.312994 -1.314889 -1.316779 -1.318663 -1.320541 -1.322414 -1.324280 -1.326141 -1.327995 -1.329844 -1.331686 -1.333522 -1.335352 -1.337175 -1.338991 -1.340801 -1.342605 -1.344401 -1.346190 -1.347973 -1.349749 -1.351517 -1.353278 -1.355032 -1.356778 -1.358517 -1.360249 -1.361972 -1.363688 -1.365397 -1.367097 -1.368789 -1.370474 -1.372150 -1.373818 -1.375477 -1.377129 -1.378771 -1.380405 -1.382031 -1.383648 -1.385256 -1.386855 -1.388445 -1.390026 -1.391598 -1.393161 -1.394714 -1.396258 -1.397792 -1.399317 -1.400832 -1.402338 -1.403834 -1.405319 -1.406795 -1.408261 -1.409716 -1.411162 -1.412597 -1.414021 -1.415435 -1.416839 -1.418232 -1.419614 -1.420985 -1.422346 -1.423695 -1.425034 -1.426361 -1.427677 -1.428981 -1.430274 -1.431556 -1.432826 -1.434085 -1.435331 -1.436566 -1.437789 -1.439000 -1.440199 -1.441386 -1.442560 -1.443722 -1.444872 -1.446009 -1.447134 -1.448246 -1.449345 -1.450432 -1.451505 -1.452565 -1.453613 -1.454647 -1.455668 -1.456676 -1.457670 -1.458650 -1.459617 -1.460571 -1.461511 -1.462436 -1.463348 -1.464246 -1.465130 -1.466000 -1.466855 -1.467696 -1.468522 -1.469335 -1.470132 -1.470915 -1.471683 -1.472436 -1.473174 -1.473898 -1.474606 -1.475299 -1.475976 -1.476639 -1.477286 -1.477917 -1.478533 -1.479133 -1.479717 -1.480286 -1.480838 -1.481375 -1.481895 -1.482400 -1.482887 -1.483359 -1.483814 -1.484253 -1.484675 -1.485080 -1.485469 -1.485841 -1.486195 -1.486533 -1.486854 -1.487157 -1.487442 -1.487710 -1.487960 -1.488192 -1.488405 -1.488600 -1.488776 -1.488934 -1.489072 -1.489191 -1.489291 -1.489371 -1.489432 -1.489472 -1.489492 -1.489492 -1.489472 -1.489431 -1.489369 -1.489287 -1.489190 -1.489081 -1.488963 -1.488839 -1.488712 -1.488587 -1.488466 -1.488353 -1.488251 -1.488163 -1.488093 -1.488045 -1.488020 -1.488024 -1.488059 -1.488128 -1.488235 -1.488383 -1.488576 -1.488817 -1.489109 -1.489456 -1.489861 -1.490327 -1.490857 -1.491456 -1.492126 -1.492871 -1.493694 -1.494598 -1.495587 -1.496664 -1.497832 -1.499095 -1.500457 -1.501920 -1.503488 -1.505163 -1.506951 -1.508853 -1.510875 -1.513018 -1.515288 -1.517687 -1.520220 -1.522890 -1.525702 -1.528657 -1.531762 -1.535018 -1.538430 -1.542002 -1.545737 -1.549639 -1.553711 -1.557958 -1.562383 -1.566990 -1.571783 -1.576764 -1.581939 -1.587310 -1.592881 -1.598657 -1.604641 -1.610836 -1.617246 -1.623875 -1.630727 -1.637805 -1.645113 -1.652656 -1.660435 -1.668456 -1.676710 -1.685150 -1.693720 -1.702363 -1.711023 -1.719645 -1.728173 -1.736549 -1.744719 -1.752626 -1.760214 -1.767427 -1.774209 -1.780504 -1.786256 -1.791408 -1.795905 -1.799691 -1.802709 -1.804904 -1.806219 -1.806598 -1.805985 -1.804325 -1.801572 -1.798386 -1.795180 -1.791953 -1.788705 -1.785437 -1.782148 -1.778838 -1.775508 -1.772157 -1.768785 -1.765393 -1.761979 -1.758545 -1.755091 -1.751615 -1.748118 -1.744601 -1.741062 -1.737503 -1.733922 -1.730321 -1.726698 -1.723054 -1.719390 -1.715704 -1.711997 -1.708269 -1.704519 -1.700749 -1.696957 -1.693144 -1.689309 -1.685453 -1.681576 -1.677678 -1.673758 -1.669816 -1.665853 -1.661869 -1.657863 -1.653835 -1.649786 -1.645716 -1.641624 -1.637510 -1.633374 -1.629217 -1.625038 -1.620837 -1.616614 -1.612370 -1.608104 -1.603816 -1.599506 -1.595174 -1.590820 -1.586444 -1.582046 -1.577626 -1.573184 -1.568720 -1.564234 -1.559726 -1.555196 -1.550643 -1.546069 -1.541472 -1.536852 -1.532211 -1.527547 -1.522860 -1.518150 -1.513417 -1.508661 -1.503882 -1.499079 -1.494252 -1.489401 -1.484526 -1.479627 -1.474704 -1.469756 -1.464783 -1.459785 -1.454762 -1.449713 -1.444640 -1.439540 -1.434415 -1.429263 -1.424086 -1.418882 -1.413652 -1.408395 -1.403111 -1.397800 -1.392462 -1.387096 -1.381703 -1.376282 -1.370834 -1.365357 -1.359852 -1.354318 -1.348756 -1.343166 -1.337546 -1.331897 -1.326219 -1.320511 -1.314774 -1.309007 -1.303210 -1.297383 -1.291525 -1.285637 -1.279719 -1.273769 -1.267789 -1.261777 -1.255734 -1.249660 -1.243553 -1.237415 -1.231245 -1.225043 -1.218808 -1.212540 -1.206240 -1.199907 -1.193541 -1.187142 -1.180709 -1.174243 -1.167743 -1.161209 -1.154640 -1.148038 -1.141401 -1.134730 -1.128025 -1.121287 -1.114518 -1.107717 -1.100886 -1.094026 -1.087138 -1.080223 -1.073282 -1.066315 -1.059325 -1.052311 -1.045275 -1.038219 -1.031141 -1.024045 -1.016931 -1.009799 -1.002651 -0.995488 -0.988310 -0.981120 -0.973917 -0.966702 -0.959477 -0.952243 -0.945001 -0.937751 -0.930495 -0.923234 -0.915968 -0.908698 -0.901426 -0.894152 -0.886877 -0.879602 -0.872328 -0.865057 -0.857788 -0.850523 -0.843263 -0.836009 -0.828761 -0.821521 -0.814289 -0.807065 -0.799849 -0.792642 -0.785444 -0.778255 -0.771076 -0.763906 -0.756745 -0.749595 -0.742456 -0.735326 -0.728208 -0.721100 -0.714004 -0.706919 -0.699846 -0.692785 -0.685736 -0.678700 -0.671676 -0.664665 -0.657667 -0.650683 -0.643712 -0.636755 -0.629812 -0.622884 -0.615970 -0.609070 -0.602186 -0.595317 -0.588464 -0.581627 -0.574805 -0.568000 -0.561211 -0.554439 -0.547684 -0.540946 -0.534225 -0.527523 -0.520838 -0.514171 -0.507523 -0.500893 -0.494282 -0.487690 -0.481118 -0.474565 -0.468032 -0.461519 -0.455027 -0.448555 -0.442103 -0.435673 -0.429264 -0.422877 -0.416511 -0.410167 -0.403846 -0.397547 -0.391270 -0.385017 -0.378786 -0.372580 -0.366396 -0.360237 -0.354102 -0.347991 -0.341905 -0.335843 -0.329807 -0.323796 -0.317811 -0.311851 -0.305918 -0.300010 -0.294130 -0.288276 -0.282449 -0.276649 -0.270876 -0.265132 -0.259415 -0.253727 -0.248067 -0.242436 -0.236833 -0.231260 -0.225716 -0.220202 -0.214717 -0.209263 -0.203839 -0.198446 -0.193083 -0.187752 -0.182451 -0.177183 -0.171946 -0.166741 -0.161568 -0.156428 -0.151321 -0.146247 -0.141205 -0.136198 -0.131223 -0.126283 -0.121377 -0.116506 -0.111669 -0.106867 -0.102100 -0.097368 -0.092672 -0.088011 -0.083387 -0.078798 -0.074246 -0.069731 -0.065252 -0.060810 -0.056405 -0.052038 -0.047708 -0.043416 -0.039162 -0.034946 -0.030769 -0.026630 -0.022530 -0.018470 -0.014448 -0.010466 -0.006524 -0.002621 0.001241 0.005063 0.008845 0.012586 0.016285 0.019944 0.023561 0.027137 0.030671 0.034163 0.037613 0.041020 0.044385 0.047707 0.050986 0.054222 0.057414 0.060562 0.063667 0.066727 0.069742 0.072712 0.075637 0.078514 0.081346 0.084130 0.086866 0.089554 0.092194 0.094784 0.097325 0.099818 0.102263 0.104661 0.107013 0.109322 0.111587 0.113810 0.115992 0.118134 0.120238 0.122303 0.124332 0.126326 0.128286 0.130212 0.132106 0.133969 0.135802 0.137607 0.139383 0.141134 0.142858 0.144559 0.146236 0.147891 0.149525 0.151139 0.152734 0.154312 0.155873 0.157418 0.158949 0.160467 0.161973 0.163468 0.164953 0.166428 0.167897 0.169358 0.170815 0.172266 0.173715 0.175161 0.176606 0.178052 0.179498 0.180947 0.182399 0.183856 0.185318 0.186787 0.188264 0.189750 0.191245 0.192752 0.194271 0.195804 0.197351 0.198913 0.200493 0.202090 0.203706 0.205342 0.206999 0.208678 0.210381 0.212110 0.213866 0.215650 0.217465 0.219310 0.221181 0.223073 0.224981 0.226899 0.228822 0.230746 0.232664 0.234571 0.236463 0.238335 0.240180 0.241994 0.243772 0.245509 0.247198 0.248836 0.250416 0.251934 0.253384 0.254762 0.256062 0.257279 0.258408 0.259446 0.260387 0.261228 0.261965 0.262593 0.263107 0.263505 0.263780 0.263929 0.263948 0.263833 0.263579 0.263181 0.262636 0.261939 0.261086 0.260073 0.258896 0.257549 0.256029 0.254332 0.252460 0.250422 0.248227 0.245884 0.243403 0.240793 0.238064 0.235223 0.232282 0.229248 0.226132 0.222942 0.219688 0.216379 0.213024 0.209633 0.206211 0.202762 0.199285 0.195782 0.192254 0.188703 0.185128 0.181532 0.177914 0.174275 0.170616 0.166938 0.163241 0.159527 0.155795 0.152047 0.148284 0.144505 0.140713 0.136906 0.133088 0.129257 0.125415 0.121562 0.117699 0.113828 0.109948 0.106060 0.102165 0.098264 0.094358 0.090447 0.086532 0.082614 0.078693 0.074770 0.070846 0.066922 0.062998 0.059075 0.055154 0.051236 0.047320 0.043409 0.039502 0.035601 0.031706 0.027818 0.023938 0.020065 0.016202 0.012349 0.008506 0.004675 0.000855 -0.002952 -0.006745 -0.010525 -0.014289 -0.018038 -0.021770 -0.025486 -0.029184 -0.032863 -0.036523 -0.040163 -0.043782 -0.047380 -0.050955 -0.054508 -0.058037 -0.061542 -0.065022 -0.068476 -0.071904 -0.075304 -0.078677 -0.082020 -0.085335 -0.088619 -0.091876 -0.095104 -0.098306 -0.101482 -0.104633 -0.107759 -0.110862 -0.113943 -0.117003 -0.120041 -0.123060 -0.126061 -0.129043 -0.132008 -0.134957 -0.137890 -0.140810 -0.143715 -0.146608 -0.149489 -0.152360 -0.155220 -0.158071 -0.160914 -0.163750 -0.166579 -0.169403 -0.172222 -0.175037 -0.177849 -0.180659 -0.183468 -0.186277 -0.189087 -0.191898 -0.194711 -0.197528 -0.200349 -0.203175 -0.206007 -0.208845 -0.211692 -0.214547 -0.217412 -0.220287 -0.223173 -0.226071 -0.228982 -0.231906 -0.234842 -0.237789 -0.240748 -0.243718 -0.246698 -0.249689 -0.252689 -0.255698 -0.258716 -0.261741 -0.264773 -0.267810 -0.270852 -0.273899 -0.276949 -0.280001 -0.283055 -0.286110 -0.289165 -0.292219 -0.295271 -0.298321 -0.301367 -0.304410 -0.307447 -0.310479 -0.313505 -0.316522 -0.319532 -0.322533 -0.325523 -0.328504 -0.331472 -0.334428 -0.337371 -0.340301 -0.343215 -0.346114 -0.348996 -0.351861 -0.354708 -0.357536 -0.360344 -0.363132 -0.365898 -0.368642 -0.371363 -0.374060 -0.376733 -0.379380 -0.382001 -0.384594 -0.387160 -0.389696 -0.392203 -0.394680 -0.397124 -0.399537 -0.401917 -0.404262 -0.406573 -0.408848 -0.411086 -0.413287 -0.415450 -0.417574 -0.419657 -0.421700 -0.423701 -0.425660 -0.427576 -0.429447 -0.431273 -0.433053 -0.434787 -0.436473 -0.438110 -0.439698 -0.441236 -0.442723 -0.444158 -0.445541 -0.446870 -0.448144 -0.449363 -0.450526 -0.451632 -0.452681 -0.453670 -0.454600 -0.455470 -0.456278 -0.457025 -0.457708 -0.458328 -0.458883 -0.459372 -0.459795 -0.460151 -0.460439 -0.460658 -0.460808 -0.460886 -0.460894 -0.460829 -0.460691 -0.460478 -0.460191 -0.459829 -0.459390 -0.458873 -0.458278 -0.457604 -0.456850 -0.456021 -0.455126 -0.454178 -0.453187 -0.452164 -0.451121 -0.450068 -0.449017 -0.447979 -0.446964 -0.445985 -0.445051 -0.444175 -0.443366 -0.442637 -0.441995 -0.441442 -0.440972 -0.440579 -0.440255 -0.439993 -0.439786 -0.439627 -0.439508 -0.439422 -0.439362 -0.439321 -0.439291 -0.439266 -0.439239 -0.439201 -0.439146 -0.439066 -0.438955 -0.438806 -0.438610 -0.438361 -0.438052 -0.437675 -0.437223 -0.436689 -0.436067 -0.435347 -0.434525 -0.433591 -0.432540 -0.431363 -0.430054 -0.428605 -0.427010 -0.425261 -0.423350 -0.421271 -0.419017 -0.416580 -0.413953 -0.411129 -0.408100 -0.404860 -0.401401 -0.397716 -0.393798 -0.389640 -0.385234 -0.380573 -0.375651 -0.370459 -0.364994 -0.359264 -0.353275 -0.347036 -0.340554 -0.333838 -0.326895 -0.319734 -0.312363 -0.304789 -0.297020 -0.289065 -0.280932 -0.272628 -0.264161 -0.255540 -0.246771 -0.237865 -0.228827 -0.219667 -0.210392 -0.201010 -0.191529 -0.181958 -0.172304 -0.162574 -0.152778 -0.142923 -0.133017 -0.123068 -0.113084 -0.103073 -0.093043 -0.083002 -0.072957 -0.062918 -0.052891 -0.042885 -0.032908 -0.022968 -0.013072 -0.003229 0.006553 0.016266 0.025903 0.035456 0.044915 0.054274 0.063525 0.072659 0.081669 0.090546 0.099283 0.107874 0.116312 0.124592 0.132706 0.140648 0.148410 0.155988 0.163373 0.170559 0.177540 0.184308 0.190858 0.197183 0.203275 0.209128 0.214736 0.220092 0.225190 0.230032 0.234626 0.238981 0.243104 0.247006 0.250694 0.254176 0.257462 0.260559 0.263476 0.266222 0.268805 0.271234 0.273516 0.275661 0.277677 0.279573 0.281354 0.283022 0.284581 0.286032 0.287379 0.288624 0.289769 0.290817 0.291771 0.292632 0.293404 0.294088 0.294689 0.295207 0.295645 0.296007 0.296294 0.296509 0.296654 0.296733 0.296747 0.296699 0.296592 0.296428 0.296210 0.295939 0.295619 0.295253 0.294842 0.294389 0.293897 0.293368 0.292804 0.292209 0.291585 0.290934 0.290258 0.289561 0.288845 0.288112 0.287365 0.286606 0.285838 0.285063 0.284284 0.283503 0.282724 0.281947 0.281177 0.280415 0.279664 0.278926 0.278205 0.277502 0.276819 0.276161 0.275528 0.274924 0.274351 0.273811 0.273307 0.272842 0.272418 0.272038 0.271704 0.271418 0.271184 0.271003 0.270878 0.270812 0.270807 0.270866 0.270991 0.271185 0.271450 0.271789 0.272204 0.272698 0.273273 0.273931 0.274677 0.275511 0.276436 0.277455 0.278570 0.279785 0.281101 0.282520 0.284046 0.285681 0.287428 0.289288 0.291265 0.293361 0.295578 0.297919 0.300387 0.302984 0.305712 0.308574 0.311573 0.314711 0.317991 0.321415 0.324985 0.328704 0.332576 0.336601 0.340783 0.345124 0.349626 0.354293 0.359127 0.364130 0.369302 0.374632 0.380109 0.385720 0.391452 0.397293 0.403230 0.409250 0.415343 0.421493 0.427691 0.433922 0.440174 0.446435 0.452692 0.458934 0.465146 0.471310 0.477396 0.483376 0.489220 0.494897 0.500380 0.505638 0.510641 0.515361 0.519768 0.523832 0.527524 0.530815 0.533674 0.536073 0.537982 0.539372 0.540212 0.540474 0.540129 0.539145 0.537496 0.535149 0.532077 0.528250 0.523638 0.518212 0.511942 0.504798 0.496753 0.487775 0.477835 0.466905 0.454954 0.441952 0.427872 0.412682 0.396354 0.378858 0.360165 0.340244 0.319068 0.296605 0.272827 0.247705 0.221208 0.193307 0.163974 0.133177 