0.000000 -0.000000 -0.000000 0.000000 -0.000000 -0.000000 -0.000000 0.000000 0.000000 -0.000000 0.000000 -0.000000 -0.000000 -0.000000 -0.000000 0.000000 0.000000 -0.000000 -0.000000 -0.000000 -0.000000 -0.000000 0.000000 -0.000000 0.000000 -0.000000 -0.000000 0.000000 -0.000000 0.000000 -0.000000 0.000000 0.000000 -0.000000 -0.000000 -0.000000 0.000000 -0.000000 -0.000000 -0.000000 -0.000000 -0.000000 -0.000000 -0.000000 -0.000000 0.000000 -0.000000 0.000000 0.000000 -0.000000 -0.000000 0.000000 -0.000000 -0.000000 -0.000000 -0.000000 0.000000 -0.000000 -0.000000 -0.000000 0.000000 -0.000000 0.000000 0.000000 0.000000 -0.000000 0.000000 0.000000 -0.000000 0.000000 0.000000 0.000000 0.000000 -0.000000 0.000000 -0.000000 -0.000000 0.000000 -0.000000 0.000000 0.000000 -0.000000 -0.000000 -0.000000 0.000000 -0.000000 -0.000000 0.000000 0.000000 -0.000000 -0.000000 -0.000000 0.000000 0.000000 -0.000000 -0.000000 -0.000000 -0.000000 -0.000001 -0.000004 -0.000010 -0.000020 -0.000038 -0.000066 -0.000108 -0.000168 -0.000251 -0.000361 -0.000504 -0.000685 -0.000909 -0.001182 -0.001508 -0.001893 -0.002340 -0.002855 -0.003439 -0.004097 -0.004831 -0.005643 -0.006534 -0.007505 -0.008556 -0.009686 -0.010895 -0.012181 -0.013542 -0.014976 -0.016480 -0.018050 -0.019683 -0.021375 -0.023122 -0.024919 -0.026763 -0.028648 -0.030569 -0.032523 -0.034504 -0.036508 -0.038530 -0.040565 -0.042609 -0.044658 -0.046707 -0.048752 -0.050790 -0.052817 -0.054829 -0.056822 -0.058795 -0.060744 -0.062666 -0.064559 -0.066421 -0.068250 -0.070043 -0.071799 -0.073517 -0.075193 -0.076826 -0.078414 -0.079952 -0.081438 -0.082867 -0.084236 -0.085538 -0.086771 -0.087928 -0.089004 -0.089995 -0.090895 -0.091700 -0.092405 -0.093007 -0.093502 -0.093890 -0.094167 -0.094336 -0.094397 -0.094352 -0.094205 -0.093962 -0.093628 -0.093209 -0.092713 -0.092148 -0.091523 -0.090846 -0.090127 -0.089375 -0.088599 -0.087807 -0.087008 -0.086210 -0.085422 -0.084650 -0.083902 -0.083183 -0.082498 -0.081853 -0.081252 -0.080699 -0.080195 -0.079745 -0.079349 -0.079009 -0.078725 -0.078498 -0.078327 -0.078213 -0.078152 -0.078145 -0.078190 -0.078285 -0.078427 -0.078614 -0.078844 -0.079115 -0.079422 -0.079765 -0.080139 -0.080543 -0.080973 -0.081426 -0.081901 -0.082393 -0.082901 -0.083423 -0.083955 -0.084495 -0.085042 -0.085593 -0.086147 -0.086700 -0.087252 -0.087800 -0.088340 -0.088870 -0.089386 -0.089884 -0.090359 -0.090806 -0.091220 -0.091595 -0.091927 -0.092208 -0.092433 -0.092596 -0.092693 -0.092719 -0.092669 -0.092540 -0.092330 -0.092037 -0.091661 -0.091204 -0.090668 -0.090057 -0.089374 -0.088625 -0.087818 -0.086958 -0.086054 -0.085113 -0.084144 -0.083154 -0.082154 -0.081150 -0.080151 -0.079165 -0.078199 -0.077260 -0.076355 -0.075489 -0.074668 -0.073896 -0.073177 -0.072516 -0.071914 -0.071374 -0.070898 -0.070486 -0.070139 -0.069858 -0.069642 -0.069490 -0.069401 -0.069373 -0.069405 -0.069495 -0.069640 -0.069837 -0.070084 -0.070379 -0.070718 -0.071098 -0.071516 -0.071969 -0.072455 -0.072970 -0.073511 -0.074076 -0.074661 -0.075263 -0.075881 -0.076511 -0.077152 -0.077800 -0.078454 -0.079112 -0.079770 -0.080427 -0.081080 -0.081726 -0.082361 -0.082980 -0.083580 -0.084154 -0.084699 -0.085208 -0.085675 -0.086095 -0.086461 -0.086768 -0.087010 -0.087183 -0.087281 -0.087300 -0.087236 -0.087089 -0.086856 -0.086537 -0.086134 -0.085649 -0.085085 -0.084448 -0.083743 -0.082976 -0.082154 -0.081286 -0.080380 -0.079444 -0.078487 -0.077518 -0.076545 -0.075577 -0.074621 -0.073686 -0.072779 -0.071906 -0.071073 -0.070286 -0.069550 -0.068869 -0.068246 -0.067686 -0.067189 -0.066757 -0.066393 -0.066095 -0.065865 -0.065702 -0.065606 -0.065574 -0.065606 -0.065699 -0.065851 -0.066060 -0.066324 -0.066638 -0.067002 -0.067410 -0.067861 -0.068351 -0.068877 -0.069436 -0.070025 -0.070640 -0.071278 -0.071937 -0.072614 -0.073306 -0.074010 -0.074723 -0.075444 -0.076170 -0.076899 -0.077629 -0.078356 -0.079079 -0.079794 -0.080498 -0.081187 -0.081857 -0.082502 -0.083117 -0.083698 -0.084237 -0.084730 -0.085170 -0.085552 -0.085869 -0.086118 -0.086292 -0.086387 -0.086398 -0.086324 -0.086160 -0.085904 -0.085554 -0.085110 -0.084570 -0.083936 -0.083207 -0.082385 -0.081472 -0.080471 -0.079383 -0.078213 -0.076963 -0.075639 -0.074244 -0.072782 -0.071259 -0.069679 -0.068047 -0.066368 -0.064647 -0.062889 -0.061100 -0.059283 -0.057445 -0.055589 -0.053721 -0.051846 -0.049969 -0.048099 -0.046243 -0.044412 -0.042618 -0.040874 -0.039197 -0.037601 -0.036107 -0.034731 -0.033493 -0.032412 -0.031508 -0.030799 -0.030303 -0.030036 -0.030015 -0.030252 -0.030760 -0.031549 -0.032627 -0.034001 -0.035675 -0.037650 -0.039927 -0.042503 -0.045376 -0.048539 -0.051986 -0.055707 -0.059692 -0.063929 -0.068408 -0.073112 -0.078030 -0.083145 -0.088441 -0.093904 -0.099517 -0.105263 -0.111127 -0.117092 -0.123143 -0.129263 -0.135437 -0.141651 -0.147889 -0.154138 -0.160385 -0.166617 -0.172822 -0.178989 -0.185106 -0.191165 -0.197155 -0.203069 -0.208898 -0.214635 -0.220274 -0.225807 -0.231229 -0.236532 -0.241708 -0.246746 -0.251637 -0.256366 -0.260922 -0.265288 -0.269449 -0.273389 -0.277089 -0.280533 -0.283704 -0.286586 -0.289162 -0.291419 -0.293345 -0.294929 -0.296164 -0.297048 -0.297581 -0.297767 -0.297614 -0.297135 -0.296346 -0.295265 -0.293914 -0.292319 -0.290505 -0.288500 -0.286333 -0.284035 -0.281634 -0.279161 -0.276644 -0.274111 -0.271590 -0.269105 -0.266680 -0.264336 -0.262095 -0.259972 -0.257985 -0.256146 -0.254467 -0.252957 -0.251624 -0.250474 -0.249509 -0.248733 -0.248145 -0.247744 -0.247528 -0.247494 -0.247635 -0.247947 -0.248423 -0.249056 -0.249838 -0.250760 -0.251813 -0.252990 -0.254279 -0.255673 -0.257161 -0.258735 -0.260384 -0.262101 -0.263876 -0.265701 -0.267567 -0.269466 -0.271391 -0.273335 -0.275291 -0.277252 -0.279211 -0.281162 -0.283096 -0.285004 -0.286876 -0.288700 -0.290461 -0.292145 -0.293736 -0.295215 -0.296565 -0.297767 -0.298802 -0.299651 -0.300296 -0.300721 -0.300908 -0.300844 -0.300518 -0.299920 -0.299048 -0.297898 -0.296476 -0.294787 -0.292842 -0.290656 -0.288246 -0.285634 -0.282841 -0.279893 -0.276815 -0.273637 -0.270385 -0.267087 -0.263772 -0.260467 -0.257197 -0.253989 -0.250865 -0.247847 -0.244956 -0.242210 -0.239624 -0.237214 -0.234990 -0.232963 -0.231140 -0.229529 -0.228132 -0.226952 -0.225991 -0.225246 -0.224716 -0.224397 -0.224284 -0.224371 -0.224652 -0.225119 -0.225763 -0.226576 -0.227549 -0.228672 -0.229934 -0.231327 -0.232839 -0.234461 -0.236183 -0.237994 -0.239886 -0.241847 -0.243870 -0.245945 -0.248064 -0.250218 -0.252400 -0.254602 -0.256817 -0.259038 -0.261256 -0.263463 -0.265649 -0.267803 -0.269911 -0.271959 -0.273931 -0.275809 -0.277576 -0.279214 -0.280701 -0.282020 -0.283151 -0.284076 -0.284778 -0.285238 -0.285445 -0.285384 -0.285048 -0.284430 -0.283528 -0.282345 -0.280886 -0.279161 -0.277184 -0.274972 -0.272546 -0.269926 -0.267140 -0.264212 -0.261172 -0.258047 -0.254866 -0.251658 -0.248452 -0.245273 -0.242149 -0.239104 -0.236161 -0.233342 -0.230665 -0.228147 -0.225804 -0.223650 -0.221693 -0.219944 -0.218409 -0.217093 -0.215999 -0.215128 -0.214479 -0.214050 -0.213839 -0.213839 -0.214047 -0.214454 -0.215054 -0.215837 -0.216795 -0.217919 -0.219197 -0.220621 -0.222180 -0.223863 -0.225660 -0.227561 -0.229554 -0.231631 -0.233780 -0.235993 -0.238260 -0.240572 -0.242920 -0.245296 -0.247693 -0.250104 -0.252519 -0.254933 -0.257337 -0.259721 -0.262075 -0.264387 -0.266643 -0.268828 -0.270926 -0.272919 -0.274788 -0.276516 -0.278082 -0.279467 -0.280653 -0.281621 -0.282354 -0.282837 -0.283055 -0.282996 -0.282648 -0.282003 -0.281054 -0.279796 -0.278226 -0.276344 -0.274151 -0.271649 -0.268845 -0.265745 -0.262357 -0.258691 -0.254758 -0.250572 -0.246144 -0.241489 -0.236623 -0.231560 -0.226317 -0.220911 -0.215356 -0.209671 -0.203872 -0.197974 -0.191995 -0.185949 -0.179853 -0.173723 -0.167578 -0.161444 -0.155349 -0.149331 -0.143434 -0.137711 -0.132224 -0.127039 -0.122231 -0.117878 -0.114062 -0.110867 -0.108378 -0.106678 -0.105848 -0.105964 -0.107098 -0.109316 -0.112674 -0.117225 -0.123009 -0.130058 -0.138399 -0.148044 -0.158999 -0.171262 -0.184820 -0.199654 -0.215735 -0.233029 -0.251493 -0.271082 -0.291740 -0.313412 -0.336036 -0.359546 -0.383875 -0.408954 -0.434711 -0.461075 -0.487972 -0.515331 -0.543081 -0.571150 -0.599470 -0.627973 -0.656593 -0.685268 -0.713937 -0.742543 -0.771030 -0.799346 -0.827442 -0.855273 -0.882795 -0.909970 -0.936760 -0.963133 -0.989058 -1.014506 -1.039449 -1.063855 -1.087691 -1.110918 -1.133490 -1.155356 -1.176458 -1.196733 -1.216112 -1.234522 -1.251888 -1.268133 -1.283181 -1.296957 -1.309389 -1.320409 -1.329956 -1.337982 -1.344449 -1.349334 -1.352630 -1.354349 -1.354521 -1.353191 -1.350424 -1.346297 -1.340904 -1.334348 -1.326746 -1.318218 -1.308893 -1.298903 -1.288382 -1.277463 -1.266276 -1.254950 -1.243608 -1.232365 -1.221332 -1.210609 -1.200291 -1.190460 -1.181192 -1.172553 -1.164597 -1.157372 -1.150915 -1.145256 -1.140414 -1.136404 -1.133229 -1.130889 -1.129375 -1.128674 -1.128767 -1.129631 -1.131238 -1.133558 -1.136556 -1.140197 -1.144442 -1.149252 -1.154586 -1.160403 -1.166661 -1.173319 -1.180336 -1.187670 -1.195284 -1.203136 -1.211192 -1.219414 -1.227768 -1.236221 -1.244742 -1.253301 -1.261869 -1.270415 -1.278905 -1.287300 -1.295555 -1.303618 -1.311432 -1.318930 -1.326041 -1.332689 -1.338791 -1.344266 -1.349029 -1.352993 -1.356077 -1.358202 -1.359291 -1.359278 -1.358107 -1.355735 -1.352134 -1.347292 -1.341216 -1.333930 -1.325476 -1.315913 -1.305314 -1.293767 -1.281369 -1.268231 -1.254468 -1.240202 -1.225559 -1.210664 -1.195644 -1.180622 -1.165719 -1.151049 -1.136722 -1.122839 -1.109493 -1.096770 -1.084745 -1.073487 -1.063052 -1.053488 -1.044836 -1.037125 -1.030378 -1.024607 -1.019819 -1.016013 -1.013180 -1.011306 -1.010372 -1.010353 -1.011220 -1.012940 -1.015478 -1.018793 -1.022845 -1.027592 -1.032988 -1.038989 -1.045550 -1.052624 -1.060166 -1.068131 -1.076475 -1.085154 -1.094126 -1.103351 -1.112790 -1.122404 -1.132157 -1.142016 -1.151948 -1.161920 -1.171898 -1.181842 -1.191712 -1.201457 -1.211022 -1.220345 -1.229355 -1.237979 -1.246136 -1.253741 -1.260710 -1.266955 -1.272389 -1.276928 -1.280492 -1.283005 -1.284400 -1.284622 -1.283628 -1.281394 -1.277909 -1.273183 -1.267241 -1.260128 -1.251905 -1.242646 -1.232441 -1.221391 -1.209603 -1.197196 -1.184290 -1.171012 -1.157486 -1.143839 -1.130192 -1.116664 -1.103370 -1.090415 -1.077900 -1.065916 -1.054547 -1.043866 -1.033939 -1.024822 -1.016561 -1.009193 -1.002746 -0.997243 -0.992693 -0.989103 -0.986468 -0.984781 -0.984026 -0.984182 -0.985225 -0.987125 -0.989848 -0.993357 -0.997615 -1.002579 -1.008207 -1.014455 -1.021277 -1.028630 -1.036466 -1.044741 -1.053411 -1.062432 -1.071761 -1.081357 -1.091180 -1.101190 -1.111352 -1.121629 -1.131989 -1.142400 -1.152828 -1.163238 -1.173594 -1.183850 -1.193957 -1.203859 -1.213491 -1.222784 -1.231662 -1.240043 -1.247845 -1.254981 -1.261364 -1.266909 -1.271532 -1.275153 -1.277697 -1.279096 -1.279288 -1.278219 -1.275843 -1.272124 -1.267034 -1.260556 -1.252680 -1.243407 -1.232746 -1.220714 -1.207337 -1.192649 -1.176690 -1.159507 -1.141151 -1.121680 -1.101156 -1.079645 -1.057213 -1.033933 -1.009877 -0.985118 -0.959731 -0.933789 -0.907367 -0.880538 -0.853373 -0.825942 -0.798315 -0.770557 -0.742734 -0.714910 -0.687147 -0.659507 -0.632050 -0.604836 -0.577922 -0.551364 -0.525217 -0.499534 -0.474364 -0.449753 -0.425746 -0.402383 -0.379703 -0.357738 -0.336520 -0.316074 -0.296423 -0.277586 -0.259576 -0.242405 -0.226080 -0.210604 -0.195977 -0.182195 -0.169253 -0.157140 -0.145845 -0.135352 -0.125646 -0.116708 -0.108516 -0.101050 -0.094285 -0.088198 -0.082763 -0.077954 -0.073745 -0.070110 -0.067021 -0.064451 -0.062375 -0.060766 -0.059597 -0.058843 -0.058480 -0.058483 -0.058828 -0.059493 -0.060456 -0.061695 -0.063191 -0.064923 -0.066874 -0.069025 -0.071361 -0.073865 -0.076521 -0.079316 -0.082234 -0.085261 -0.088379 -0.091572 -0.094821 -0.098107 -0.101410 -0.104706 -0.107974 -0.111189 -0.114329 -0.117371 -0.120291 -0.123068 -0.125680 -0.128107 -0.130331 -0.132336 -0.134111 -0.135646 -0.136936 -0.137980 -0.138782 -0.139349 -0.139691 -0.139824 -0.139765 -0.139533 -0.139150 -0.138641 -0.138029 -0.137342 -0.136604 -0.135843 -0.135084 -0.134352 -0.133670 -0.133061 -0.132544 -0.132141 -0.131866 -0.131736 -0.131763 -0.131959 -0.132332 -0.132891 -0.133639 -0.134580 -0.135715 -0.137045 -0.138568 -0.140280 -0.142177 -0.144254 -0.146504 -0.148920 -0.151492 -0.154213 -0.157072 -0.160060 -0.163166 -0.166381 -0.169692 -0.173091 -0.176565 -0.180106 -0.183701 -0.187342 -0.191018 -0.194720 -0.198439 -0.202166 -0.205892 -0.209611 -0.213313 -0.216993 -0.220644 -0.224257 -0.227825 -0.231338 -0.234787 -0.238158 -0.241440 -0.244616 -0.247671 -0.250585 -0.253343 -0.255925 -0.258313 -0.260489 -0.262434 -0.264132 -0.265565 -0.266720 -0.267586 -0.268154 -0.268420 -0.268382 -0.268043 -0.267411 -0.266496 -0.265313 -0.263881 -0.262218 -0.260349 -0.258297 -0.256089 -0.253754 -0.251318 -0.248811 -0.246261 -0.243695 -0.241140 -0.238622 -0.236163 -0.233788 -0.231515 -0.229364 -0.227352 -0.225493 -0.223799 -0.222281 -0.220948 -0.219806 -0.218860 -0.218112 -0.217564 -0.217216 -0.217066 -0.217110 -0.217345 -0.217765 -0.218364 -0.219135 -0.220070 -0.221161 -0.222399 -0.223774 -0.225278 -0.226901 -0.228634 -0.230465 -0.232386 -0.234388 -0.236461 -0.238595 -0.240782 -0.243014 -0.245282 -0.247578 -0.249895 -0.252226 -0.254563 -0.256900 -0.259229 -0.261541 -0.263827 -0.266076 -0.268274 -0.270407 -0.272460 -0.274416 -0.276255 -0.277960 -0.279512 -0.280891 -0.282080 -0.283060 -0.283813 -0.284323 -0.284577 -0.284563 -0.284273 -0.283702 -0.282849 -0.281719 -0.280318 -0.278657 -0.276751 -0.274619 -0.272280 -0.269758 -0.267077 -0.264264 -0.261348 -0.258354 -0.255313 -0.252252 -0.249198 -0.246178 -0.243217 -0.240338 -0.237563 -0.234913 -0.232405 -0.230056 -0.227879 -0.225887 -0.224089 -0.222493 -0.221106 -0.219930 -0.218970 -0.218224 -0.217692 -0.217372 -0.217261 -0.217352 -0.217640 -0.218118 -0.218780 -0.219615 -0.220616 -0.221772 -0.223075 -0.224515 -0.226081 -0.227763 -0.229550 -0.231434 -0.233404 -0.235450 -0.237562 -0.239732 -0.241951 -0.244209 -0.246500 -0.248814 -0.251145 -0.253486 -0.255828 -0.258165 -0.260487 -0.262785 -0.265047 -0.267260 -0.269410 -0.271481 -0.273455 -0.275313 -0.277038 -0.278611 -0.280013 -0.281224 -0.282226 -0.283002 -0.283535 -0.283811 -0.283815 -0.283537 -0.282966 -0.282095 -0.280918 -0.279431 -0.277634 -0.275526 -0.273110 -0.270390 -0.267372 -0.264064 -0.260476 -0.256617 -0.252501 -0.248138 -0.243545 -0.238734 -0.233722 -0.228524 -0.223157 -0.217637 -0.211980 -0.206203 -0.200322 -0.194354 -0.188314 -0.182218 -0.176081 -0.169917 -0.163743 -0.157570 -0.151415 -0.145292 -0.139214 -0.133195 -0.127249 -0.121390 -0.115632 -0.109986 -0.104466 -0.099083 -0.093847 -0.088771 -0.083862 -0.079130 -0.074582 -0.070225 -0.066065 -0.062107 -0.058354 -0.054808 -0.051473 -0.048347 -0.045432 -0.042725 -0.040226 -0.037931 -0.035837 -0.033940 -0.032236 -0.030718 -0.029383 -0.028223 -0.027232 -0.026403 -0.025730 -0.025206 -0.024824 -0.024575 -0.024454 -0.024453 -0.024564 -0.024780 -0.025096 -0.025503 -0.025996 -0.026567 -0.027211 -0.027921 -0.028692 -0.029518 -0.030395 -0.031316 -0.032277 -0.033274 -0.034302 -0.035358 -0.036437 -0.037536 -0.038651 -0.039778 -0.040913 -0.042050 -0.043186 -0.044314 -0.045428 -0.046524 -0.047593 -0.048630 -0.049629 -0.050582 -0.051483 -0.052326 -0.053106 -0.053815 -0.054451 -0.055008 -0.055484 -0.055876 -0.056184 -0.056407 -0.056549 -0.056611 -0.056597 -0.056514 -0.056366 -0.056159 -0.055902 -0.055601 -0.055266 -0.054904 -0.054523 -0.054132 -0.053739 -0.053352 -0.052978 -0.052624 -0.052297 -0.052003 -0.051747 -0.051533 -0.051366 -0.051250 -0.051187 -0.051179 -0.051229 -0.051337 -0.051504 -0.051730 -0.052014 -0.052356 -0.052755 -0.053209 -0.053715 -0.054272 -0.054878 -0.055529 -0.056224 -0.056958 -0.057729 -0.058534 -0.059370 -0.060234 -0.061122 -0.062031 -0.062959 -0.063902 -0.064858 -0.065823 -0.066795 -0.067772 -0.068750 -0.069728 -0.070704 -0.071675 -0.072638 -0.073593 -0.074536 -0.075465 -0.076375 -0.077264 -0.078128 -0.078961 -0.079759 -0.080516 -0.081226 -0.081885 -0.082486 -0.083024 -0.083493 -0.083888 -0.084204 -0.084437 -0.084584 -0.084641 -0.084609 -0.084485 -0.084272 -0.083972 -0.083588 -0.083125 -0.082588 -0.081983 -0.081318 -0.080600 -0.079837 -0.079038 -0.078211 -0.077365 -0.076509 -0.075652 -0.074800 -0.073962 -0.073146 -0.072357 -0.071603 -0.070889 -0.070220 -0.069600 -0.069033 -0.068522 -0.068071 -0.067679 -0.067350 -0.067084 -0.066881 -0.066741 -0.066663 -0.066646 -0.066690 -0.066791 -0.066949 -0.067161 -0.067425 -0.067737 -0.068096 -0.068498 -0.068940 -0.069420 -0.069935 -0.070480 -0.071054 -0.071654 -0.072275 -0.072917 -0.073576 -0.074248 -0.074933 -0.075626 -0.076327 -0.077032 -0.077740 -0.078448 -0.079154 -0.079856 -0.080550 -0.081232 -0.081900 -0.082548 -0.083172 -0.083767 -0.084326 -0.084845 -0.085317 -0.085737 -0.086098 -0.086396 -0.086625 -0.086780 -0.086857 -0.086851 -0.086761 -0.086584 -0.086321 -0.085970 -0.085535 -0.085018 -0.084425 -0.083759 -0.083027 -0.082236 -0.081393 -0.080508 -0.079587 -0.078640 -0.077676 -0.076703 -0.075730 -0.074765 -0.073817 -0.072893 -0.071999 -0.071143 -0.070330 -0.069566 -0.068855 -0.068201 -0.067607 -0.067077 -0.066611 -0.066212 -0.065881 -0.065617 -0.065422 -0.065293 -0.065231 -0.065233 -0.065298 -0.065424 -0.065608 -0.065849 -0.066143 -0.066487 -0.066878 -0.067314 -0.067791 -0.068305 -0.068855 -0.069436 -0.070045 -0.070679 -0.071336 -0.072012 -0.072704 -0.073410 -0.074127 -0.074853 -0.075585 -0.076321 -0.077059 -0.077795 -0.078529 -0.079257 -0.079976 -0.080682 -0.081370 -0.082037 -0.082678 -0.083286 -0.083856 -0.084383 -0.084861 -0.085283 -0.085645 -0.085940 -0.086164 -0.086311 -0.086378 -0.086359 -0.086253 -0.086056 -0.085766 -0.085382 -0.084903 -0.084329 -0.083659 -0.082896 -0.082040 -0.081094 -0.080060 -0.078941 -0.077741 -0.076464 -0.075112 -0.073692 -0.072207 -0.070662 -0.069062 -0.067412 -0.065717 -0.063982 -0.062213 -0.060413 -0.058588 -0.056743 -0.054883 -0.053015 -0.051147 -0.049294 -0.047477 -0.045725 -0.044074 -0.042568 -0.041263 -0.040217 -0.039500 -0.039183 -0.039344 -0.040062 -0.041418 -0.043489 -0.046355 -0.050087 -0.054757 -0.060425 -0.067150 -0.074978 -0.083952 -0.094103 -0.105454 -0.118020 -0.131806 -0.146809 -0.163018 -0.180414 -0.198968 -0.218647 -0.239411 -0.261213 -0.284002 -0.307721 -0.332310 -0.357706 -0.383843 -0.410652 -0.438065 -0.466012 -0.494420 -0.523221 -0.552344 -0.581721 -0.611284 -0.640966 -0.670706 -0.700441 -0.730112 -0.759664 -0.789043 -0.818198 -0.847083 -0.875652 -0.903865 -0.931684 -0.959074 -0.986003 -1.012441 -1.038363 -1.063739 -1.088541 -1.112735 -1.136285 -1.159146 -1.181268 -1.202594 -1.223062 -1.242604 -1.261149 -1.278623 -1.294949 -1.310052 -1.323859 -1.336298 -1.347302 -1.356814 -1.364785 -1.371179 -1.375977 -1.379175 -1.380786 -1.380843 -1.379394 -1.376505 -1.372255 -1.366741 -1.360067 -1.352349 -1.343710 -1.334278 -1.324186 -1.313567 -1.302554 -1.291276 -1.279862 -1.268432 -1.257102 -1.245980 -1.235168 -1.224755 -1.214826 -1.205453 -1.196702 -1.188627 -1.181273 -1.174679 -1.168870 -1.163869 -1.159686 -1.156327 -1.153790 -1.152067 -1.151144 -1.151002 -1.151618 -1.152965 -1.155012 -1.157726 -1.161071 -1.165010 -1.169503 -1.174511 -1.179992 -1.185907 -1.192213 -1.198871 -1.205842 -1.213085 -1.220563 -1.228240 -1.236080 -1.244050 -1.252117 -1.260251 -1.268422 -1.276602 -1.284759 -1.292859 -1.300861 -1.308720 -1.316383 -1.323789 -1.330874 -1.337563 -1.343780 -1.349443 -1.354468 -1.358769 -1.362264 -1.364869 -1.366505 -1.367099 -1.366586 -1.364912 -1.362036 -1.357934 -1.352598 -1.346037 -1.338281 -1.329373 -1.319375 -1.308364 -1.296429 -1.283671 -1.270201 -1.256137 -1.241599 -1.226715 -1.211610 -1.196410 -1.181239 -1.166214 -1.151450 -1.137054 -1.123127 -1.109759 -1.097034 -1.085027 -1.073802 -1.063416 -1.053914 -1.045334 -1.037704 -1.031045 -1.025368 -1.020678 -1.016972 -1.014241 -1.012468 -1.011635 -1.011714 -1.012676 -1.014487 -1.017111 -1.020507 -1.024635 -1.029452 -1.034911 -1.040969 -1.047580 -1.054698 -1.062277 -1.070272 -1.078640 -1.087337 -1.096321 -1.105551 -1.114989 -1.124598 -1.134341 -1.144184 -1.154096 -1.164042 -1.173989 -1.183896 -1.193720 -1.203410 -1.212910 -1.222156 -1.231076 -1.239595 -1.247632 -1.255102 -1.261919 -1.267995 -1.273245 -1.277584 -1.280933 -1.283217 -1.284371 -1.284341 -1.283087 -1.280583 -1.276823 -1.271817 -1.265594 -1.258199 -1.249695 -1.240159 -1.229681 -1.218362 -1.206315 -1.193658 -1.180512 -1.167004 -1.153262 -1.139410 -1.125573 -1.111869 -1.098412 -1.085311 -1.072664 -1.060563 -1.049092 -1.038324 -1.028325 -1.019150 -1.010844 -1.003445 -0.996982 -0.991473 -0.986931 -0.983359 -0.980754 -0.979106 -0.978400 -0.978614 -0.979723 -0.981696 -0.984499 -0.988096 -0.992446 -0.997508 -1.003238 -1.009592 -1.016524 -1.023989 -1.031940 -1.040332 -1.049121 -1.058261 -1.067711 -1.077427 -1.087371 -1.097502 -1.107783 -1.118180 -1.128659 -1.139186 -1.149730 -1.160255 -1.170723 -1.181090 -1.191306 -1.201315 -1.211052 -1.220447 -1.229425 -1.237905 -1.245803 -1.253032 -1.259507 -1.265141 -1.269850 -1.273555 -1.276181 -1.277660 -1.277929 -1.276935 -1.274632 -1.270983 -1.265962 -1.259550 -1.251739 -1.242528 -1.231927 -1.219953 -1.206633 -1.192000 -1.176094 -1.158961 -1.140654 -1.121231 -1.100753 -1.079286 -1.056897 -1.033659 -1.009642 -0.984921 -0.959571 -0.933664 -0.907277 -0.880480 -0.853347 -0.825947 -0.798348 -0.770617 -0.742818 -0.715012 -0.687259 -0.659616 -0.632137 -0.604874 -0.577877 -0.551191 -0.524863 -0.498932 -0.473436 -0.448410 -0.423885 -0.399892 -0.376455 -0.353599 -0.331343 -0.309705 -0.288700 -0.268339 -0.248631 -0.229583 -0.211199 -0.193482 -0.176431 -0.160044 -0.144317 -0.129245 -0.114819 -0.101032 -0.087873 -0.075331 -0.063395 -0.052050 -0.041284 -0.031081 -0.021427 -0.012307 -0.003705 0.004395 0.012009 0.019153 0.025844 0.032096 0.037926 0.043349 0.048382 0.053038 0.057333 0.061282 0.064898 0.068195 0.071187 0.073886 0.076305 0.078456 0.080352 0.082002 0.083419 0.084612 0.085592 0.086371 0.086958 0.087364 0.087601 0.087680 0.087612 0.087408 0.087083 0.086648 0.086113 0.085490 0.084791 0.084028 0.083210 0.082349 0.081453 0.080532 0.079593 0.078642 0.077686 0.076726 0.075767 0.074809 0.073852 0.072894 0.071934 0.070969 0.069996 0.069010 0.068008 0.066983 0.065931 0.064847 0.063726 0.062562 0.061352 0.060092 0.058777 0.057404 0.055971 0.054475 0.052914 0.051288 0.049596 0.047838 0.046014 0.044125 0.042172 0.040158 0.038085 0.035955 0.033771 0.031537 0.029255 0.026930 0.024566 0.022166 0.019734 0.017275 0.014792 0.012290 0.009774 0.007247 0.004712 0.002175 -0.000360 -0.002892 -0.005415 -0.007926 -0.010422 -0.012900 -0.015357 -0.017789 -0.020196 -0.022574 -0.024920 -0.027232 -0.029508 -0.031744 -0.033937 -0.036083 -0.038178 -0.040217 -0.042195 -0.044106 -0.045945 -0.047706 -0.049385 -0.050976 -0.052472 -0.053870 -0.055165 -0.056352 -0.057428 -0.058390 -0.059237 -0.059969 -0.060586 -0.061090 -0.061485 -0.061775 -0.061967 -0.062067 -0.062080 -0.062016 -0.061882 -0.061689 -0.061444 -0.061157 -0.060838 -0.060496 -0.060139 -0.059777 -0.059417 -0.059067 -0.058734 -0.058424 -0.058144 -0.057899 -0.057693 -0.057530 -0.057413 -0.057346 -0.057330 -0.057366 -0.057457 -0.057601 -0.057799 -0.058050 -0.058353 -0.058708 -0.059112 -0.059564 -0.060061 -0.060602 -0.061183 -0.061802 -0.062456 -0.063143 -0.063859 -0.064602 -0.065369 -0.066157 -0.066963 -0.067784 -0.068618 -0.069462 -0.070313 -0.071170 -0.072029 -0.072890 -0.073749 -0.074605 -0.075455 -0.076298 -0.077130 -0.077950 -0.078753 -0.079535 -0.080292 -0.081020 -0.081712 -0.082363 -0.082968 -0.083523 -0.084020 -0.084455 -0.084821 -0.085114 -0.085329 -0.085463 -0.085511 -0.085472 -0.085346 -0.085131 -0.084831 -0.084446 -0.083982 -0.083445 -0.082838 -0.082168 -0.081443 -0.080670 -0.079858 -0.079015 -0.078149 -0.077270 -0.076385 -0.075504 -0.074634 -0.073782 -0.072955 -0.072160 -0.071404 -0.070691 -0.070025 -0.069412 -0.068854 -0.068355 -0.067917 -0.067540 -0.067227 -0.066978 -0.066793 -0.066671 -0.066612 -0.066614 -0.066677 -0.066797 -0.066974 -0.067204 -0.067485 -0.067815 -0.068190 -0.068608 -0.069065 -0.069559 -0.070086 -0.070644 -0.071229 -0.071838 -0.072470 -0.073120 -0.073785 -0.074465 -0.075155 -0.075853 -0.076558 -0.077267 -0.077977 -0.078687 -0.079394 -0.080095 -0.080787 -0.081467 -0.082129 -0.082771 -0.083386 -0.083968 -0.084512 -0.085014 -0.085467 -0.085865 -0.086203 -0.086475 -0.086677 -0.086802 -0.086847 -0.086807 -0.086680 -0.086464 -0.086154 -0.085751 -0.085254 -0.084661 -0.083974 -0.083194 -0.082322 -0.081359 -0.080310 -0.079176 -0.077961 -0.076669 -0.075304 -0.073870 -0.072372 -0.070814 -0.069202 -0.067540 -0.065834 -0.064088 -0.062307 -0.060497 -0.058663 -0.056808 -0.054938 -0.053061 -0.051184 -0.049323 -0.047498 -0.045738 -0.044079 -0.042567 -0.041254 -0.040202 -0.039478 -0.039156 -0.039311 -0.040024 -0.041374 -0.043440 -0.046301 -0.050029 -0.054694 -0.060359 -0.067080 -0.074905 -0.083875 -0.094023 -0.105371 -0.117934 -0.131718 -0.146719 -0.162926 -0.180319 -0.198872 -0.218550 -0.239312 -0.261113 -0.283901 -0.307619 -0.332207 -0.357602 -0.383739 -0.410548 -0.437961 -0.465907 -0.494316 -0.523117 -0.552240 -0.581617 -0.611180 -0.640864 -0.670604 -0.700339 -0.730012 -0.759564 -0.788944 -0.818100 -0.846986 -0.875556 -0.903771 -0.931591 -0.958982 -0.985912 -1.012352 -1.038274 -1.063652 -1.088455 -1.112651 -1.136203 -1.159065 -1.181189 -1.202516 -1.222986 -1.242529 -1.261076 -1.278551 -1.294879 -1.309984 -1.323792 -1.336232 -1.347237 -1.356749 -1.364715 -1.371100 -1.375879 -1.379046 -1.380611 -1.380602 -1.379065 -1.376063 -1.371673 -1.365988 -1.359113 -1.351163 -1.342261 -1.332535 -1.322120 -1.311150 -1.299760 -1.288083 -1.276248 -1.264381 -1.252600 -1.241018 -1.229737 -1.218854 -1.208454 -1.198614 -1.189402 -1.180876 -1.173084 -1.166067 -1.159853 -1.154467 -1.149920 -1.146221 -1.143368 -1.141355 -1.140169 -1.139791 -1.140199 -1.141366 -1.143261 -1.145850 -1.149098 -1.152967 -1.157416 -1.162404 -1.167892 -1.173835 -1.180193 -1.186925 -1.193988 -1.201344 -1.208952 -1.216776 -1.224778 -1.232923 -1.241179 -1.249514 -1.257897 -1.266299 -1.274689 -1.283034 -1.291296 -1.299431 -1.307389 -1.315113 -1.322539 -1.329596 -1.336208 -1.342295 -1.347775 -1.352561 -1.356571 -1.359719 -1.361925 -1.363114 -1.363214 -1.362167 -1.359924 -1.356450 -1.351728 -1.345756 -1.338553 -1.330153 -1.320608 -1.309987 -1.298373 -1.285860 -1.272555 -1.258572 -1.244034 -1.229065 -1.213793 -1.198348 -1.182855 -1.167438 -1.152217 -1.137305 -1.122807 -1.108824 -1.095445 -1.082751 -1.070815 -1.059700 -1.049458 -1.040134 -1.031763 -1.024369 -1.017972 -1.012579 -1.008193 -1.004808 -1.002413 -1.000989 -1.000514 -1.000961 -1.002295 -1.004484 -1.007487 -1.011264 -1.015772 -1.020965 -1.026799 -1.033227 -1.040202 -1.047677 -1.055607 -1.063945 -1.072647 -1.081669 -1.090969 -1.100507 -1.110242 -1.120137 -1.130157 -1.140268 -1.150436 -1.160628 -1.170808 -1.180936 -1.190966 -1.200847 -1.210519 -1.219919 -1.228973 -1.237604 -1.245730 -1.253268 -1.260129 -1.266226 -1.271475 -1.275791 -1.279096 -1.281319 -1.282395 -1.282275 -1.280923 -1.278321 -1.274464 -1.269371 -1.263074 -1.255624 -1.247088 -1.237547 -1.227095 -1.215836 -1.203883 -1.191355 -1.178375 -1.165070 -1.151564 -1.137983 -1.124447 -1.111074 -1.097974 -1.085253 -1.073006 -1.061322 -1.050281 -1.039953 -1.030400 -1.021673 -1.013816 -1.006863 -1.000839 -0.995760 -0.991637 -0.988470 -0.986254 -0.984978 -0.984625 -0.985172 -0.986592 -0.988854 -0.991923 -0.995763 -1.000332 -1.005589 -1.011491 -1.017993 -1.025051 -1.032618 -1.040651 -1.049103 -1.057930 -1.067090 -1.076540 -1.086240 -1.096149 -1.106230 -1.116447 -1.126765 -1.137152 -1.147575 -1.158000 -1.168394 -1.178714 -1.188914 -1.198944 -1.208742 -1.218242 -1.227373 -1.236056 -1.244210 -1.251749 -1.258586 -1.264636 -1.269813 -1.274035 -1.277224 -1.279308 -1.280220 -1.279903 -1.278304 -1.275383 -1.271106 -1.265450 -1.258401 -1.249953 -1.240109 -1.228884 -1.216297 -1.202378 -1.187163 -1.170694 -1.153021 -1.134198 -1.114284 -1.093343 -1.071441 -1.048648 -1.025034 -1.000674 -0.975640 -0.950008 -0.923852 -0.897245 -0.870259 -0.842966 -0.815436 -0.787735 -0.759932 -0.732090 -0.704275 -0.676548 -0.648973 -0.621608 -0.594515 -0.567750 -0.541371 -0.515431 -0.489981 -0.465069 -0.440743 -0.417043 -0.394011 -0.371681 -0.350085 -0.329252 -0.309206 -0.289966 -0.271550 -0.253968 -0.237230 -0.221341 -0.206301 -0.192109 -0.178758 -0.166242 -0.154547 -0.143662 -0.133569 -0.124251 -0.115689 -0.107859 -0.100740 -0.094308 -0.088537 -0.083402 -0.078878 -0.074936 -0.071551 -0.068696 -0.066344 -0.064468 -0.063044 -0.062044 -0.061444 -0.061219 -0.061346 -0.061802 -0.062565 -0.063612 -0.064924 -0.066481 -0.068263 -0.070254 -0.072437 -0.074794 -0.077311 -0.079973 -0.082764 -0.085671 -0.088675 -0.091762 -0.094912 -0.098106 -0.101324 -0.104543 -0.107740 -0.110893 -0.113978 -0.116972 -0.119852 -0.122596 -0.125181 -0.127588 -0.129798 -0.131796 -0.133568 -0.135107 -0.136407 -0.137467 -0.138290 -0.138883 -0.139257 -0.139426 -0.139409 -0.139223 -0.138890 -0.138435 -0.137880 -0.137254 -0.136579 -0.135883 -0.135191 -0.134526 -0.133912 -0.133371 -0.132923 -0.132585 -0.132376 -0.132310 -0.132399 -0.132654 -0.133084 -0.133695 -0.134493 -0.135481 -0.136659 -0.138029 -0.139587 -0.141331 -0.143256 -0.145356 -0.147626 -0.150058 -0.152643 -0.155372 -0.158236 -0.161226 -0.164331 -0.167541 -0.170845 -0.174233 -0.177695 -0.181220 -0.184798 -0.188419 -0.192074 -0.195753 -0.199447 -0.203148 -0.206848 -0.210538 -0.214212 -0.217862 -0.221482 -0.225063 -0.228599 -0.232078 -0.235492 -0.238826 -0.242069 -0.245203 -0.248214 -0.251082 -0.253790 -0.256320 -0.258652 -0.260769 -0.262653 -0.264286 -0.265653 -0.266741 -0.267538 -0.268038 -0.268237 -0.268135 -0.267736 -0.267048 -0.266084 -0.264857 -0.263389 -0.261699 -0.259811 -0.257750 -0.255542 -0.253216 -0.250799 -0.248319 -0.245804 -0.243282 -0.240778 -0.238316 -0.235922 -0.233615 -0.231415 -0.229342 -0.227409 -0.225632 -0.224022 -0.222588 -0.221339 -0.220280 -0.219416 -0.218748 -0.218279 -0.218005 -0.217927 -0.218039 -0.218339 -0.218819 -0.219474 -0.220296 -0.221278 -0.222411 -0.223686 -0.225095 -0.226627 -0.228274 -0.230025 -0.231871 -0.233803 -0.235811 -0.237887 -0.240020 -0.242203 -0.244427 -0.246684 -0.248967 -0.251267 -0.253579 -0.255895 -0.258208 -0.260510 -0.262792 -0.265044 -0.267254 -0.269408 -0.271493 -0.273490 -0.275384 -0.277156 -0.278785 -0.280254 -0.281543 -0.282635 -0.283511 -0.284155 -0.284551 -0.284687 -0.284553 -0.284144 -0.283456 -0.282492 -0.281257 -0.279761 -0.278016 -0.276040 -0.273852 -0.271475 -0.268931 -0.266247 -0.263449 -0.260564 -0.257621 -0.254647 -0.251670 -0.248715 -0.245808 -0.242973 -0.240231 -0.237603 -0.235108 -0.232763 -0.230581 -0.228575 -0.226756 -0.225131 -0.223709 -0.222493 -0.221485 -0.220688 -0.220101 -0.219721 -0.219547 -0.219572 -0.219793 -0.220202 -0.220792 -0.221556 -0.222484 -0.223568 -0.224799 -0.226166 -0.227660 -0.229271 -0.230989 -0.232804 -0.234706 -0.236686 -0.238735 -0.240842 -0.243000 -0.245200 -0.247433 -0.249693 -0.251971 -0.254260 -0.256554 -0.258844 -0.261122 -0.263379 -0.265603 -0.267782 -0.269901 -0.271946 -0.273899 -0.275743 -0.277457 -0.279023 -0.280422 -0.281636 -0.282646 -0.283434 -0.283983 -0.284278 -0.284306 -0.284054 -0.283512 -0.282673 -0.281530 -0.280078 -0.278317 -0.276246 -0.273867 -0.271184 -0.268203 -0.264931 -0.261377 -0.257551 -0.253465 -0.249132 -0.244565 -0.239780 -0.234790 -0.229612 -0.224262 -0.218756 -0.213111 -0.207343 -0.201469 -0.195505 -0.189466 -0.183368 -0.177227 -0.171057 -0.164873 -0.158690 -0.152520 -0.146379 -0.140281 -0.134239 -0.128267 -0.122379 -0.116587 -0.110906 -0.105347 -0.099922 -0.094642 -0.089518 -0.084559 -0.079775 -0.075173 -0.070760 -0.066543 -0.062527 -0.058714 -0.055109 -0.051714 -0.048529 -0.045554 -0.042789 -0.040232 -0.037881 -0.035732 -0.033782 -0.032026 -0.030459 -0.029076 -0.027870 -0.026836 -0.025968 -0.025257 -0.024697 -0.024281 -0.024003 -0.023853 -0.023826 -0.023915 -0.024111 -0.024408 -0.024800 -0.025278 -0.025838 -0.026472 -0.027175 -0.027941 -0.028763 -0.029637 -0.030558 -0.031520 -0.032520 -0.033552 -0.034612 -0.035697 -0.036803 -0.037927 -0.039063 -0.040209 -0.041358 -0.042508 -0.043652 -0.044785 -0.045901 -0.046993 -0.048055 -0.049081 -0.050063 -0.050996 -0.051873 -0.052688 -0.053436 -0.054111 -0.054710 -0.055229 -0.055666 -0.056020 -0.056293 -0.056484 -0.056598 -0.056638 -0.056609 -0.056517 -0.056368 -0.056169 -0.055928 -0.055653 -0.055351 -0.055031 -0.054700 -0.054367 -0.054039 -0.053723 -0.053426 -0.053154 -0.052913 -0.052708 -0.052543 -0.052423 -0.052351 -0.052330 -0.052361 -0.052446 -0.052586 -0.052783 -0.053035 -0.053342 -0.053704 -0.054120 -0.054587 -0.055104 -0.055669 -0.056279 -0.056932 -0.057626 -0.058356 -0.059122 -0.059919 -0.060744 -0.061595 -0.062468 -0.063361 -0.064271 -0.065194 -0.066128 -0.067071 -0.068020 -0.068972 -0.069925 -0.070876 -0.071824 -0.072767 -0.073703 -0.074628 -0.075541 -0.076439 -0.077318 -0.078174 -0.079003 -0.079800 -0.080561 -0.081279 -0.081948 -0.082564 -0.083120 -0.083612 -0.084033 -0.084378 -0.084643 -0.084825 -0.084919 -0.084924 -0.084838 -0.084663 -0.084400 -0.084051 -0.083620 -0.083113 -0.082534 -0.081891 -0.081191 -0.080442 -0.079651 -0.078829 -0.077982 -0.077120 -0.076252 -0.075386 -0.074529 -0.073690 -0.072874 -0.072090 -0.071343 -0.070638 -0.069980 -0.069373 -0.068821 -0.068326 -0.067892 -0.067519 -0.067208 -0.066961 -0.066777 -0.066657 -0.066598 -0.066601 -0.066663 -0.066782 -0.066958 -0.067187 -0.067466 -0.067794 -0.068166 -0.068582 -0.069036 -0.069527 -0.070052 -0.070607 -0.071189 -0.071795 -0.072423 -0.073070 -0.073733 -0.074409 -0.075096 -0.075792 -0.076493 -0.077199 -0.077906 -0.078613 -0.079317 -0.080016 -0.080706 -0.081383 -0.082043 -0.082682 -0.083295 -0.083877 -0.084421 -0.084923 -0.085375 -0.085773 -0.086111 -0.086383 -0.086584 -0.086709 -0.086755 -0.086719 -0.086599 -0.086394 -0.086104 -0.085732 -0.085280 -0.084752 -0.084154 -0.083491 -0.082770 -0.081998 -0.081183 -0.080333 -0.079457 -0.078563 -0.077660 -0.076755 -0.075857 -0.074974 -0.074113 -0.073280 -0.072482 -0.071724 -0.071011 -0.070349 -0.069740 -0.069188 -0.068696 -0.068265 -0.067896 -0.067592 -0.067352 -0.067175 -0.067062 -0.067011 -0.067021 -0.067091 -0.067218 -0.067400 -0.067635 -0.067921 -0.068253 -0.068631 -0.069050 -0.069507 -0.070000 -0.070526 -0.071081 -0.071663 -0.072268 -0.072895 -0.073539 -0.074198 -0.074870 -0.075553 -0.076243 -0.076938 -0.077638 -0.078338 -0.079037 -0.079733 -0.080422 -0.081101 -0.081766 -0.082413 -0.083037 -0.083633 -0.084195 -0.084718 -0.085196 -0.085623 -0.085993 -0.086301 -0.086541 -0.086709 -0.086799 -0.086807 -0.086730 -0.086564 -0.086307 -0.085958 -0.085515 -0.084977 -0.084344 -0.083618 -0.082798 -0.081888 -0.080889 -0.079804 -0.078635 -0.077388 -0.076065 -0.074671 -0.073210 -0.071686 -0.070106 -0.068472 -0.066791 -0.065068 -0.063307 -0.061514 -0.059693 -0.057849 -0.055988 -0.054115 -0.052238 -0.050369 -0.048526 -0.046735 -0.045029 -0.043450 -0.042048 -0.040880 -0.040012 -0.039516 -0.039466 -0.039941 -0.041020 -0.042785 -0.045313 -0.048679 -0.052955 -0.058206 -0.064491 -0.071862 -0.080363 -0.090029 -0.100888 -0.112957 -0.126245 -0.140753 -0.156472 -0.173386 -0.191472 -0.210697 -0.231024 -0.252409 -0.274802 -0.298148 -0.322389 -0.347464 -0.373306 -0.399848 -0.427022 -0.454758 -0.482985 -0.511632 -0.540630 -0.569909 -0.599400 -0.629039 -0.658759 -0.688499 -0.718200 -0.747803 -0.777254 -0.806501 -0.835497 -0.864195 -0.892553 -0.920532 -0.948096 -0.975211 -1.001847 -1.027977 -1.053574 -1.078608 -1.103049 -1.126860 -1.150002 -1.172425 -1.194076 -1.214895 -1.234815 -1.253768 -1.271679 -1.288473 -1.304074 -1.318408 -1.331402 -1.342988 -1.353102 -1.361691 -1.368711 -1.374133 -1.377944 -1.380146 -1.380761 -1.379828 -1.377402 -1.373556 -1.368377 -1.361964 -1.354429 -1.345892 -1.336479 -1.326324 -1.315559 -1.304320 -1.292742 -1.280954 -1.269086 -1.257256 -1.245582 -1.234168 -1.223115 -1.212512 -1.202439 -1.192969 -1.184162 -1.176072 -1.168740 -1.162202 -1.156483 -1.151599 -1.147561 -1.144370 -1.142023 -1.140508 -1.139810 -1.139907 -1.140774 -1.142382 -1.144698 -1.147688 -1.151313 -1.155535 -1.160313 -1.165606 -1.171373 -1.177571 -1.184158 -1.191094 -1.198338 -1.205851 -1.213593 -1.221528 -1.229621 -1.237838 -1.246145 -1.254513 -1.262911 -1.271310 -1.279678 -1.287978 -1.296171 -1.304207 -1.312032 -1.319586 -1.326799 -1.333600 -1.339907 -1.345641 -1.350715 -1.355046 -1.358549 -1.361142 -1.362747 -1.363291 -1.362712 -1.360956 -1.357985 -1.353775 -1.348321 -1.341634 -1.333745 -1.324699 -1.314561 -1.303409 -1.291334 -1.278438 -1.264834 -1.250641 -1.235981 -1.220983 -1.205772 -1.190476 -1.175218 -1.160118 -1.145291 -1.130843 -1.116875 -1.103479 -1.090739 -1.078728 -1.067511 -1.057144 -1.047672 -1.039134 -1.031556 -1.024959 -1.019354 -1.014745 -1.011128 -1.008493 -1.006825 -1.006102 -1.006297 -1.007381 -1.009319 -1.012074 -1.015605 -1.019870 -1.024827 -1.030429 -1.036630 -1.043386 -1.050649 -1.058374 -1.066515 -1.075027 -1.083868 -1.092995 -1.102367 -1.111944 -1.121690 -1.131569 -1.141546 -1.151588 -1.161662 -1.171733 -1.181762 -1.191706 -1.201512 -1.211125 -1.220480 -1.229507 -1.238129 -1.246266 -1.253832 -1.260743 -1.266909 -1.272246 -1.276670 -1.280099 -1.282462 -1.283693 -1.283739 -1.282562 -1.280138 -1.276461 -1.271545 -1.265420 -1.258132 -1.249745 -1.240339 -1.230003 -1.218841 -1.206963 -1.194487 -1.181538 -1.168238 -1.154715 -1.141094 -1.127495 -1.114038 -1.100834 -1.087990 -1.075603 -1.063763 -1.052552 -1.042042 -1.032297 -1.023370 -1.015307 -1.008142 -1.001902 -0.996607 -0.992267 -0.988885 -0.986457 -0.984972 -0.984415 -0.984764 -0.985993 -0.988071 -0.990965 -0.994638 -0.999049 -1.004158 -1.009921 -1.016294 -1.023232 -1.030691 -1.038623 -1.046985 -1.055733 -1.064822 -1.074210 -1.083856 -1.093721 -1.103765 -1.113953 -1.124250 -1.134622 -1.145037 -1.155463 -1.165864 -1.176201 -1.186429 -1.196497 -1.206346 -1.215913 -1.225125 -1.233905 -1.242173 -1.249844 -1.256832 -1.263049 -1.268410 -1.272833 -1.276239 -1.278553 -1.279709 -1.279646 -1.278312 -1.275664 -1.271666 -1.266292 -1.259528 -1.251365 -1.241806 -1.230861 -1.218551 -1.204902 -1.189949 -1.173733 -1.156303 -1.137712 -1.118018 -1.097284 -1.075575 -1.052961 -1.029512 -1.005302 -0.980403 -0.954892 -0.928841 -0.902324 -0.875415 -0.848184 -0.820702 -0.793036 -0.765253 -0.737417 -0.709591 -0.681839 -0.654220 -0.626794 -0.599620 -0.572755 -0.546255 -0.520174 -0.494563 -0.469471 -0.444944 -0.421026 -0.397757 -0.375174 -0.353311 -0.332197 -0.311858 -0.292315 -0.273588 -0.255690 -0.238632 -0.222419 -0.207056 -0.192542 -0.178873 -0.166043 -0.154041 -0.142856 -0.132472 -0.122874 -0.114041 -0.105954 -0.098590 -0.091926 -0.085937 -0.080599 -0.075884 -0.071768 -0.068223 -0.065222 -0.062738 -0.060745 -0.059217 -0.058128 -0.057451 -0.057163 -0.057238 -0.057654 -0.058388 -0.059417 -0.060721 -0.062279 -0.064072 -0.066082 -0.068290 -0.070680 -0.073237 -0.075945 -0.078790 -0.081756 -0.084829 -0.087992 -0.091228 -0.094519 -0.097846 -0.101187 -0.104521 -0.107824 -0.111074 -0.114247 -0.117321 -0.120273 -0.123080 -0.125720 -0.128175 -0.130425 -0.132457 -0.134257 -0.135817 -0.137133 -0.138205 -0.139035 -0.139631 -0.140005 -0.140173 -0.140150 -0.139957 -0.139615 -0.139149 -0.138584 -0.137946 -0.137259 -0.136552 -0.135847 -0.135171 -0.134546 -0.133995 -0.133537 -0.133191 -0.132975 -0.132902 -0.132985 -0.133235 -0.133662 -0.134270 -0.135067 -0.136054 -0.137232 -0.138602 -0.140162 -0.141908 -0.143836 -0.145940 -0.148214 -0.150649 -0.153238 -0.155972 -0.158841 -0.161836 -0.164945 -0.168160 -0.171469 -0.174861 -0.178327 -0.181856 -0.185437 -0.189062 -0.192719 -0.196401 -0.200097 -0.203800 -0.207500 -0.211191 -0.214865 -0.218515 -0.222134 -0.225714 -0.229248 -0.232726 -0.236136 -0.239468 -0.242706 -0.245837 -0.248844 -0.251706 -0.254409 -0.256933 -0.259260 -0.261372 -0.263249 -0.264876 -0.266236 -0.267315 -0.268103 -0.268592 -0.268777 -0.268658 -0.268237 -0.267523 -0.266526 -0.265262 -0.263749 -0.262008 -0.260062 -0.257935 -0.255655 -0.253250 -0.250748 -0.248177 -0.245567 -0.242944 -0.240335 -0.237767 -0.235262 -0.232844 -0.230532 -0.228346 -0.226303 -0.224415 -0.222697 -0.221159 -0.219808 -0.218652 -0.217694 -0.216938 -0.216385 -0.216035 -0.215884 -0.215931 -0.216171 -0.216598 -0.217205 -0.217987 -0.218934 -0.220039 -0.221292 -0.222685 -0.224206 -0.225848 -0.227600 -0.229452 -0.231394 -0.233418 -0.235513 -0.237670 -0.239880 -0.242135 -0.244426 -0.246746 -0.249086 -0.251440 -0.253801 -0.256161 -0.258513 -0.260848 -0.263157 -0.265428 -0.267648 -0.269803 -0.271877 -0.273854 -0.275714 -0.277439 -0.279011 -0.280410 -0.281618 -0.282617 -0.283388 -0.283917 -0.284188 -0.284192 -0.283921 -0.283369 -0.282538 -0.281430 -0.280052 -0.278418 -0.276541 -0.274442 -0.272138 -0.269654 -0.267014 -0.264246 -0.261376 -0.258433 -0.255444 -0.252438 -0.249441 -0.246480 -0.243578 -0.240760 -0.238047 -0.235458 -0.233011 -0.230723 -0.228606 -0.226672 -0.224931 -0.223391 -0.222057 -0.220932 -0.220019 -0.219319 -0.218829 -0.218548 -0.218473 -0.218596 -0.218914 -0.219419 -0.220103 -0.220957 -0.221974 -0.223144 -0.224457 -0.225903 -0.227473 -0.229155 -0.230942 -0.232821 -0.234784 -0.236820 -0.238922 -0.241078 -0.243281 -0.245523 -0.247795 -0.250089 -0.252398 -0.254716 -0.257034 -0.259346 -0.261641 -0.263909 -0.266140 -0.268319 -0.270432 -0.272463 -0.274394 -0.276207 -0.277882 -0.279403 -0.280748 -0.281899 -0.282839 -0.283549 