3.326931 3.326931 3.326931 3.326931 3.326931 3.326931 3.326931 3.326931 2.895973 2.895249 2.894525 2.975041 2.974297 2.973553 2.974324 2.973580 2.972848 2.972105 2.971362 2.970619 2.969876 2.969134 2.968391 2.967649 2.966907 2.966165 2.965424 2.964682 2.963941 2.964457 2.963734 2.963025 2.962284 2.961544 2.963558 2.962817 2.962076 2.961336 2.960624 2.959905 2.959203 2.958463 2.957724 2.957130 2.956522 2.955783 2.955044 2.954502 2.953890 2.953203 2.953141 2.952839 2.952106 2.951369 2.955455 2.954760 2.954164 2.953425 2.952692 2.955380 2.954758 2.962955 2.962215 2.961639 2.960900 2.960159 2.959419 2.958801 2.958636 2.957896 2.964659 2.967670 2.966931 2.968744 2.969042 2.968305 2.967602 2.966860 2.966119 2.969268 2.970482 2.969745 2.969019 2.968284 2.970095 2.969352 2.968609 2.967877 2.968003 2.968142 2.968063 2.967325 2.966608 2.965867 2.965284 2.964543 2.963802 2.970140 2.969478 2.969477 2.969619 2.969414 2.968672 2.969137 2.969463 2.970259 2.970038 2.969627 2.968950 2.968231 2.968212 2.967528 2.967006 2.966310 2.965687 2.964949 2.964235 2.963695 2.964734 2.963996 2.963824 2.966767 2.966029 2.966147 2.965593 2.965080 2.964348 2.963607 2.962866 2.962962 2.962221 2.968369 2.967627 2.966899 2.966252 2.965838 2.965548 2.967744 2.967862 2.967482 2.968576 2.967840 2.967148 2.967236 2.966674 2.966045 2.965438 2.965530 2.964790 2.965072 2.964352 2.963616 2.962893 2.962309 2.962014 2.961274 2.960659 2.960128 2.959399 2.958793 2.958168 2.957606 2.956868 2.956129 2.955594 2.955069 2.954445 2.953794 2.953661 2.952938 2.952906 2.953107 2.952501 2.951806 2.953151 2.952570 2.952255 2.953938 2.957395 2.956822 2.956102 2.955518 2.954779 2.954262 2.953969 2.953695 2.955006 2.955695 2.955245 2.959101 2.958465 2.958147 2.957439 2.957805 2.957675 2.957200 2.956547 2.958961 2.958646 2.959670 2.959308 2.959206 2.958837 2.958162 2.961028 2.960582 2.959875 2.959277 2.958562 2.958065 2.957526 2.960303 2.959820 2.959134 2.959262 2.959191 2.958554 2.957815 2.957536 2.959026 2.958395 2.958647 2.959172 2.958723 2.958038 2.957632 2.957181 2.957459 2.956725 2.956018 2.955296 2.954958 2.954298 2.953569 2.953038 2.952911 2.952300 2.952887 2.954189 2.953450 2.952840 2.952103 2.951606 2.951197 2.950654 2.950840 2.950108 2.949371 2.948645 2.947989 2.948443 2.947740 2.948918 2.948217 2.948753 2.948952 2.948296 2.947932 2.948631 2.948870 2.949244 2.948911 2.948177 2.947441 2.946731 2.947534 2.946979 2.946743 2.946711 2.950043 2.950205 2.949486 2.949642 2.949295 2.948997 2.949152 2.948602 2.947971 2.948017 2.947516 2.948095 2.949929 2.949750 2.949115 2.950429 2.954769 2.954864 2.955511 2.955242 2.954514 2.955227 2.955456 2.954988 2.954252 2.953555 2.952980 2.952868 2.952228 2.952198 2.951957 2.951418 2.950793 2.951618 2.950914 2.950578 2.949847 2.949231 2.948535 2.947893 2.948760 2.948550 2.949157 2.948721 2.948011 2.947942 2.947780 2.949041 2.948501 2.948150 2.947601 2.947129 2.946598 2.946080 2.945536 2.945056 2.945280 2.944903 2.946444 2.947269 2.948179 2.947782 2.947517 2.947082 2.946984 2.946920 2.946325 2.945779 2.946225 2.945600 2.945519 2.944818 2.944715 2.943984 2.943894 2.944353 2.943708 2.943091 2.942948 2.943610 2.943027 2.943458 2.943251 2.943006 2.944692 2.944301 2.945303 2.944617 2.943921 2.943595 2.942881 2.943921 2.943470 2.943191 2.942687 2.942028 2.941326 2.941081 2.941469 2.941055 2.942103 2.942676 2.942361 2.942632 2.942414 2.944687 2.944325 2.943642 2.943218 2.942894 2.942892 2.943223 2.943311 2.943682 2.943046 2.942855 2.942270 2.941961 2.941359 2.941565 2.941091 2.942278 2.941938 2.941690 2.941767 2.941066 2.940426 2.940528 2.939938 2.939824 2.940540 2.939913 2.939728 2.940080 2.939535 2.939969 2.940750 2.940111 2.939461 2.940195 2.939573 2.939662 2.941134 2.943405 2.942675 2.942587 2.942033 2.942507 2.942279 2.941689 2.943178 2.942683 2.942326 2.941773 2.941346 2.940774 2.940406 2.940426 2.939859 2.939530 2.938914 2.939712 2.941249 2.940589 2.940384 2.942035 2.943406 2.943062 2.942369 2.942468 2.942400 2.941944 2.942086 2.943115 2.945369 2.944892 2.944372 2.944840 2.944933 2.944365 2.943773 2.944733 2.944412 2.944672 2.945503 2.945620 2.946419 2.946783 2.946059 2.946518 2.946303 2.945812 2.945689 2.945103 2.945400 2.945581 2.946209 2.945820 2.945322 2.944741 2.944694 2.946296 2.946753 2.946174 2.945650 2.946578 2.946590 2.946600 2.946538 2.946276 2.946339 2.945884 2.946490 2.946978 2.947347 2.947643 2.947121 2.946908 2.946711 2.946480 2.946008 2.946398 2.946069 2.946604 2.947849 2.947251 2.947977 2.947342 2.947386 2.946961 2.946522 2.946866 2.946322 2.945800 2.945400 2.945047 2.944942 2.944263 2.944650 2.944050 2.943668 2.943642 2.943194 2.942507 2.942581 2.942529 2.942381 2.942189 2.941719 2.941733 2.942942 2.943140 2.942702 2.942685 2.942078 2.944047 2.943398 2.943454 2.944017 2.944339 2.944360 2.944176 2.944487 2.944532 2.944245 2.945767 2.945865 2.948279 2.948617 2.948702 2.948172 2.949198 2.948616 2.947927 2.947915 2.947926 2.947374 2.947260 2.948255 2.948185 2.950243 2.949782 2.949321 2.948690 2.948286 2.948582 2.948650 2.948146 2.947863 2.947691 2.947306 2.947634 2.947124 2.946491 2.946697 2.946522 2.946019 2.945622 2.945686 2.946148 2.947044 2.946545 2.947037 2.946390 2.945847 2.945168 2.946333 2.946511 2.946307 2.945763 2.946100 2.947332 2.946633 2.947375 2.946771 2.946325 2.946048 2.947390 2.946787 2.946648 2.946353 2.946292 2.945666 2.945679 2.945039 2.944637 2.944601 2.944033 2.943476 2.943168 2.943732 2.943249 2.942750 2.942425 2.942120 2.941822 2.941094 2.940676 2.941160 2.941093 2.940473 2.939938 2.939270 2.939952 2.940320 2.940135 2.939885 2.939970 2.939414 2.938791 2.938433 2.937931 2.937359 2.937637 2.937496 2.937785 2.937315 2.937293 2.937391 2.937105 2.936733 2.937222 2.938459 2.938947 2.938315 2.937686 2.937910 2.937263 2.936592 2.936290 2.936397 2.935956 2.935691 2.935161 2.935276 2.935143 2.934947 2.934811 2.934365 2.935282 2.934825 2.934245 2.934521 2.934134 2.933560 2.933232 2.933774 2.933387 2.934581 2.933920 2.933836 2.934230 2.933890 2.934020 2.933346 2.933487 2.933150 2.934313 2.934714 2.934478 2.933786 2.933767 2.933982 2.935391 2.935220 2.934629 2.934931 2.934505 2.933997 2.933773 2.933560 2.932919 2.932725 2.932853 2.932406 2.932237 2.934468 2.933861 2.933350 2.933304 2.932753 2.932574 2.932555 2.932603 2.932167 2.932003 2.931432 2.930731 2.932234 2.932140 2.931926 2.931450 2.930748 2.930135 2.930183 2.929529 2.929029 2.931033 2.930909 2.930447 2.929912 2.929568 2.928970 2.929195 2.929198 2.928574 2.929407 2.929975 2.929782 2.930457 2.929798 2.929454 2.929435 2.930521 2.929951 2.929282 2.929944 2.930095 2.930760 2.930445 2.934739 2.934466 2.934049 2.933496 2.933543 2.933227 2.933194 2.935021 2.934870 2.934261 2.935372 2.934963 2.934388 2.934296 2.934712 2.935170 2.934604 2.934111 2.934557 2.934439 2.934571 2.935000 2.936581 2.936137 2.935685 2.935119 2.934465 2.933776 2.933829 2.933881 2.933912 2.933578 2.933316 2.932755 2.934327 2.933994 2.934480 2.934583 2.934834 2.934822 2.935803 2.935282 2.935710 2.936387 2.936422 2.936068 2.936254 2.936058 2.935889 2.935422 2.936387 2.935835 2.936754 2.936175 2.935461 2.935116 2.934571 2.934218 2.933812 2.934007 2.934225 2.934215 2.934535 2.934659 2.935409 2.935199 2.935675 2.935481 2.934854 2.934410 2.934431 2.934111 2.933975 2.933488 2.934095 2.933804 2.933404 2.933010 2.933628 2.933305 2.932846 2.932219 2.931590 2.931559 2.931401 2.930943 2.930255 2.929578 2.929536 2.929189 2.929070 2.929157 2.928676 2.928566 2.928131 2.927528 2.927796 2.927205 2.926800 2.926329 2.927952 2.928016 2.928096 2.928420 2.928349 2.927911 2.927525 2.926929 2.927098 2.926447 2.927623 2.926996 2.927453 2.927634 2.926974 2.926808 2.926427 2.926473 2.926001 2.925513 2.924873 2.924861 2.925086 2.925542 2.924821 2.924428 2.924170 2.923735 2.923660 2.923078 2.923065 2.922796 2.922347 2.922731 2.922463 2.922288 2.922101 2.922184 2.922114 2.921775 2.921417 2.920747 2.921310 2.920748 2.920610 2.920669 2.920379 2.920304 2.920229 2.920121 2.920170 2.920307 2.920212 2.919899 2.919653 2.920036 2.920490 2.920754 2.922207 2.922145 2.921591 2.920896 2.921866 2.921414 2.921488 2.921183 2.921004 2.921879 2.921347 2.921913 2.922205 2.921886 2.921811 2.921240 2.922132 2.922836 2.922760 2.922281 2.921873 2.922181 2.923434 2.922818 2.922932 2.922803 2.922850 2.922521 2.921976 2.922617 2.922426 2.923653 2.923867 2.923339 2.922802 2.922471 2.923353 2.924180 2.923948 2.923836 2.923879 2.923898 2.923443 2.923241 2.923004 2.923553 2.923156 2.923622 2.924371 2.924536 2.925128 2.925782 2.926532 2.926897 2.926872 2.926492 2.926202 2.926124 2.925641 2.926753 2.927365 2.928343 2.928076 2.927565 2.927068 2.926401 2.925711 2.925105 2.925334 2.926588 2.927411 2.927753 2.927762 2.927216 2.926905 2.926375 2.925841 2.926771 2.926437 2.926013 2.925794 2.925242 2.926193 2.925549 2.925082 2.924748 2.924987 2.925445 2.924811 2.925641 2.925679 2.925214 2.924636 2.924108 2.924108 2.924000 2.923803 2.924242 2.924007 2.923665 2.923277 2.923317 2.923210 2.922974 2.923504 2.923174 2.923072 2.923803 2.923670 2.923154 2.922625 2.922731 2.922562 2.922374 2.923308 2.922663 2.922400 2.921877 2.921865 2.921629 2.922341 2.921818 2.921987 2.922242 2.921553 2.921358 2.921202 2.920688 2.921440 2.921320 2.921045 2.921995 2.921843 2.921223 2.920860 2.920800 2.920508 2.920749 2.920465 2.920998 2.920606 2.921091 2.920984 2.921788 2.922901 2.923082 2.923039 2.922767 2.922839 2.923393 2.923445 2.923050 2.922439 2.922249 2.922492 2.922085 2.922189 2.921752 2.921254 2.920885 2.920420 2.919866 2.921321 2.921068 2.921573 2.921606 2.921517 2.921111 2.920786 2.920846 2.920472 2.920185 2.920204 2.920396 2.919989 2.919343 2.919273 2.918839 2.918241 2.917799 2.917580 2.918234 2.917767 2.918135 2.918345 2.918149 2.917709 2.917140 2.916459 2.916486 2.916708 2.916528 2.917061 2.916565 2.916848 2.917434 2.916889 2.917055 2.916438 2.916316 2.916511 2.917023 2.916968 2.917635 2.917178 2.917476 2.916900 2.916277 2.915796 2.915240 2.914887 2.914473 2.913943 2.914188 2.914117 2.913663 2.913689 2.914052 2.913553 2.912957 2.913090 2.913610 2.913647 2.913196 2.913083 2.913585 2.913545 2.913190 2.912573 2.912327 2.912057 2.912113 2.911738 2.911663 2.911516 2.911552 2.911432 2.911038 2.911143 2.912014 2.911698 2.911841 2.911675 2.911259 2.912205 2.911826 2.911747 2.911518 2.911164 2.910846 2.910424 2.909954 2.909431 2.908894 2.908589 2.908133 2.908466 2.908452 2.907949 2.907710 2.907957 2.907425 2.907205 2.906689 2.906719 2.906447 2.906470 2.906651 2.906694 2.906889 2.907015 2.906655 2.906661 2.906449 2.906402 2.906568 2.906237 2.906904 2.906682 2.906113 2.906328 2.906243 2.906597 2.906407 2.905936 2.906273 2.905627 2.905534 2.905087 2.904792 2.905333 2.905802 2.905176 2.904949 2.905176 2.905340 2.905156 2.904976 2.905095 2.905543 2.905060 2.906293 2.906172 2.907415 2.907335 2.906712 2.906249 2.906004 2.905477 2.905039 2.905065 2.904849 2.904894 2.904447 2.904044 2.904001 2.903662 2.903572 2.903831 2.904142 2.904720 2.904108 2.904338 2.904345 2.904038 2.903789 2.903113 2.903413 2.904319 2.903913 2.903945 2.903526 2.903156 2.902714 2.902195 2.902505 2.902512 2.902229 2.902081 2.902120 2.903006 2.903501 2.902948 2.903829 2.903346 2.903663 2.903215 2.902995 2.903097 2.902525 2.902188 2.902561 2.902091 2.901518 2.901563 2.901593 2.901398 2.901301 2.901148 2.900820 2.901532 2.901940 2.902308 2.901863 2.902137 2.902197 2.901810 2.901858 2.901376 2.901072 2.901665 2.901621 2.901183 2.901754 2.901414 2.901799 2.901464 2.901810 2.901540 2.901522 2.900988 2.900525 2.900198 2.900381 2.900793 2.900498 2.900391 2.900560 2.900187 2.899773 2.899362 2.898862 2.898469 2.899017 2.899351 2.899748 2.899765 2.899966 2.899456 2.898926 2.898710 2.898369 2.898005 2.898068 2.898762 2.898945 2.899034 2.898660 2.899861 2.899727 2.899638 2.899334 2.898955 2.898930 2.898612 2.898414 2.898294 2.898107 2.898701 2.898202 2.898044 2.898198 2.897828 2.897610 2.897419 2.897481 2.897798 2.897351 2.897081 2.897169 2.896983 2.896570 2.896664 2.897520 2.898034 2.897366 2.897310 2.897320 2.897305 2.896675 2.896391 2.896784 2.897116 2.896883 2.896637 2.896458 2.896401 2.896320 2.896072 2.895596 2.895919 2.896935 2.897961 2.900004 2.899605 2.899544 2.900082 2.901657 2.901064 2.900627 2.900853 2.900575 2.900551 2.900315 2.900263 2.901125 2.900950 2.900361 2.899834 2.899951 2.901511 2.901614 2.901079 2.900668 2.900122 2.900439 2.899893 2.899707 2.899931 2.899472 2.900030 2.900386 2.900119 2.899905 2.900198 2.899964 2.899622 2.899211 2.898759 2.898646 2.898369 2.898144 2.898610 2.899166 2.899005 2.899942 2.899437 2.898955 2.898855 2.899515 2.899535 2.899183 2.899257 2.899269 2.899013 2.898701 2.898488 2.898214 2.898168 2.898286 2.898031 2.898333 2.897949 2.898752 2.898452 2.898289 2.897959 2.897621 2.897131 2.897640 2.897185 2.896751 2.896235 2.896256 2.895717 2.895252 2.895440 2.895579 2.894986 2.895782 2.896068 2.896072 2.896312 2.896176 2.896849 2.897084 2.896419 2.896273 2.895790 2.895566 2.897132 2.896656 2.896581 2.896607 2.896425 2.895989 2.895956 2.895691 2.895452 2.895797 2.896619 2.897019 2.897192 2.897552 2.898429 2.898299 2.897919 2.898678 2.898548 2.899575 2.899625 2.899320 2.899180 2.898672 2.898769 2.898527 2.898269 2.898585 2.898397 2.898201 2.897795 2.897896 2.897600 2.897562 2.897889 2.897373 2.897754 2.897138 2.896803 2.896162 2.895591 2.895266 2.894678 2.894307 2.894760 2.894725 2.895463 2.895113 2.895496 2.895834 2.895833 2.895601 2.895817 2.895805 2.895522 2.895922 2.895852 2.895569 2.895600 2.895841 2.895268 2.895313 2.894995 2.895010 2.894822 2.895067 2.895743 2.895576 2.895293 2.894843 2.894977 2.895037 2.894475 2.894074 2.894739 2.894481 2.894108 2.893723 2.893384 2.893081 2.892554 2.893159 2.893543 2.893405 2.893714 2.893417 2.893582 2.893522 2.893631 2.893206 2.894409 2.894308 2.894567 2.894197 2.894842 2.894336 2.894330 2.894520 2.894201 2.894665 2.894902 2.894462 2.894162 2.894236 2.894458 2.894306 2.894462 2.893786 2.893295 2.893440 2.893258 2.893105 2.893134 2.892760 2.892422 2.892094 2.892125 2.892778 2.892726 2.892290 2.892333 2.892539 2.892022 2.892028 2.891734 2.892041 2.892089 2.893037 2.892793 2.892839 2.892690 2.892137 2.892545 2.892253 2.891901 2.891986 2.891769 2.891182 2.890984 2.891318 2.890879 2.891987 2.891832 2.891386 2.893080 2.893421 2.893391 2.894605 2.894554 2.894616 2.894742 2.894898 2.894672 2.894160 2.893562 2.893793 2.894607 2.894715 2.894422 2.894107 2.894122 2.893820 2.894096 2.894792 2.895150 2.895194 2.894959 2.894549 2.894483 2.894231 2.894213 2.893740 2.894019 2.893520 2.893412 2.893847 2.893553 2.894796 2.894630 2.894031 2.894272 2.894321 2.894362 2.894150 2.893872 2.894215 2.895559 2.895350 2.895062 2.897605 2.898721 2.899521 2.900162 2.899960 2.899543 2.899206 2.900027 2.899470 2.898900 2.899746 2.899365 2.899114 2.901534 2.901497 2.901085 2.901218 2.900945 2.900544 2.900755 2.900139 2.899875 2.899527 2.899843 2.900457 2.900346 2.900161 2.899867 2.899756 2.899424 2.898966 2.898857 2.898522 2.898483 2.898453 2.898063 2.898257 2.897826 2.897527 2.897572 2.897924 2.897736 2.897725 2.897837 2.897664 2.897468 2.898042 2.897679 2.898596 2.898597 2.898497 2.898729 2.899454 2.898872 2.898633 2.899063 2.898727 2.898672 2.898076 2.897832 2.898220 2.898528 2.898506 2.898390 2.898190 2.897913 2.897415 2.896880 2.897009 2.897268 2.896618 2.896893 2.896699 2.896775 2.896398 2.896830 2.896301 2.896735 2.896699 2.898166 2.897928 2.897682 2.897334 2.897187 2.896854 2.896362 2.896512 2.896426 2.896414 2.896257 2.895743 2.895703 2.895227 2.895140 2.894570 2.894266 2.894281 2.894081 2.895229 2.896081 2.896185 2.895907 2.895612 2.895281 2.896284 2.896295 2.896317 2.895692 2.895286 2.895027 2.894789 2.894352 2.894229 2.895158 2.894678 2.894696 2.894383 2.894359 2.895308 2.894847 2.895092 2.895032 2.894722 2.894605 2.894344 2.894327 2.894172 2.895091 2.895471 2.894981 2.895761 2.895182 2.895056 2.897042 2.896497 2.897082 2.896853 2.896426 2.896609 2.896107 2.895535 2.895189 2.894805 2.894833 2.895091 2.895598 2.896509 2.896038 2.895661 2.896610 2.896093 2.897548 2.897477 2.897270 2.897680 2.898342 2.898946 2.898698 2.898275 2.898521 2.899739 2.900547 2.900340 2.900493 2.900393 2.900893 2.901344 2.901385 2.900867 2.901187 2.901095 2.901667 2.901182 2.901472 2.901623 2.901833 2.901385 2.901323 2.901070 2.900873 2.901010 2.901070 2.901105 2.900856 2.900665 2.900587 2.900027 2.899753 2.899687 2.899808 2.899347 2.898877 2.898855 2.898880 2.899280 2.899328 2.899200 2.898584 2.898624 2.899294 2.899047 2.898979 2.899428 2.899296 2.899377 2.898930 2.899209 2.898759 2.898644 2.898626 2.898508 2.899474 2.899787 2.899811 2.900196 2.901590 2.901538 2.900920 2.900938 2.901143 2.901479 2.901378 2.901164 2.900768 2.900457 2.900022 2.900356 2.900413 2.900561 2.900148 2.900128 2.900283 2.899809 2.899743 2.899835 2.899435 2.898913 2.898587 2.898532 2.898344 2.898123 2.897940 2.897887 2.897857 2.898267 2.898389 2.899482 2.899993 2.899667 2.899420 2.900012 2.899696 2.899637 2.899832 2.899541 2.899185 2.898754 2.899555 2.899455 2.899429 2.899855 2.900911 2.900707 2.900416 2.899995 2.900218 2.900125 2.899958 2.900210 2.900039 2.900332 2.900605 2.900778 2.900681 2.900380 2.900249 2.899879 2.899335 2.899659 2.899277 2.898944 2.898701 2.898786 2.899386 2.899587 2.899755 2.899506 2.899527 2.899786 2.899626 2.899082 2.898988 2.898666 2.898699 2.898571 2.899500 2.899211 2.898805 2.898820 2.898740 2.898819 2.898980 2.899437 2.899277 2.899106 2.899107 2.899033 2.899670 2.899389 2.899661 2.900486 2.900199 2.900486 2.901111 2.900858 2.901030 2.900900 2.901504 2.900990 2.900621 2.900486 2.900491 2.900063 2.900582 2.900984 2.901144 2.901046 2.900728 2.900325 2.900337 2.900092 2.900615 2.900256 2.900970 2.900821 2.900736 2.901015 2.900907 2.900555 2.900882 2.900679 2.901049 2.901282 2.900875 2.900820 2.900685 2.900869 2.900994 2.901122 2.901241 2.900803 2.900762 2.901160 2.901067 2.900523 2.900407 2.900078 2.899924 2.899520 2.899078 2.898780 2.898645 2.898919 2.898396 2.897952 2.898136 2.897983 2.897550 2.897020 2.896638 2.896657 2.896318 2.896330 2.896422 2.896530 2.896776 2.896920 2.896302 2.895904 2.895801 2.896418 2.896338 2.896236 2.895869 2.895675 2.895139 2.895039 2.895851 2.896042 2.895736 2.895224 2.894955 2.895696 2.895329 2.894872 2.895774 2.895224 2.894887 2.895211 2.895167 2.894659 2.894947 2.894549 2.894360 2.894378 2.894098 2.894177 2.894490 2.894853 2.894662 2.894695 2.894855 2.894291 2.894872 2.894754 2.895054 2.895122 2.894638 2.895070 2.894391 2.894229 2.893782 2.893490 2.893366 2.893348 2.893282 2.893568 2.893838 2.893376 2.893234 2.894709 2.894495 2.894555 2.894402 2.893887 2.894040 2.893466 2.895087 2.895192 2.895898 2.897043 2.897537 2.897785 2.897452 2.897399 2.897526 2.897954 2.898512 2.898684 2.898981 2.899421 2.899586 2.899600 2.899366 2.899107 2.899572 2.900201 2.899855 2.900316 2.900311 2.900420 2.900212 2.900019 2.899759 2.899754 2.899476 2.899270 2.899470 2.899251 2.899638 2.899661 2.899412 2.899036 2.899158 2.899966 2.899580 2.899648 2.900402 2.900693 2.900730 2.902321 2.902840 2.903494 2.904652 2.904456 2.904821 2.904451 2.904910 2.906261 2.906364 2.907028 2.906927 2.906644 2.906755 2.906555 2.906141 2.905708 2.906001 2.905664 2.905463 2.905051 2.905231 2.905299 2.905300 2.905059 2.904654 2.905170 2.904833 2.905093 2.904702 2.904483 2.904851 2.904781 2.904568 2.904623 2.904306 2.904273 2.903907 2.903469 2.903712 2.903567 2.903164 2.903549 2.903744 2.903334 2.903444 2.903792 2.903573 2.903425 2.903910 2.903773 2.904777 2.904457 2.904949 2.904941 2.905792 2.905640 2.905226 2.904933 2.904449 2.903976 2.904364 2.904476 2.904860 2.905230 2.904811 2.904767 2.904806 2.904459 2.904610 2.905185 2.905496 2.905166 2.904739 2.904576 2.904237 2.904049 2.903945 2.905336 2.905917 2.905922 2.906436 2.906365 2.905846 2.906041 2.905725 2.905553 2.905881 2.906197 2.905993 2.906614 2.906117 2.905964 2.906433 2.906147 2.905491 2.905134 2.904780 2.904656 2.904231 2.904344 2.904077 2.903950 2.903823 2.904629 2.904405 2.903958 2.903863 2.903819 2.903598 2.903282 2.903244 2.902647 2.903862 2.903518 2.903930 2.903763 2.904011 2.903611 2.903035 2.902980 2.902646 2.902413 2.902656 2.902505 2.902184 2.901839 2.901186 2.900993 2.901225 2.901384 2.901596 2.901746 2.902111 2.901616 2.901210 2.900775 2.900491 2.900201 2.900677 2.901050 2.900963 2.900476 2.900045 2.899856 2.899692 2.900030 2.900714 2.900385 2.900082 2.899481 2.899843 2.899738 2.899372 2.898852 2.898676 2.898590 2.898480 2.898566 2.899095 2.899505 2.899334 2.899102 2.899272 2.899704 2.900303 2.900318 2.900164 2.900988 2.900505 2.900443 2.900310 2.900364 2.900656 2.900508 2.900415 2.899897 2.900002 2.900462 2.901150 2.900742 2.900230 2.899959 2.900561 2.900159 2.899832 2.899786 2.900091 2.899724 2.899903 2.899822 2.899909 2.899645 2.899895 2.900116 2.900053 2.900657 2.901034 2.900723 2.900669 2.900158 2.899710 2.899953 2.899981 2.899704 2.900063 2.899554 2.899874 2.901004 2.901104 2.900723 2.900586 2.900431 2.900552 2.900168 2.899803 2.899608 2.899477 2.899722 2.900660 2.901517 2.901198 2.901081 2.901553 2.901396 2.901572 2.901352 2.901099 2.900522 2.900167 2.899717 2.899454 2.899811 2.899427 2.899637 2.899957 2.899854 2.899789 2.899809 2.899805 2.899760 2.899506 2.899960 2.900441 2.900769 2.900546 2.900535 2.900876 2.900711 2.900390 2.900222 2.899952 2.899728 2.899462 2.900666 2.900578 2.900267 2.900188 2.899944 2.900258 2.900247 2.899936 2.899912 2.899695 2.899958 2.899290 2.899504 2.899833 2.899433 2.899663 2.899565 2.899483 2.899913 2.900133 2.899865 2.899967 2.899773 2.899881 2.900626 2.900612 2.900688 2.900191 2.899802 2.900259 2.900418 2.900620 2.900719 2.900831 2.900712 2.900225 2.899747 2.899678 2.900483 2.900146 2.900816 2.900361 2.900487 2.900491 2.900109 2.900340 2.900917 2.900809 2.900520 2.900841 2.900538 2.900708 2.900188 2.900798 2.900371 2.900268 2.899920 2.900203 2.900283 2.900802 2.900986 2.900849 2.900783 2.900537 2.900721 2.901629 2.901083 2.900813 2.900467 2.900460 2.901105 2.900665 2.900563 2.900342 2.900272 2.900093 2.899995 2.900178 2.899997 2.899669 2.899546 2.899357 2.899316 2.899372 2.899394 2.899195 2.899023 2.899157 2.899193 2.898829 2.898604 2.898377 2.898234 2.898755 2.899582 2.899763 2.899761 2.899706 2.899157 2.898922 2.899267 2.899307 2.898888 2.899168 2.898990 2.899527 2.899047 2.899094 2.898530 2.898544 2.898955 2.899028 2.899358 2.899520 2.899252 2.899382 2.899710 2.899606 2.899831 2.899399 2.899202 2.899127 2.898746 2.898277 2.897901 2.898949 2.898432 2.898083 2.897647 2.897407 2.897610 2.897829 2.898467 2.898047 2.897772 2.897214 2.897437 2.897071 2.897232 2.897541 2.897697 2.897573 2.897951 2.897619 2.898719 2.898247 2.898990 2.899032 2.898529 2.897949 2.897969 2.897768 2.897561 2.898042 2.898015 2.898034 2.897557 2.897305 2.896833 2.897174 2.896939 2.896539 2.896725 2.896438 2.896221 2.896382 2.896054 2.896145 2.896033 2.896009 2.895436 2.895974 2.895803 2.895859 2.895740 2.895188 2.895299 2.894868 2.895498 2.895563 2.895453 2.895753 2.896032 2.895805 2.895863 2.895694 2.895640 2.895280 2.895776 2.895948 2.895434 2.895381 2.895221 2.895579 2.895163 2.894928 2.895825 2.895548 2.896280 2.895823 2.895902 2.895907 2.895495 2.895574 2.895066 2.895090 2.895127 2.894865 2.894827 2.895371 2.895211 2.894946 2.895557 2.895251 2.894986 2.894444 2.894234 2.894184 2.893697 2.894065 2.893761 2.893462 2.893148 2.893283 2.892993 2.892580 2.892380 2.892344 2.892447 2.892393 2.892355 2.891801 2.891755 2.891474 2.891063 2.890423 2.890473 2.890331 2.890253 2.890135 2.889819 2.889878 2.889306 2.889003 2.888692 2.888256 2.888870 2.888766 2.888281 2.887989 2.887986 2.887805 2.887752 2.887438 2.887225 2.887348 2.887633 2.887709 2.887311 2.887094 2.887123 2.886838 2.886817 2.887416 2.886888 2.886988 2.887607 2.887330 2.887802 2.887855 2.888113 2.887990 2.888376 2.888886 2.888744 2.888781 2.889342 2.889120 2.889156 2.889013 2.889358 2.888905 2.888591 2.888506 2.888883 2.889461 2.889172 2.888828 2.888726 2.889018 2.888781 2.888641 2.888260 2.888362 2.888080 2.887830 2.887535 2.887630 2.887269 2.886893 2.886602 2.886899 2.886894 2.886852 2.886978 2.886328 2.886417 2.886139 2.886019 2.886359 2.886058 2.885816 2.885780 2.885290 2.884890 2.885048 2.884680 2.884753 2.885642 2.886219 2.885691 2.885319 2.885587 2.885389 2.885420 2.885240 2.884904 2.885326 2.886104 2.886399 2.886542 2.887562 2.886945 2.886703 2.886681 2.886796 2.887149 2.886889 2.887057 2.887417 2.886958 2.887309 2.887824 2.887681 2.887600 2.888068 2.888187 2.888232 2.887634 2.887560 2.887182 2.886776 2.886394 2.886125 2.886216 2.887698 2.888067 2.888619 2.888575 2.888170 2.887709 2.887768 2.887481 2.887152 2.887122 2.887091 2.887391 2.887685 2.888490 2.888378 2.888735 2.888605 2.888257 2.887812 2.887511 2.887264 2.887923 2.887473 2.888431 2.888436 2.888838 2.888685 2.888646 2.888431 2.888186 2.887922 2.887622 2.887259 2.886745 2.886896 2.886812 2.887225 2.886586 2.886067 2.886401 2.886143 2.886129 2.887473 2.887624 2.887413 2.887306 2.887082 2.886817 2.886574 2.886832 2.886457 2.886415 2.886966 2.886623 2.886652 2.886586 2.886954 2.887437 2.887247 2.887331 2.887026 2.887052 2.887717 2.887788 2.888296 2.888053 2.887743 2.887671 2.888672 2.888379 2.888372 2.887727 2.887290 2.887068 2.886638 2.886216 2.885804 2.886414 2.885950 2.885551 2.885427 2.885242 2.885442 2.885858 2.885668 2.885711 2.885723 2.885608 2.885692 2.885584 2.885454 2.885027 2.884629 2.884404 2.884270 2.884016 2.884062 2.883566 2.883496 2.883648 2.883865 2.883722 2.884034 2.884476 2.885124 2.885188 2.885257 2.884789 2.884541 2.884831 2.884527 2.885115 2.884731 2.884958 2.884416 2.884758 2.884602 2.884065 2.883896 2.883806 2.883814 2.884046 2.883755 2.883370 2.883243 2.883319 2.883063 2.884317 2.884122 2.884930 2.884548 2.884399 2.884157 2.884418 2.883898 2.884010 2.884039 2.883659 2.883209 2.883622 2.883562 2.884261 2.884377 2.884538 2.884488 2.884382 2.884334 2.883986 2.883530 2.883493 2.882997 2.883002 2.882992 2.883711 2.883361 2.883485 2.883529 2.883339 2.884718 2.884376 2.884205 2.884002 2.883877 2.883655 2.883700 2.883834 2.883425 2.883433 2.883593 2.883476 2.883311 2.883311 2.883548 2.883320 2.883207 2.883275 2.882842 2.882669 2.882673 2.882656 2.882663 2.882708 2.882438 2.882186 2.882218 2.882626 2.882366 2.882280 2.882448 2.882107 2.881999 2.881945 2.882082 2.882613 2.882476 2.882710 2.882704 2.882766 2.882492 2.882320 2.881939 2.881714 2.881549 2.881058 2.881302 2.881437 2.881745 2.881944 2.881818 2.881158 2.881221 2.881052 2.881045 2.881000 2.880618 2.880692 2.880601 2.881005 2.880902 2.880358 2.880265 2.881196 2.881059 2.880769 2.880348 2.880132 2.879644 2.879345 2.879385 2.879824 2.879191 2.879179 2.879315 2.878983 2.879742 2.879595 2.879654 2.879539 2.879661 2.879768 2.879987 2.879527 2.879247 2.878982 2.879364 2.880313 2.880256 2.879838 2.879994 2.879544 2.879772 2.879320 2.880730 2.880604 2.880462 2.881275 2.881518 2.881785 2.881728 2.882052 2.881566 2.881528 2.881602 2.881273 2.880959 2.881323 2.881494 2.881739 2.881521 2.881354 2.882065 2.881974 2.882155 2.881747 2.882260 2.882309 2.881758 2.881286 2.880945 2.880612 2.880450 2.880739 2.880398 2.879969 2.880095 2.880269 2.880102 2.879766 2.880086 2.880723 2.880849 2.881805 2.881816 2.881705 2.881261 2.880835 2.881092 2.880738 2.880647 2.881153 2.880996 2.880946 2.880553 2.880206 2.880682 2.880832 2.881327 2.880876 2.880929 2.880613 2.880379 2.879865 2.879673 2.879516 2.879917 2.879755 2.879986 2.880014 2.879975 2.879626 2.879911 2.879809 2.880059 2.879674 2.879490 2.879389 2.879398 2.879250 2.878949 2.879216 2.878878 2.878407 2.878570 2.878799 2.878347 2.878290 2.878869 2.878847 2.878558 2.878691 2.879346 2.879050 2.879784 2.879610 2.879800 2.879504 2.879371 2.879473 2.879733 2.879897 2.879875 2.879859 2.879887 2.879995 2.879736 2.879319 2.879195 2.879130 2.879357 2.879855 2.879509 2.879794 2.879971 2.880184 2.879945 2.880107 2.880568 2.881374 2.881167 2.880648 2.880827 2.880892 2.880606 2.880191 2.880341 2.880704 2.882046 2.881825 2.882017 2.881714 2.881434 2.880962 2.880922 2.881622 2.881585 2.881293 2.880941 2.881159 2.880866 2.880324 2.880520 2.880525 2.881115 2.880591 2.880050 2.879874 2.880283 2.879876 2.879627 2.879467 2.879482 2.880118 2.879793 2.880016 2.879877 2.880147 2.880068 2.880297 2.879776 2.879704 2.879645 2.880196 2.880270 2.879746 2.879986 2.879813 2.880077 2.880468 2.880234 2.879810 2.879484 2.879229 2.879246 2.879611 2.879556 2.879485 2.879176 2.879132 2.879211 2.879012 2.878823 2.879150 2.878995 2.879413 2.879027 2.878818 2.878366 2.878462 2.878105 2.878209 2.879746 2.879311 2.879510 2.880528 2.880822 2.881039 2.880909 2.881034 2.880563 2.879999 2.879739 2.879507 2.879418 2.879911 2.879981 2.880291 2.879966 2.880575 2.880293 2.880026 2.879601 2.879558 2.879085 2.878914 2.878935 2.878886 2.879164 2.879392 2.879380 2.879592 2.879331 2.879317 2.879072 2.878969 2.878566 2.879150 2.878965 2.878548 2.878233 2.877837 2.877601 2.877327 2.877367 2.877375 2.877141 2.876791 2.876673 2.876804 2.877072 2.876776 2.876837 2.876992 2.876787 2.877169 2.877345 2.877772 2.877243 2.877283 2.877131 2.877763 2.877780 2.877837 2.877526 2.877137 2.877003 2.876619 2.876321 2.876453 2.877266 2.877142 2.877660 2.877695 2.877601 2.877644 2.877638 2.877691 2.877763 2.878303 2.877990 2.878069 2.878000 2.878745 2.878543 2.878369 2.878025 2.878411 2.878003 2.877842 2.877617 2.877904 2.878830 2.878488 2.878844 2.878329 2.878025 2.878125 2.877902 2.877455 2.877612 2.877334 2.877745 2.877245 2.877390 2.877067 2.877597 2.877572 2.877632 2.878324 2.877908 2.877669 2.877655 2.877907 2.878172 2.878250 2.878558 2.878914 2.878370 2.878241 2.878086 2.878211 2.878514 2.878694 2.878218 2.878228 2.878257 2.877834 2.878042 2.877961 2.877819 2.877770 2.878157 2.878253 2.878628 2.878046 2.877708 2.877290 2.876839 2.876946 2.877117 2.876698 2.876604 2.876653 2.877068 2.877337 2.877154 2.877554 2.877568 2.877000 2.876764 2.876884 2.877224 2.876815 2.876619 2.876794 2.876682 2.876232 2.875857 2.876479 2.876307 2.876526 2.876068 2.876423 2.876316 2.876238 2.876344 2.876087 2.875879 2.875931 2.875716 2.875626 2.875657 2.876156 2.875606 2.875653 2.875199 2.875466 2.875215 2.875186 2.875295 2.875328 2.874888 2.874429 2.874171 2.873784 2.873408 2.873050 2.873135 2.873387 2.872945 2.873426 2.874035 2.874171 2.874304 2.874004 2.874091 2.873493 2.873968 2.874059 2.874061 2.874016 2.874031 2.874051 2.874114 2.873720 2.873814 2.875095 2.874875 2.874560 2.874450 2.874948 2.874710 2.874648 2.874717 2.875006 2.875180 2.876110 2.876477 2.876539 2.876720 2.876967 2.876760 2.876334 2.876195 2.876203 2.875776 2.875492 2.875653 2.875476 2.875559 2.875616 2.875615 2.876270 2.876432 2.876178 2.876206 2.876173 2.876398 2.876015 2.875677 2.875919 2.875607 2.875580 2.876224 2.876095 2.876272 2.876013 2.876003 2.875501 2.874991 2.875461 2.875168 2.874827 2.874497 2.874119 2.874339 2.873893 2.873977 2.873623 2.873694 2.873452 2.873788 2.873480 2.873075 2.873775 2.874268 2.873920 2.873495 2.873179 2.873190 2.873793 2.873777 2.874050 2.874475 2.874715 2.874928 2.875139 2.874955 2.874875 2.874378 2.874257 2.874371 2.874280 2.873688 2.873379 2.874082 2.873905 2.874298 2.874117 2.874201 2.874176 2.874063 2.873766 2.873579 2.873608 2.873135 2.872869 2.872827 2.873152 2.873058 2.873289 2.873064 2.873158 2.873270 2.872954 2.872641 2.872259 2.871821 2.871656 2.871672 2.871209 2.870669 2.870317 2.870013 2.870485 2.870455 2.870574 2.870454 2.870406 2.870531 2.870475 2.870544 2.870273 2.870774 2.870555 2.870619 2.870450 2.870219 2.870478 2.870240 2.870201 2.870226 2.870641 2.870358 2.870996 2.871284 2.871850 2.871619 2.872044 2.872244 2.872227 2.871866 2.871803 2.872170 2.872420 2.872924 2.873037 2.872910 2.873264 2.872937 2.873041 2.873021 2.873009 2.873086 2.873211 2.872914 2.872587 2.872291 2.871965 2.872094 2.872149 2.871749 2.871540 2.872039 2.871841 2.871562 2.871329 2.871266 2.871000 2.870645 2.870337 2.870848 2.870853 2.870367 2.870743 2.870259 2.870343 2.870317 2.870376 2.870208 2.871825 2.871464 2.871248 2.871318 2.871211 2.872016 2.872218 2.871927 2.872349 2.872157 2.872202 2.872517 2.872296 2.871999 2.872688 2.872264 2.872558 2.872396 2.872411 2.872866 2.872849 2.873847 2.874400 2.874198 2.874085 2.874279 2.873884 2.873525 2.873589 2.874916 2.874634 2.874326 2.874756 2.874752 2.874899 2.874464 2.874826 2.874519 2.874530 2.874668 2.875710 2.875777 2.875920 2.875597 2.875224 2.875316 2.875717 2.875325 2.875940 2.875805 2.876080 2.875892 2.875638 2.875361 2.875605 2.875797 2.875588 2.875409 2.875685 2.875362 2.875160 2.875259 2.875472 2.875175 2.875323 2.875249 2.874863 2.874273 2.874025 2.874221 2.873927 2.873721 2.873553 2.873345 2.873512 2.873308 2.872885 2.872419 2.872163 2.872789 2.872717 2.873197 2.873258 2.873925 2.873670 2.873827 2.873363 2.873538 2.873343 2.873572 2.873473 2.873631 2.873710 2.873540 2.874435 2.874104 2.873998 2.873792 2.874043 2.874094 2.873632 2.873425 2.872984 2.872866 2.873058 2.872626 2.873237 2.873178 2.873053 2.873004 2.873285 2.873639 2.873804 2.874130 2.873929 2.873685 2.874312 2.874925 2.875240 2.875000 2.874699 2.874807 2.875009 2.874716 2.874311 2.874825 2.875650 2.876227 2.876316 2.876383 2.876701 2.876565 2.877207 2.876773 2.876849 2.876337 2.876065 2.876165 2.876225 2.876324 2.876335 2.875928 2.876742 2.876592 2.876726 2.876753 2.877034 2.877061 2.876997 2.876726 2.877343 2.876895 2.877493 2.877681 2.877512 2.877519 2.878214 2.878735 2.879643 2.879289 2.880051 2.881130 2.881088 2.880738 2.880439 2.880265 2.880963 2.880674 2.880584 2.880657 2.880700 2.880297 2.879866 2.879668 2.879737 2.879290 2.878822 2.878619 2.879004 2.878449 2.878316 2.878023 2.878057 2.877796 2.877677 2.877908 2.878274 2.878293 2.878341 2.878103 2.878242 2.878306 2.878492 2.877982 2.878181 2.877835 2.877808 2.877976 2.878185 2.878156 2.878064 2.877780 2.877585 2.877937 2.877646 2.877884 2.877900 2.877383 2.877338 2.877023 2.876589 2.876412 2.876222 2.875967 2.876445 2.876490 2.876662 2.877120 2.876543 2.877230 2.877336 2.877507 2.877392 2.877489 2.877476 2.877502 2.877383 2.878061 2.878776 2.878316 2.878615 2.878806 2.878228 2.877798 2.877594 2.877238 2.878030 2.877867 2.877437 2.876921 2.876490 2.876876 2.876570 2.876587 2.876450 2.877311 2.877038 2.876682 2.876481 2.876776 2.877054 2.877018 2.877292 2.877379 2.877891 2.877807 2.877527 2.877856 2.878561 2.878473 2.878250 2.878041 2.878673 2.879090 2.879050 2.879829 2.879972 2.879560 2.879595 2.879951 2.880043 2.880098 2.880085 2.879573 2.880048 2.880030 2.879667 2.879478 2.879576 2.880022 2.879858 2.880956 2.882078 2.881820 2.881659 2.882358 2.882644 2.882728 2.883194 2.884007 2.884572 2.884240 2.884086 2.883705 2.883894 2.883537 2.883277 2.883973 2.883504 2.883585 2.883485 2.883802 2.883716 2.883850 2.883552 2.884511 2.884432 2.884066 2.885047 2.884978 2.885299 2.886183 2.887083 2.886925 2.887774 2.888300 2.888824 2.888347 2.888438 2.888277 2.888078 2.888703 2.888768 2.889098 2.889257 2.888892 2.888786 2.888539 2.888708 2.888268 2.888233 2.887976 2.888544 2.888437 2.887872 2.888944 2.888568 2.888476 2.888544 2.888293 2.888026 2.887853 2.887816 2.887990 2.888233 2.887909 2.888719 2.888736 2.888313 2.888659 2.888572 2.888790 2.888783 2.888774 2.888510 2.888900 2.889216 2.889519 2.889531 2.889495 2.891071 2.890991 2.891279 2.891332 2.891477 2.891985 2.891702 2.891379 2.890987 2.891349 2.890820 2.890404 2.890481 2.890352 2.890256 2.890747 2.890587 2.890542 2.890222 2.889802 2.889867 2.889693 2.889718 2.889376 2.888970 2.888966 2.888598 2.889405 2.889436 2.889530 2.889241 2.889347 2.889586 2.889520 2.889095 2.889361 2.889366 2.889014 2.888780 2.888334 2.888266 2.887921 2.888725 2.889187 2.888818 2.888724 2.888388 2.888401 2.887876 2.888281 2.887952 2.887672 2.887530 2.887467 2.887488 2.888218 2.888252 2.889544 2.889336 2.889423 2.889568 2.889288 2.888875 2.889128 2.888713 2.888673 2.889501 2.890034 2.889747 2.889567 2.889140 2.888540 2.888336 2.888572 2.888314 2.888275 2.888077 2.888045 2.887958 2.887484 2.887477 2.887694 2.887426 2.887255 2.887063 2.886709 2.886626 2.887108 2.886672 2.886680 2.886489 2.886170 2.886251 2.886210 2.886221 2.885831 2.886349 2.886252 2.886683 2.886266 2.885863 2.885713 2.886685 2.886769 2.886466 2.886687 2.886912 2.887430 2.887565 2.887600 2.887825 2.888340 2.888292 2.887902 2.888793 2.889096 2.888705 2.888263 2.888325 2.889019 2.888825 2.888437 2.888078 2.888317 2.887937 2.888358 2.887949 2.889086 2.888915 2.888378 2.888075 2.887782 2.887522 2.887539 2.887634 2.887666 2.887351 2.887152 2.886683 2.886714 2.886724 2.886622 2.886810 2.886837 2.886897 2.887340 2.887115 2.886802 2.887061 2.887177 2.887118 2.887013 2.887026 2.888217 2.887686 2.887731 2.887919 2.887857 2.887508 2.887755 2.888123 2.888508 2.888796 2.888626 2.888394 2.888158 2.888279 2.888448 2.888288 2.888180 2.888320 2.888465 2.887892 2.887939 2.887597 2.887689 2.887416 2.887895 2.887740 2.887528 2.887082 2.886773 2.886745 2.886971 2.886576 2.886921 2.887030 2.886738 2.886360 2.887412 2.887078 2.887105 2.887514 2.888242 2.887985 2.887913 2.887639 2.887832 2.887995 2.888281 2.888491 2.887974 2.887729 2.887877 2.887643 2.887427 2.886945 2.887750 2.887583 2.887678 2.887408 2.887308 2.888318 2.888849 2.888877 2.888515 2.889078 2.888674 2.888724 2.888585 2.888341 2.887951 2.887785 2.887999 2.888414 2.888350 2.888034 2.888978 2.888641 2.889062 2.889399 2.889054 2.888885 2.889343 2.889391 2.889204 
