0.000000 -0.000000 0.000000 -0.000000 0.000000 -0.000000 0.000000 0.000000 0.000000 0.000000 0.000000 -0.000000 0.000000 -0.000000 -0.000000 -0.000000 0.000000 -0.000000 0.000000 0.000000 -0.000000 0.000000 -0.000000 -0.000000 0.000000 0.000000 0.000000 0.000000 0.000000 -0.000000 0.000000 0.000000 0.000000 -0.000000 0.000000 -0.000000 0.000000 -0.000000 0.000000 -0.000000 0.000000 0.000000 -0.000000 -0.000000 -0.000000 -0.000000 -0.000000 -0.000000 0.000000 0.000000 0.000000 -0.000000 0.000000 -0.000000 0.000000 -0.000000 0.000000 0.000000 0.000000 -0.000000 0.000000 -0.000000 0.000000 0.000000 0.000000 -0.000000 0.000000 -0.000000 0.000000 0.000000 0.000000 -0.000000 0.000000 0.000000 -0.000000 0.000000 0.000000 -0.000000 0.000000 0.000000 0.000000 -0.000000 0.000000 0.000000 -0.000000 -0.000000 0.000000 -0.000000 0.000000 0.000000 0.000000 0.000000 0.000000 -0.000000 0.000000 0.000000 -0.000000 -0.000000 0.000000 0.000000 0.000000 0.000001 0.000004 0.000012 0.000029 0.000063 0.000123 0.000220 0.000368 0.000584 0.000886 0.001294 0.001827 0.002509 0.003360 0.004404 0.005659 0.007148 0.008889 0.010899 0.013194 0.015787 0.018690 0.021911 0.025457 0.029332 0.033537 0.038072 0.042933 0.048115 0.053610 0.059409 0.065501 0.071874 0.078511 0.085399 0.092521 0.099858 0.107393 0.115107 0.122981 0.130994 0.139129 0.147364 0.155681 0.164061 0.172486 0.180936 0.189394 0.197844 0.206269 0.214654 0.222983 0.231244 0.239423 0.247507 0.255486 0.263349 0.271086 0.278689 0.286149 0.293460 0.300613 0.307601 0.314415 0.321044 0.327476 0.333697 0.339691 0.345442 0.350930 0.356135 0.361037 0.365615 0.369848 0.373715 0.377196 0.380273 0.382929 0.385150 0.386927 0.388252 0.389123 0.389544 0.389523 0.389072 0.388209 0.386957 0.385340 0.383389 0.381136 0.378614 0.375861 0.372914 0.369811 0.366589 0.363285 0.359937 0.356578 0.353243 0.349963 0.346766 0.343680 0.340729 0.337934 0.335314 0.332886 0.330663 0.328657 0.326875 0.325324 0.324008 0.322930 0.322088 0.321481 0.321105 0.320956 0.321027 0.321310 0.321798 0.322480 0.323346 0.324386 0.325590 0.326944 0.328438 0.330061 0.331800 0.333644 0.335581 0.337600 0.339691 0.341843 0.344044 0.346287 0.348561 0.350858 0.353169 0.355485 0.357799 0.360101 0.362381 0.364625 0.366821 0.368951 0.370999 0.372945 0.374766 0.376442 0.377947 0.379260 0.380356 0.381211 0.381804 0.382112 0.382117 0.381801 0.381153 0.380161 0.378822 0.377137 0.375110 0.372752 0.370077 0.367105 0.363860 0.360369 0.356660 0.352767 0.348723 0.344564 0.340324 0.336040 0.331746 0.327477 0.323265 0.319143 0.315138 0.311279 0.307590 0.304093 0.300809 0.297753 0.294941 0.292384 0.290092 0.288072 0.286328 0.284863 0.283676 0.282767 0.282131 0.281763 0.281657 0.281806 0.282199 0.282828 0.283681 0.284746 0.286013 0.287468 0.289099 0.290893 0.292836 0.294917 0.297122 0.299439 0.301854 0.304358 0.306936 0.309579 0.312275 0.315015 0.317788 0.320585 0.323396 0.326213 0.329025 0.331820 0.334586 0.337308 0.339969 0.342550 0.345031 0.347390 0.349604 0.351648 0.353500 0.355134 0.356526 0.357653 0.358495 0.359029 0.359240 0.359113 0.358638 0.357810 0.356629 0.355098 0.353227 0.351031 0.348529 0.345742 0.342699 0.339427 0.335960 0.332331 0.328574 0.324726 0.320822 0.316898 0.312988 0.309125 0.305341 0.301666 0.298127 0.294750 0.291557 0.288568 0.285801 0.283272 0.280991 0.278969 0.277214 0.275729 0.274519 0.273582 0.272919 0.272525 0.272396 0.272525 0.272905 0.273526 0.274380 0.275455 0.276739 0.278222 0.279890 0.281731 0.283732 0.285880 0.288162 0.290565 0.293077 0.295685 0.298378 0.301142 0.303968 0.306844 0.309760 0.312706 0.315672 0.318650 0.321630 0.324602 0.327555 0.330477 0.333353 0.336167 0.338900 0.341533 0.344044 0.346411 0.348609 0.350615 0.352404 0.353952 0.355236 0.356234 0.356926 0.357293 0.357317 0.356984 0.356282 0.355202 0.353736 0.351879 0.349629 0.346989 0.343959 0.340546 0.336757 0.332603 0.328095 0.323245 0.318070 0.312586 0.306809 0.300759 0.294455 0.287916 0.281164 0.274218 0.267100 0.259830 0.252430 0.244918 0.237316 0.229643 0.221918 0.214159 0.206384 0.198609 0.190852 0.183126 0.175446 0.167827 0.160279 0.152816 0.145448 0.138185 0.131035 0.124007 0.117109 0.110346 0.103725 0.097250 0.090926 0.084756 0.078744 0.072892 0.067202 0.061674 0.056310 0.051109 0.046073 0.041200 0.036489 0.031940 0.027550 0.023319 0.019246 0.015328 0.011566 0.007958 0.004506 0.001209 -0.001932 -0.004916 -0.007740 -0.010405 -0.012907 -0.015246 -0.017420 -0.019427 -0.021265 -0.022934 -0.024434 -0.025763 -0.026922 -0.027912 -0.028734 -0.029389 -0.029879 -0.030207 -0.030376 -0.030390 -0.030253 -0.029968 -0.029541 -0.028976 -0.028279 -0.027456 -0.026513 -0.025455 -0.024288 -0.023019 -0.021655 -0.020201 -0.018664 -0.017050 -0.015366 -0.013617 -0.011810 -0.009951 -0.008044 -0.006097 -0.004114 -0.002100 -0.000061 0.001999 0.004075 0.006163 0.008258 0.010357 0.012457 0.014553 0.016643 0.018722 0.020790 0.022841 0.024875 0.026886 0.028872 0.030828 0.032751 0.034636 0.036478 0.038271 0.040010 0.041689 0.043304 0.044847 0.046314 0.047700 0.049000 0.050208 0.051322 0.052338 0.053254 0.054069 0.054783 0.055398 0.055914 0.056337 0.056670 0.056918 0.057088 0.057186 0.057219 0.057197 0.057126 0.057014 0.056870 0.056702 0.056519 0.056326 0.056133 0.055945 0.055769 0.055611 0.055476 0.055369 0.055294 0.055255 0.055255 0.055295 0.055378 0.055506 0.055678 0.055896 0.056159 0.056468 0.056820 0.057215 0.057651 0.058127 0.058640 0.059190 0.059772 0.060386 0.061028 0.061697 0.062388 0.063101 0.063832 0.064579 0.065339 0.066109 0.066888 0.067673 0.068462 0.069253 0.070043 0.070832 0.071616 0.072394 0.073165 0.073926 0.074676 0.075411 0.076129 0.076826 0.077499 0.078144 0.078755 0.079329 0.079859 0.080342 0.080771 0.081142 0.081449 0.081688 0.081855 0.081946 0.081957 0.081888 0.081737 0.081504 0.081191 0.080799 0.080332 0.079794 0.079191 0.078529 0.077814 0.077053 0.076255 0.075427 0.074577 0.073712 0.072842 0.071973 0.071114 0.070271 0.069450 0.068658 0.067901 0.067184 0.066511 0.065886 0.065312 0.064792 0.064329 0.063923 0.063577 0.063291 0.063064 0.062897 0.062789 0.062739 0.062745 0.062806 0.062920 0.063084 0.063297 0.063556 0.063859 0.064202 0.064583 0.065000 0.065449 0.065927 0.066432 0.066961 0.067511 0.068080 0.068665 0.069264 0.069874 0.070493 0.071120 0.071751 0.072384 0.073019 0.073651 0.074280 0.074902 0.075513 0.076110 0.076689 0.077246 0.077775 0.078271 0.078729 0.079143 0.079509 0.079820 0.080072 0.080260 0.080379 0.080426 0.080398 0.080293 0.080110 0.079849 0.079511 0.079100 0.078617 0.078069 0.077460 0.076797 0.076085 0.075332 0.074546 0.073734 0.072905 0.072065 0.071223 0.070386 0.069561 0.068755 0.067975 0.067226 0.066513 0.065841 0.065215 0.064638 0.064113 0.063642 0.063228 0.062873 0.062575 0.062338 0.062159 0.062039 0.061977 0.061972 0.062022 0.062125 0.062280 0.062484 0.062735 0.063030 0.063367 0.063743 0.064156 0.064602 0.065079 0.065583 0.066113 0.066666 0.067238 0.067827 0.068431 0.069047 0.069674 0.070308 0.070947 0.071590 0.072235 0.072880 0.073521 0.074157 0.074785 0.075400 0.076000 0.076579 0.077134 0.077658 0.078148 0.078597 0.079000 0.079352 0.079648 0.079882 0.080050 0.080146 0.080169 0.080113 0.079976 0.079755 0.079449 0.079057 0.078577 0.078010 0.077356 0.076616 0.075792 0.074885 0.073899 0.072835 0.071697 0.070489 0.069214 0.067877 0.066481 0.065031 0.063532 0.061988 0.060404 0.058785 0.057135 0.055458 0.053759 0.052043 0.050314 0.048576 0.046833 0.045089 0.043348 0.041612 0.039886 0.038172 0.036473 0.034793 0.033133 0.031495 0.029883 0.028297 0.026740 0.025212 0.023716 0.022253 0.020822 0.019427 0.018066 0.016741 0.015453 0.014200 0.012985 0.011806 0.010664 0.009558 0.008490 0.007457 0.006461 0.005503 0.004586 0.003718 0.002909 0.002175 0.001536 0.001019 0.000654 0.000474 0.000520 0.000832 0.001453 0.002429 0.003803 0.005621 0.007924 0.010753 0.014146 0.018136 0.022754 0.028024 0.033969 0.040602 0.047936 0.055975 0.064720 0.074168 0.084308 0.095128 0.106609 0.118730 0.131466 0.144787 0.158663 0.173061 0.187943 0.203273 0.219011 0.235117 0.251552 0.268273 0.285240 0.302411 0.319748 0.337208 0.354755 0.372351 0.389958 0.407541 0.425068 0.442507 0.459826 0.476998 0.493995 0.510793 0.527369 0.543701 0.559770 0.575558 0.591048 0.606225 0.621073 0.635574 0.649707 0.663450 0.676775 0.689653 0.702048 0.713922 0.725237 0.735949 0.746016 0.755392 0.764034 0.771899 0.778949 0.785144 0.790453 0.794851 0.798319 0.800848 0.802439 0.803104 0.802864 0.801751 0.799806 0.797078 0.793625 0.789510 0.784803 0.779577 0.773908 0.767874 0.761552 0.755021 0.748356 0.741632 0.734918 0.728281 0.721784 0.715484 0.709434 0.703680 0.698264 0.693223 0.688588 0.684383 0.680629 0.677341 0.674529 0.672200 0.670355 0.668993 0.668106 0.667688 0.667725 0.668203 0.669106 0.670415 0.672111 0.674172 0.676576 0.679299 0.682319 0.685610 0.689149 0.692913 0.696877 0.701018 0.705314 0.709742 0.714281 0.718911 0.723613 0.728366 0.733155 0.737961 0.742768 0.747557 0.752307 0.756994 0.761591 0.766066 0.770384 0.774505 0.778386 0.781981 0.785244 0.788124 0.790573 0.792541 0.793981 0.794847 0.795097 0.794696 0.793613 0.791826 0.789322 0.786100 0.782167 0.777541 0.772251 0.766335 0.759837 0.752813 0.745321 0.737428 0.729202 0.720715 0.712040 0.703250 0.694419 0.685618 0.676916 0.668377 0.660064 0.652034 0.644340 0.637028 0.630141 0.623716 0.617784 0.612371 0.607498 0.603180 0.599429 0.596249 0.593643 0.591608 0.590139 0.589225 0.588854 0.589011 0.589677 0.590833 0.592457 0.594525 0.597014 0.599898 0.603151 0.606746 0.610657 0.614857 0.619321 0.624021 0.628933 0.634030 0.639290 0.644688 0.650203 0.655812 0.661495 0.667233 0.673006 0.678795 0.684580 0.690337 0.696039 0.701658 0.707158 0.712502 0.717648 0.722551 0.727164 0.731437 0.735319 0.738760 0.741710 0.744121 0.745946 0.747143 0.747675 0.747512 0.746629 0.745016 0.742667 0.739591 0.735804 0.731336 0.726222 0.720510 0.714252 0.707509 0.700345 0.692832 0.685040 0.677045 0.668919 0.660737 0.652572 0.644492 0.636565 0.628852 0.621413 0.614300 0.607563 0.601243 0.595379 0.590002 0.585140 0.580813 0.577037 0.573825 0.571182 0.569110 0.567607 0.566666 0.566279 0.566433 0.567113 0.568299 0.569972 0.572111 0.574692 0.577689 0.581078 0.584833 0.588926 0.593330 0.598019 0.602966 0.608144 0.613528 0.619093 0.624812 0.630664 0.636626 0.642674 0.648790 0.654952 0.661142 0.667341 0.673528 0.679681 0.685774 0.691779 0.697661 0.703384 0.708908 0.714187 0.719175 0.723824 0.728082 0.731900 0.735227 0.738014 0.740217 0.741790 0.742694 0.742893 0.742356 0.741055 0.738971 0.736087 0.732392 0.727882 0.722557 0.716421 0.709486 0.701766 0.693281 0.684054 0.674113 0.663487 0.652211 0.640321 0.627853 0.614849 0.601349 0.587396 0.573032 0.558301 0.543246 0.527910 0.512335 0.496564 0.480637 0.464593 0.448472 0.432309 0.416141 0.400002 0.383922 0.367933 0.352063 0.336338 0.320783 0.305422 0.290275 0.275360 0.260696 0.246297 0.232178 0.218351 0.204827 0.191614 0.178722 0.166155 0.153920 0.142021 0.130459 0.119238 0.108357 0.097817 0.087617 0.077755 0.068229 0.059036 0.050172 0.041634 0.033419 0.025522 0.017940 0.010670 0.003709 -0.002945 -0.009295 -0.015343 -0.021090 -0.026540 -0.031692 -0.036550 -0.041114 -0.045387 -0.049372 -0.053070 -0.056484 -0.059618 -0.062475 -0.065059 -0.067374 -0.069427 -0.071220 -0.072762 -0.074057 -0.075112 -0.075935 -0.076532 -0.076910 -0.077079 -0.077044 -0.076816 -0.076402 -0.075810 -0.075049 -0.074128 -0.073055 -0.071840 -0.070489 -0.069012 -0.067416 -0.065710 -0.063901 -0.061998 -0.060007 -0.057936 -0.055792 -0.053581 -0.051312 -0.048988 -0.046618 -0.044206 -0.041759 -0.039281 -0.036776 -0.034251 -0.031710 -0.029156 -0.026596 -0.024032 -0.021469 -0.018912 -0.016365 -0.013834 -0.011325 -0.008842 -0.006394 -0.003985 -0.001622 0.000687 0.002937 0.005120 0.007231 0.009264 0.011213 0.013072 0.014839 0.016509 0.018081 0.019553 0.020926 0.022201 0.023379 0.024466 0.025464 0.026380 0.027218 0.027987 0.028692 0.029342 0.029943 0.030503 0.031030 0.031532 0.032015 0.032486 0.032953 0.033420 0.033894 0.034380 0.034882 0.035404 0.035949 0.036522 0.037123 0.037755 0.038419 0.039116 0.039847 0.040610 0.041407 0.042236 0.043096 0.043986 0.044902 0.045846 0.046814 0.047804 0.048815 0.049843 0.050887 0.051944 0.053012 0.054089 0.055171 0.056256 0.057343 0.058429 0.059512 0.060590 0.061662 0.062725 0.063778 0.064818 0.065844 0.066856 0.067850 0.068825 0.069778 0.070707 0.071609 0.072479 0.073315 0.074111 0.074863 0.075566 0.076214 0.076804 0.077330 0.077787 0.078170 0.078476 0.078700 0.078840 0.078892 0.078855 0.078727 0.078509 0.078202 0.077808 0.077330 0.076773 0.076142 0.075444 0.074686 0.073874 0.073018 0.072125 0.071205 0.070266 0.069317 0.068366 0.067422 0.066492 0.065585 0.064707 0.063864 0.063063 0.062309 0.061606 0.060959 0.060371 0.059844 0.059381 0.058983 0.058651 0.058386 0.058187 0.058054 0.057987 0.057983 0.058040 0.058157 0.058332 0.058563 0.058846 0.059180 0.059560 0.059984 0.060450 0.060953 0.061490 0.062059 0.062656 0.063279 0.063924 0.064589 0.065270 0.065966 0.066673 0.067389 0.068112 0.068839 0.069568 0.070297 0.071023 0.071745 0.072459 0.073163 0.073852 0.074522 0.075170 0.075790 0.076378 0.076928 0.077434 0.077892 0.078296 0.078640 0.078920 0.079132 0.079270 0.079333 0.079318 0.079224 0.079051 0.078799 0.078471 0.078070 0.077601 0.077068 0.076477 0.075835 0.075148 0.074425 0.073672 0.072898 0.072110 0.071317 0.070524 0.069741 0.068973 0.068227 0.067509 0.066825 0.066178 0.065575 0.065018 0.064510 0.064055 0.063655 0.063310 0.063022 0.062792 0.062620 0.062505 0.062446 0.062443 0.062494 0.062597 0.062751 0.062953 0.063202 0.063494 0.063828 0.064201 0.064610 0.065052 0.065525 0.066025 0.066550 0.067098 0.067665 0.068250 0.068849 0.069460 0.070081 0.070710 0.071345 0.071983 0.072623 0.073262 0.073899 0.074531 0.075154 0.075766 0.076363 0.076940 0.077493 0.078017 0.078507 0.078958 0.079363 0.079718 0.080018 0.080257 0.080430 0.080534 0.080564 0.080516 0.080387 0.080175 0.079879 0.079496 0.079026 0.078468 0.077823 0.077093 0.076277 0.075379 0.074400 0.073344 0.072213 0.071011 0.069741 0.068409 0.067017 0.065570 0.064074 0.062531 0.060948 0.059328 0.057677 0.055998 0.054297 0.052577 0.050844 0.049101 0.047353 0.045603 0.043854 0.042111 0.040377 0.038655 0.036948 0.035258 0.033588 0.031941 0.030319 0.028722 0.027154 0.025616 0.024109 0.022635 0.021194 0.019787 0.018415 0.017079 0.015780 0.014516 0.013290 0.012100 0.010947 0.009832 0.008752 0.007710 0.006703 0.005733 0.004801 0.003908 0.003059 0.002260 0.001521 0.000851 0.000265 -0.000222 -0.000593 -0.000829 -0.000909 -0.000812 -0.000518 -0.000006 0.000746 0.001756 0.003043 0.004624 0.006513 0.008723 0.011265 0.014146 0.017374 0.020950 0.024876 0.029150 0.033769 0.038727 0.044015 0.049624 0.055542 0.061755 0.068249 0.075008 0.082014 0.089249 0.096695 0.104332 0.112141 0.120102 0.128195 0.136399 0.144696 0.153066 0.161489 0.169947 0.178423 0.186898 0.195357 0.203782 0.212161 0.220477 0.228718 0.236871 0.244925 0.252869 0.260692 0.268387 0.275944 0.283355 0.290614 0.297712 0.304639 0.311384 0.317936 0.324280 0.330401 0.336280 0.341899 0.347238 0.352275 0.356990 0.361361 0.365368 0.368990 0.372209 0.375008 0.377374 0.379296 0.380768 0.381788 0.382360 0.382492 0.382198 0.381494 0.380404 0.378954 0.377172 0.375092 0.372747 0.370174 0.367410 0.364492 0.361457 0.358343 0.355186 0.352019 0.348877 0.345788 0.342783 0.339888 0.337125 0.334516 0.332079 0.329831 0.327784 0.325950 0.324336 0.322948 0.321791 0.320865 0.320170 0.319705 0.319465 0.319446 0.319640 0.320041 0.320641 0.321429 0.322395 0.323530 0.324821 0.326259 0.327831 0.329526 0.331332 0.333238 0.335233 0.337306 0.339445 0.341641 0.343884 0.346163 0.348471 0.350797 0.353135 0.355475 0.357810 0.360129 0.362422 0.364676 0.366878 0.369010 0.371054 0.372991 0.374799 0.376455 0.377936 0.379218 0.380278 0.381093 0.381639 0.381897 0.381847 0.381473 0.380762 0.379705 0.378299 0.376543 0.374445 0.372015 0.369268 0.366225 0.362908 0.359346 0.355569 0.351610 0.347502 0.343281 0.338983 0.334643 0.330297 0.325980 0.321724 0.317561 0.313520 0.309628 0.305911 0.302389 0.299084 0.296012 0.293187 0.290621 0.288324 0.286301 0.284559 0.283098 0.281919 0.281019 0.280396 0.280044 0.279956 0.280125 0.280540 0.281192 0.282071 0.283163 0.284458 0.285943 0.287604 0.289429 0.291405 0.293518 0.295757 0.298107 0.300557 0.303094 0.305707 0.308384 0.311115 0.313889 0.316696 0.319526 0.322371 0.325221 0.328066 0.330894 0.333692 0.336445 0.339136 0.341748 0.344258 0.346646 0.348888 0.350961 0.352840 0.354500 0.355918 0.357071 0.357937 0.358496 0.358730 0.358624 0.358170 0.357360 0.356194 0.354676 0.352815 0.350624 0.348122 0.345333 0.342281 0.338996 0.335511 0.331859 0.328075 0.324195 0.320255 0.316290 0.312337 0.308427 0.304594 0.300868 0.297276 0.293845 0.290598 0.287554 0.284733 0.282150 0.279817 0.277745 0.275940 0.274410 0.273155 0.272178 0.271476 0.271047 0.270887 0.270988 0.271343 0.271944 0.272780 0.273841 0.275116 0.276592 0.278257 0.280098 0.282103 0.284257 0.286549 0.288965 0.291492 0.294118 0.296830 0.299617 0.302466 0.305368 0.308312 0.311287 0.314284 0.317294 0.320307 0.323314 0.326304 0.329264 0.332180 0.335038 0.337818 0.340501 0.343065 0.345489 0.347749 0.349820 0.351679 0.353301 0.354662 0.355742 0.356518 0.356972 0.357085 0.356845 0.356236 0.355250 0.353879 0.352117 0.349962 0.347415 0.344478 0.341155 0.337455 0.333386 0.328961 0.324191 0.319091 0.313678 0.307970 0.301983 0.295738 0.289254 0.282552 0.275652 0.268575 0.261342 0.253973 0.246490 0.238911 0.231257 0.223547 0.215800 0.208032 0.200261 0.192504 0.184775 0.177090 0.169461 0.161903 0.154426 0.147041 0.139759 0.132589 0.125539 0.118617 0.111829 0.105181 0.098678 0.092325 0.086126 0.080084 0.074201 0.068478 0.062919 0.057523 0.052290 0.047221 0.042316 0.037573 0.032991 0.028569 0.024306 0.020199 0.016247 0.012449 0.008803 0.005309 0.001966 -0.001225 -0.004263 -0.007149 -0.009881 -0.012456 -0.014875 -0.017134 -0.019232 -0.021168 -0.022940 -0.024547 -0.025988 -0.027263 -0.028371 -0.029314 -0.030091 -0.030704 -0.031155 -0.031447 -0.031581 -0.031562 -0.031393 -0.031077 -0.030621 -0.030028 -0.029304 -0.028453 -0.027483 -0.026398 -0.025205 -0.023909 -0.022518 -0.021038 -0.019474 -0.017833 -0.016122 -0.014345 -0.012510 -0.010622 -0.008687 -0.006710 -0.004698 -0.002655 -0.000586 0.001503 0.003609 0.005726 0.007851 0.009980 0.012109 0.014234 0.016353 0.018461 0.020557 0.022637 0.024698 0.026737 0.028751 0.030736 0.032688 0.034602 0.036474 0.038298 0.040070 0.041783 0.043432 0.045011 0.046516 0.047940 0.049278 0.050527 0.051682 0.052739 0.053698 0.054555 0.055313 0.055970 0.056531 0.056997 0.057374 0.057665 0.057878 0.058019 0.058096 0.058114 0.058084 0.058012 0.057907 0.057776 0.057628 0.057470 0.057308 0.057151 0.057004 0.056872 0.056762 0.056677 0.056622 0.056600 0.056615 0.056668 0.056762 0.056898 0.057077 0.057298 0.057563 0.057871 0.058220 0.058610 0.059039 0.059506 0.060009 0.060546 0.061115 0.061714 0.062339 0.062990 0.063663 0.064355 0.065065 0.065789 0.066526 0.067273 0.068028 0.068788 0.069551 0.070317 0.071081 0.071843 0.072601 0.073352 0.074096 0.074831 0.075553 0.076261 0.076951 0.077621 0.078266 0.078881 0.079464 0.080007 0.080507 0.080959 0.081356 0.081694 0.081969 0.082175 0.082308 0.082365 0.082343 0.082239 0.082053 0.081785 0.081436 0.081008 0.080504 0.079930 0.079290 0.078591 0.077838 0.077041 0.076205 0.075339 0.074452 0.073551 0.072645 0.071740 0.070846 0.069968 0.069114 0.068290 0.067502 0.066755 0.066053 0.065400 0.064801 0.064257 0.063771 0.063344 0.062978 0.062674 0.062431 0.062250 0.062129 0.062068 0.062064 0.062117 0.062225 0.062384 0.062594 0.062851 0.063153 0.063497 0.063880 0.064300 0.064753 0.065237 0.065748 0.066284 0.066842 0.067420 0.068015 0.068624 0.069245 0.069876 0.070514 0.071157 0.071803 0.072451 0.073097 0.073739 0.074375 0.075001 0.075614 0.076210 0.076783 0.077330 0.077845 0.078322 0.078757 0.079144 0.079478 0.079753 0.079964 0.080108 0.080180 0.080177 0.080097 0.079938 0.079702 0.079389 0.079000 0.078541 0.078014 0.077425 0.076779 0.076085 0.075347 0.074574 0.073774 0.072955 0.072123 0.071287 0.070455 0.069634 0.068830 0.068049 0.067299 0.066584 0.065909 0.065279 0.064697 0.064166 0.063689 0.063269 0.062906 0.062601 0.062355 0.062169 0.062041 0.061971 0.061959 0.062001 0.062097 0.062245 0.062442 0.062686 0.062976 0.063307 0.063679 0.064087 0.064528 0.065001 0.065503 0.066030 0.066580 0.067150 0.067738 0.068341 0.068956 0.069582 0.070216 0.070855 0.071499 0.072145 0.072790 0.073433 0.074071 0.074702 0.075320 0.075924 0.076508 0.077068 0.077600 0.078097 0.078555 0.078968 0.079331 0.079638 0.079885 0.080066 0.080177 0.080214 0.080174 0.080053 0.079849 0.079560 0.079185 0.078722 0.078172 0.077535 0.076812 0.076004 0.075113 0.074141 0.073092 0.071968 0.070773 0.069511 0.068185 0.066800 0.065360 0.063870 0.062334 0.060757 0.059144 0.057499 0.055826 0.054131 0.052418 0.050690 0.048953 0.047210 0.045465 0.043722 0.041984 0.040255 0.038538 0.036836 0.035151 0.033486 0.031843 0.030225 0.028633 0.027069 0.025535 0.024032 0.022561 0.021124 0.019721 0.018352 0.017020 0.015723 0.014463 0.013240 0.012053 0.010903 0.009790 0.008713 0.007673 0.006670 0.005703 0.004777 0.003898 0.003076 0.002325 0.001665 0.001121 0.000722 0.000502 0.000500 0.000755 0.001310 0.002211 0.003502 0.005227 0.007429 0.010150 0.013427 0.017295 0.021784 0.026922 0.032730 0.039225 0.046418 0.054315 0.062920 0.072227 0.082230 0.092914 0.104265 0.116260 0.128874 0.142081 0.155849 0.170144 0.184933 0.200176 0.215835 0.231871 0.248243 0.264910 0.281831 0.298965 0.316271 0.333710 0.351243 0.368831 0.386439 0.404030 0.421571 0.439029 0.456375 0.473578 0.490612 0.507452 0.524074 0.540456 0.556579 0.572425 0.587976 0.603216 0.618131 0.632703 0.646912 0.660735 0.674146 0.687115 0.699610 0.711592 0.723022 0.733858 0.744057 0.753574 0.762366 0.770391 0.777606 0.783976 0.789465 0.794049 0.797707 0.800431 0.802220 0.803085 0.803045 0.802132 0.800385 0.797853 0.794593 0.790666 0.786143 0.781094 0.775596 0.769725 0.763560 0.757176 0.750651 0.744057 0.737464 0.730939 0.724545 0.718338 0.712371 0.706691 0.701341 0.696356 0.691767 0.687601 0.683877 0.680611 0.677814 0.675493 0.673648 0.672279 0.671380 0.670943 0.670957 0.671406 0.672276 0.673548 0.675202 0.677218 0.679573 0.682245 0.685211 0.688446 0.691927 0.695631 0.699534 0.703613 0.707845 0.712210 0.716685 0.721250 0.725886 0.730575 0.735298 0.740040 0.744783 0.749508 0.754195 0.758820 0.763356 0.767770 0.772028 0.776090 0.779914 0.783453 0.786660 0.789485 0.791881 0.793797 0.795185 0.796002 0.796204 0.795755 0.794625 0.792792 0.790245 0.786979 0.783004 0.778338 0.773008 0.767053 0.760518 0.753457 0.745929 0.738001 0.729742 0.721222 0.712515 0.703695 0.694834 0.686004 0.677273 0.668707 0.660368 0.652312 0.644593 0.637257 0.630347 0.623900 0.617946 0.612512 0.607619 0.603281 0.599511 0.596313 0.593690 0.591638 0.590153 0.589223 0.588838 0.588980 0.589633 0.590776 0.592387 0.594444 0.596921 0.599794 0.603037 0.606622 0.610524 0.614716 0.619171 0.623864 0.628768 0.633859 0.639113 0.644505 0.650015 0.655619 0.661297 0.667031 0.672800 0.678586 0.684368 0.690122 0.695822 0.701439 0.706938 0.712280 0.717425 0.722328 0.726940 0.731212 0.735094 0.738536 0.741487 0.743898 0.745724 0.746923 0.747457 0.747297 0.746421 0.744817 0.742482 0.739424 0.735663 0.731226 0.726152 0.720488 0.714287 0.707610 0.700522 0.693093 0.685394 0.677500 0.669484 0.661419 0.653377 0.645425 0.637631 0.630055 0.622754 0.615782 0.609185 0.603005 0.597280 0.592039 0.587310 0.583112 0.579461 0.576367 0.573836 0.571870 0.570466 0.569617 0.569314 0.569544 0.570291 0.571537 0.573262 0.575444 0.578059 0.581084 0.584493 0.588260 0.592357 0.596759 0.601439 0.606371 0.611527 0.616884 0.622415 0.628097 0.633907 0.639821 0.645819 0.651880 0.657984 0.664113 0.670248 0.676367 0.682449 0.688466 0.694389 0.700185 0.705814 0.711236 0.716406 0.721277 0.725799 0.729922 0.733595 0.736770 0.739397 0.741431 0.742828 0.743551 0.743563 0.742834 0.741339 0.739057 0.735974 0.732080 0.727372 0.721850 0.715520 0.708395 0.700489 0.691824 0.682424 0.672315 0.661530 0.650102 0.638068 0.625466 0.612335 0.598719 0.584659 0.570197 0.555377 0.540243 0.524838 0.509202 0.493379 0.477409 0.461331 0.445183 0.429003 0.412824 0.396681 0.380604 0.364625 0.348770 0.333066 0.317538 0.302208 0.287096 0.272222 0.257601 0.243249 0.229180 0.215406 0.201937 0.188782 0.175949 0.163444 0.151271 0.139434 0.127937 0.116780 0.105965 0.095490 0.085356 0.075559 0.066098 0.056971 0.048175 0.039708 0.031573 0.023771 0.016306 0.009185 0.002416 -0.003989 -0.010020 -0.015661 -0.020899 -0.025719 -0.030105 -0.034042 -0.037516 -0.040514 -0.043023 -0.045032 -0.046534 -0.047521 -0.047990 -0.047937 -0.047364 -0.046272 -0.044666 -0.042554 -0.039944 -0.036849 -0.033280 -0.029254 -0.024787 -0.019897 -0.014604 -0.008928 -0.002891 0.003486 0.010178 0.017164 0.024419 0.031919 0.039640 0.047561 0.055657 0.063906 0.072286 0.080776 0.089353 0.097998 0.106692 0.115415 0.124150 0.132881 0.141590 0.150264 0.158888 0.167449 0.175936 0.184336 0.192639 0.200834 0.208913 0.216863 0.224673 0.232331 0.239820 0.247126 0.254229 0.261109 0.267746 0.274118 0.280201 0.285973 0.291411 0.296492 0.301195 0.305501 0.309391 0.312851 0.315869 0.318439 0.320558 0.322228 0.323458 0.324259 0.324650 0.324651 0.324289 0.323592 0.322592 0.321323 0.319820 0.318120 0.316261 0.314278 0.312209 0.310089 0.307952 0.305830 0.303754 0.301751 0.299848 0.298068 0.296431 0.294956 0.293657 0.292548 0.291639 0.290938 0.290451 0.290180 0.290127 0.290292 0.290673 0.291265 0.292062 0.293059 0.294247 0.295618 0.297163 0.298871 0.300732 0.302734 0.304868 0.307120 0.309480 0.311937 0.314477 0.317092 0.319769 0.322497 0.325268 0.328070 0.330895 0.333734 0.336578 0.339419 0.342248 0.345058 0.347839 0.350580 0.353270 0.355893 0.358435 0.360876 0.363197 0.365378 0.367395 0.369226 0.370847 0.372234 0.373365 0.374218 0.374772 0.375007 0.374906 0.374455 0.373640 0.372453 0.370889 0.368949 0.366637 0.363962 0.360940 0.357590 0.353936 0.350004 0.345828 0.341439 0.336875 0.332173 0.327372 0.322510 0.317627 0.312761 0.307949 0.303226 0.298625 0.294178 0.289914 0.285858 0.282034 0.278464 0.275163 0.272147 0.269428 0.267015 0.264914 0.263129 0.261661 0.260511 0.259674 0.259147 0.258922 0.258990 0.259343 0.259971 0.260861 0.262001 0.263378 0.264977 0.266786 0.268788 0.270970 0.273317 0.275814 0.278447 0.281202 0.284064 0.287020 0.290058 0.293164 0.296327 0.299535 0.302776 0.306041 0.309320 0.312602 0.315877 0.319135 0.322363 0.325547 0.328671 0.331717 0.334666 0.337497 0.340186 0.342712 0.345048 0.347172 0.349058 0.350684 0.352027 0.353066 0.353781 0.354157 0.354183 0.353848 0.353151 0.352093 0.350680 0.348925 0.346843 0.344456 0.341787 0.338865 0.335720 0.332386 0.328896 0.325287 0.321594 0.317853 0.314099 0.310367 0.306689 0.303096 0.299618 0.296281 0.293109 0.290125 0.287347 0.284792 0.282475 0.280407 0.278595 0.277048 0.275769 0.274759 0.274019 0.273547 0.273339 0.273387 0.273688 0.274232 0.275010 0.276013 0.277229 0.278646 0.280254 0.282038 0.283987 0.286088 0.288328 0.290694 0.293173 0.295753 0.298421 0.301166 0.303977 0.306842 0.309750 0.312692 0.315658 0.318639 0.321625 0.324608 0.327577 0.330520 0.333424 0.336274 0.339054 0.341744 0.344323 0.346770 0.349062 0.351175 0.353084 0.354765 0.356195 0.357352 0.358213 0.358759 0.358971 0.358835 0.358335 0.357462 0.356206 0.354562 0.352525 0.350096 0.347275 0.344067 0.340478 0.336517 0.332195 0.327523 0.322516 0.317190 0.311561 0.305647 0.299467 0.293041 0.286389 0.279531 0.272488 0.265282 0.257932 0.250459 0.242885 0.235227 0.227507 0.219742 0.211950 0.204150 0.196357 0.188587 0.180855 0.173176 0.165562 0.158026 0.150579 0.143230 0.135991 0.128869 0.121872 0.115007 0.108281 0.101699 0.095266 0.088986 0.082862 0.076896 0.071092 0.065450 0.059971 0.054657 0.049508 0.044522 0.039700 0.035040 0.030541 0.026204 0.022029 0.018022 0.014190 0.010547 0.007109 0.003901 0.000947 -0.001718 -0.004061 -0.006043 -0.007624 -0.008760 -0.009410 -0.009533 -0.009087 -0.008034 -0.006339 -0.003969 -0.000896 0.002905 0.007452 0.012760 0.018839 0.025692 0.033320 0.041716 0.050871 0.060770 0.071394 0.082719 0.094720 0.107367 0.120628 0.134466 0.148845 0.163726 0.179067 0.194829 0.210969 0.227445 0.244213 0.261231 0.278459 0.295853 0.313375 0.330984 0.348643 0.366315 0.383965 0.401559 0.419067 0.436456 0.453701 0.470773 0.487649 0.504306 0.520722 0.536878 0.552758 0.568343 0.583618 0.598563 0.613159 0.627382 0.641205 0.654597 0.667524 0.679947 0.691827 0.703121 0.713785 0.723773 0.733041 0.741547 0.749247 0.756106 0.762088 0.767168 0.771327 0.774555 0.776854 0.778233 0.778713 0.778326 0.777112 0.775119 0.772405 0.769031 0.765066 0.760582 0.755654 0.750358 0.744770 0.738967 0.733023 0.727011 0.721000 0.715055 0.709237 0.703601 0.698201 0.693081 0.688282 0.683840 0.679784 0.676140 0.672927 0.670160 0.667848 0.665998 0.664611 0.663685 0.663215 0.663191 0.663602 0.664434 0.665671 0.667295 0.669286 0.671624 0.674287 0.677253 0.680497 0.683997 0.687730 0.691673 0.695802 0.700094 0.704528 0.709083 0.713737 0.718472 0.723267 0.728106 0.732970 0.737844 0.742709 0.747548 0.752339 0.757059 0.761679 0.766166 0.770485 0.774597 0.778456 0.782018 0.785235 0.788057 0.790436 0.792322 0.793669 0.794432 0.794570 0.794049 0.792841 0.790928 0.788298 0.784954 0.780906 0.776176 0.770795 0.764802 0.758247 0.751184 0.743674 0.735785 0.727586 0.719148 0.710544 0.701848 0.693131 0.684463 0.675912 0.667541 0.659410 0.651575 0.644086 0.636989 0.630323 0.624123 0.618419 0.613235 0.608591 0.604498 0.600968 0.598004 0.595607 0.593774 0.592496 0.591765 0.591565 0.591882 0.592696 0.593988 0.595735 0.597915 0.600502 0.603472 0.606798 0.610454 0.614415 0.618653 0.623144 0.627860 0.632777 0.637871 0.643117 0.648493 0.653978 0.659549 0.665188 0.670875 0.676590 0.682315 0.688027 0.693703 0.699314 0.704830 0.710214 0.715427 0.720426 0.725166 0.729596 0.733668 0.737331 0.740535 0.743229 0.745367 0.746903 0.747797 0.748013 0.747524 0.746308 0.744357 0.741670 0.738257 0.734139 0.729347 0.723921 0.717909 0.711367 0.704358 0.696948 0.689209 0.681213 0.673036 0.664752 0.656435 0.648157 0.639987 0.631992 0.624234 0.616769 0.609650 0.602925 0.596634 0.590815 0.585498 0.580709 0.576467 0.572788 0.569680 0.567150 0.565198 0.563820 0.563010 0.562756 0.563046 0.563863 0.565188 0.566999 0.569275 0.571992 0.575123 0.578644 0.582528 0.586746 0.591273 0.596081 0.601142 0.606431 0.611922 0.617588 0.623405 0.629351 0.635401 0.641534 0.647729 0.653968 0.660230 0.666496 0.672745 0.678955 0.685098 0.691146 0.697063 0.702812 0.708352 0.713637 0.718620 0.723252 0.727483 0.731262 0.734539 0.737267 0.739398 0.740891 0.741706 0.741808 0.741167 0.739757 0.737559 0.734556 0.730741 0.726108 0.720660 0.714402 0.707346 0.699508 0.690908 0.681571 0.671524 0.660798 0.649428 0.637449 0.624901 0.611823 0.598257 0.584245 0.569830 0.555056 0.539966 0.524603 0.509008 0.493224 0.477292 0.461250 0.445138 0.428990 0.412844 0.396731 0.380685 0.364734 0.348906 0.333228 0.317724 0.302418 0.287329 0.272475 0.257875 0.243542 0.229492 0.215734 0.202281 0.189142 0.176322 0.163830 0.151669 0.139844 0.128357 0.117210 0.106404 0.095937 0.085810 0.076020 0.066565 0.057442 0.048650 0.040188 0.032055 0.024255 0.016792 0.009672 0.002904 -0.003501 -0.009532 -0.015174 -0.020413 -0.025235 -0.029623 -0.033563 -0.037040 -0.040041 -0.042553 -0.044567 -0.046073 -0.047065 -0.047538 -0.047491 -0.046923 -0.045836 -0.044236 -0.042130 -0.039527 -0.036437 -0.032875 -0.028856 -0.024395 -0.019512 -0.014226 -0.008557 -0.002526 0.003843 0.010528 0.017507 0.024755 0.032247 0.039962 0.047876 0.055965 0.064207 0.072580 0.081062 0.089632 0.098271 0.106957 0.115674 0.124403 0.133126 0.141830 0.150497 0.159114 0.167670 0.176150 0.184544 0.192841 0.201031 0.209103 0.217048 0.224853 0.232505 0.239989 0.247289 0.254387 0.261262 0.267894 0.274261 0.280340 0.286107 0.291540 0.296617 0.301316 0.305618 0.309505 0.312961 0.315978 0.318547 0.320666 0.322340 0.323576 0.324387 0.324791 0.324809 0.324469 0.323797 0.322827 0.321593 0.320129 0.318473 0.316660 0.314729 0.312714 0.310651 0.308573 0.306512 0.304499 0.302560 0.300721 0.299005 0.297432 0.296019 0.294782 0.293732 0.292881 0.292235 0.291800 0.291578 0.291572 0.291780 0.292199 0.292826 0.293656 0.294680 0.295892 0.297283 0.298844 0.300564 0.302434 0.304442 0.306577 0.308827 0.311182 0.313630 0.316160 0.318760 0.321421 0.324131 0.326880 0.329659 0.332459 0.335271 0.338086 0.340897 0.343695 0.346471 0.349217 0.351921 0.354572 0.357153 0.359650 0.362043 0.364312 0.366437 0.368394 0.370160 0.371712 0.373027 0.374082 0.374854 0.375324 0.375474 0.375287 0.374752 0.373862 0.372614 0.371009 0.369056 0.366765 0.364154 0.361243 0.358058 0.354626 0.350979 0.347149 0.343172 0.339083 0.334919 0.330714 0.326505 0.322326 0.318209 0.314186 0.310287 0.306537 0.302962 0.299582 0.296419 0.293487 0.290802 0.288374 0.286212 0.284324 0.282712 0.281379 0.280324 0.279546 0.279040 0.278801 0.278823 0.279096 0.279611 0.280358 0.281327 0.282506 0.283883 0.285445 0.287180 0.289073 0.291113 0.293287 0.295581 0.297984 0.300482 0.303063 0.305717 0.308432 0.311197 0.314002 0.316838 0.319694 0.322562 0.325432 0.328293 0.331134 0.333942 0.336701 0.339393 0.342001 0.344503 0.346877 0.349100 0.351148 0.352997 0.354622 0.355999 0.357106 0.357922 0.358426 0.358601 0.358433 0.357914 0.357036 0.355801 0.354212 0.352278 0.350016 0.347442 0.344581 0.341459 0.338106 0.334554 0.330838 0.326993 0.323054 0.319059 0.315043 0.311041 0.307088 0.303214 0.299452 0.295827 0.292368 0.289096 0.286032 0.283194 0.280598 0.278256 0.276178 0.274372 0.272842 0.271592 0.270622 0.269931 0.269515 0.269370 0.269488 0.269863 0.270485 0.271343 0.272429 0.273729 0.275232 0.276925 0.278796 0.280830 0.283016 0.285339 0.287787 0.290346 0.293004 0.295749 0.298569 0.301452 0.304386 0.307362 0.310370 0.313399 0.316440 0.319485 0.322523 0.325543 0.328533 0.331479 0.334365 0.337173 0.339884 0.342475 0.344926 0.347211 0.349307 0.351190 0.352836 0.354221 0.355323 0.356121 0.356596 0.356731 0.356510 0.355921 0.354954 0.353601 0.351857 0.349719 0.347189 0.344267 0.340961 0.337275 0.333221 0.328810 0.324053 0.318967 0.313567 0.307870 0.301896 0.295662 0.289189 0.282498 0.275608 0.268541 0.261317 0.253958 0.246483 0.238913 0.231267 0.223565 0.215824 0.208064 0.200300 0.192549 0.184827 0.177147 0.169524 0.161971 0.154499 0.147119 0.139842 0.132676 0.125630 0.118712 0.111927 0.105282 0.098783 0.092433 0.086237 0.080197 0.074316 0.068596 0.063038 0.057643 0.052412 0.047345 0.042441 0.037699 0.033118 0.028698 0.024440 0.020346 0.016424 0.012685 0.009144 0.005822 0.002744 -0.000059 -0.002555 -0.004704 -0.006469 -0.007806 -0.008674 -0.009030 -0.008834 -0.008046 -0.006629 -0.004550 -0.001777 0.001713 0.005943 0.010930 0.016684 0.023211 0.030515 0.038590 0.047428 0.057017 0.067339 0.078374 0.090095 0.102474 0.115480 0.129079 0.143234 0.157907 0.173057 0.188645 0.204628 0.220963 0.237609 0.254522 0.271660 0.288983 0.306449 0.324018 0.341653 0.359315 0.376969 0.394581 0.412119 0.429551 0.446850 0.463986 0.480936 0.497676 0.514184 0.530440 0.546427 0.562126 0.577521 0.592596 0.607329 0.621700 0.635681 0.649245 0.662358 0.674984 0.687083 0.698613 0.709530 0.719791 0.729350 0.738163 0.746188 0.753384 0.759717 0.765154 0.769672 0.773255 0.775896 0.777599 0.778378 0.778257 0.777269 0.775460 0.772879 0.769587 0.765649 0.761135 0.756121 0.750681 0.744896 0.738842 0.732598 0.726240 0.719840 0.713468 0.707190 0.701067 0.695156 0.689507 0.684167 0.679176 0.674568 0.670374 0.666616 0.663314 0.660481 0.658127 0.656257 0.654870 0.653964 0.653531 0.653563 0.654045 0.654963 0.656300 0.658037 0.660153 0.662625 0.665432 0.668550 0.671955 0.675622 0.679528 0.683648 0.687958 0.692435 0.697057 0.701802 0.706647 0.711574 0.716563 0.721594 0.726650 0.731715 0.736770 0.741797 0.746775 0.751679 0.756480 0.761147 0.765643 0.769928 0.773958 0.777688 0.781069 0.784052 0.786588 0.788629 0.790127 0.791037 0.791318 0.790933 0.789853 0.788054 0.785524 0.782259 0.778266 0.773564 0.768179 0.762148 0.755518 0.748343 0.740682 0.732602 0.724172 0.715466 0.706559 0.697526 0.688441 0.679378 0.670407 0.661597 0.653011 0.644709 0.636745 0.629169 0.622024 0.615350 0.609180 0.603541 0.598455 0.593940 0.590006 0.586661 0.583908 0.581744 0.580164 0.579158 0.578714 0.578817 0.579448 0.580587 0.582212 0.584300 0.586825 0.589762 0.593084 0.596764 0.600774 0.605087 0.609676 0.614513 0.619573 0.624829 0.630256 0.635830 0.641528 0.647328 0.653207 0.659147 0.665126 0.671126 0.677126 0.683105 0.689036 0.694891 0.700638 0.706241 0.711658 0.716845 0.721757 0.726345 0.730558 0.734345 0.737656 0.740443 0.742658 0.744257 0.745200 0.745454 0.744994 0.743802 0.741871 0.739205 0.735816 0.731728 0.726976 0.721602 0.715657 0.709198 0.702289 0.694998 0.687396 0.679558 0.671557 0.663467 0.655362 0.647313 0.639387 0.631648 0.624158 0.616970 0.610137 0.603702 0.597706 0.592184 0.587163 0.582668 0.578716 0.575322 0.572492 0.570232 0.568540 0.567411 0.566839 0.566811 0.567313 0.568327 0.569835 0.571816 0.574247 0.577103 0.580360 0.583991 0.587969 0.592269 0.596863 0.601724 0.606826 0.612143 0.617648 0.623318 0.629128 0.635055 0.641078 0.647174 0.653323 0.659508 0.665708 0.671903 0.678073 0.684193 0.690236 0.696169 0.701958 0.707564 0.712942 0.718048 0.722833 0.727247 0.731241 0.734763 0.737765 0.740199 0.742021 0.743188 0.743664 0.743415 0.742414 0.740635 0.738062 0.734682 0.730488 0.725477 0.719653 0.713025 0.705605 0.697412 0.688467 0.678796 0.668429 0.657397 0.645736 0.633482 0.620676 0.607357 0.593568 0.579351 0.564750 0.549807 0.534567 0.519071 0.503362 0.487480 0.471467 0.455361 0.439200 0.423019 0.406853 0.390735 0.374696 0.358764 0.342968 0.327332 0.311882 0.296637 0.281617 0.266841 0.252325 0.238083 0.224129 0.210474 0.197127 0.184097 0.171392 0.159015 0.146973 0.135269 0.123904 0.112880 0.102196 0.091854 0.081850 0.072183 0.062851 0.053850 0.045176 0.036826 0.028797 0.021085 0.013687 0.006600 -0.000178 -0.006651 -0.012820 -0.018686 -0.024253 -0.029521 -0.034492 -0.039168 -0.043551 -0.047644 -0.051448 -0.054966 -0.058202 -0.061158 -0.063840 -0.066251 -0.068396 -0.070281 -0.071911 -0.073292 -0.074430 -0.075333 -0.076008 -0.076462 -0.076703 -0.076739 -0.076578 -0.076229 -0.075699 -0.074998 -0.074134 -0.073115 -0.071951 -0.070650 -0.069219 -0.067667 -0.066002 -0.064233 -0.062366 -0.060410 -0.058371 -0.056258 -0.054076 -0.051832 -0.049534 -0.047186 -0.044795 -0.042367 -0.039906 -0.037417 -0.034906 -0.032378 -0.029836 -0.027286 -0.024731 -0.022175 -0.019624 -0.017082 -0.014554 -0.012045 -0.009563 -0.007112 -0.004699 -0.002331 -0.000014 0.002244 0.004439 0.006562 0.008608 0.010572 0.012448 0.014233 0.015921 0.017512 0.019004 0.020397 0.021691 0.022889 0.023994 0.025010 0.025943 0.026798 0.027581 0.028301 0.028962 0.029575 0.030145 0.030680 0.031189 0.031678 0.032154 0.032624 0.033093 0.033569 0.034055 0.034556 0.035078 0.035622 0.036192 0.036791 0.037420 0.038082 0.038776 0.039503 0.040264 0.041058 0.041884 0.042742 0.043629 0.044544 0.045486 0.046453 0.047443 0.048454 0.049483 0.050527 0.051586 0.052655 0.053734 0.054818 0.055907 0.056997 0.058087 0.059175 0.060257 0.061333 0.062401 0.063459 0.064505 0.065538 0.066555 0.067556 0.068538 0.069499 0.070436 0.071346 0.072226 0.073071 0.073878 0.074641 0.075357 0.076019 0.076624 0.077165 0.077638 0.078039 0.078362 0.078606 0.078765 0.078838 0.078824 0.078721 0.078531 0.078255 0.077897 0.077459 0.076948 0.076369 0.075728 0.075033 0.074291 0.073511 0.072700 0.071867 0.071021 0.070169 0.069319 0.068479 0.067657 0.066859 0.066091 0.065359 0.064668 0.064023 0.063428 0.062885 0.062399 0.061970 0.061601 0.061292 0.061044 0.060857 0.060731 0.060665 0.060658 0.060708 0.060813 0.060971 0.061181 0.061439 0.061744 0.062093 0.062482 0.062910 0.063372 0.063867 0.064391 0.064942 0.065516 0.066111 0.066724 0.067352 0.067994 0.068647 0.069309 0.069976 0.070648 0.071322 0.071995 0.072666 0.073332 0.073990 0.074637 0.075269 0.075882 0.076471 0.077032 0.077560 0.078048 0.078492 0.078887 0.079226 0.079505 0.079719 0.079864 0.079935 0.079930 0.079846 0.079682 0.079438 0.079116 0.078717 0.078244 0.077702 0.077096 0.076431 0.075715 0.074955 0.074158 0.073331 0.072484 0.071624 0.070758 0.069896 0.069043 0.068208 0.067396 0.066615 0.065869 0.065164 0.064504 0.063894 0.063336 0.062834 0.062389 0.062004 0.061679 0.061415 0.061211 0.061069 0.060987 0.060963 0.060997 0.061086 0.061229 0.061423 0.061667 0.061958 0.062292 0.062668 0.063082 0.063532 0.064015 0.064528 0.065067 0.065631 0.066216 0.066820 0.067440 0.068073 0.068718 0.069371 0.070031 0.070695 0.071362 0.072029 0.072695 0.073356 0.074009 0.074653 0.075283 0.075894 0.076483 0.077045 0.077574 0.078065 0.078513 0.078913 0.079259 0.079546 0.079768 0.079923 0.080004 0.080008 0.079933 0.079775 0.079533 0.079204 0.078787 0.078283 