1.323018 -0.548971 0.098400 0.115474 -0.497744 0.778482 1.424427 1.440096 -0.445942 -0.792757 -0.576027 -0.699862 -1.837713 -0.922881 0.155724 0.335607 0.531231 1.523457 1.415484 0.368309 2.021156 0.706314 0.532679 1.299671 0.244796 0.213309 -1.492376 0.515429 -1.450715 -2.937501 0.966955 -0.114299 -0.895046 1.139231 -0.428357 -1.075802 0.862948 -0.308796 1.164991 -0.695847 -1.180300 0.025302 -0.782217 -0.016791 2.282944 0.241808 0.430854 -0.072059 -0.732085 0.010591 -0.346520 2.808523 -1.135189 -0.452534 -0.841838 1.113545 0.530903 0.057144 -1.587807 2.352352 -0.337831 -1.181162 2.401298 -0.670589 -1.395571 -1.102041 -0.814735 -0.922753 0.855359 -1.058328 0.973905 1.174580 -0.598830 -0.477891 1.259736 -1.699836 -0.730565 0.271393 0.192422 1.042143 -0.694220 -0.388338 -0.246927 -0.241680 2.018512 -1.043503 2.719883 -0.929500 -0.451179 0.422646 0.139808 0.631545 -2.164478 -0.626671 0.402087 -0.453324 -0.589028 0.359067 -0.420153 -0.269576 -0.983003 0.814775 0.551703 1.270927 0.248914 0.434367 -1.148252 -0.980440 -0.210176 1.151424 -0.066365 -1.571847 0.007405 0.189282 3.385465 -0.977488 0.139046 0.400947 -1.145903 -0.281520 0.272734 0.039572 -2.555638 -0.014470 -0.823132 0.099121 -0.089317 -0.961823 0.208818 0.310938 1.140960 -0.910895 -0.641141 1.173085 0.018539 -0.108773 -1.803590 -0.473863 0.388796 0.999061 1.487485 0.504587 -0.020941 -0.635088 -2.278042 -0.588966 -0.117753 -0.371024 -1.038380 0.469278 1.549260 -0.414640 0.419002 1.887074 -0.216935 0.674502 -1.923061 0.176036 -0.883327 -0.065884 0.561665 -0.313231 -0.806949 -0.486425 0.503100 -0.746531 -0.760087 0.180620 0.223118 1.117792 -0.733822 -0.496597 0.460437 0.267989 -0.865466 0.079135 0.155690 -1.521835 -2.036626 -0.047243 0.585712 1.130272 0.984564 0.300254 0.648045 -0.216125 0.399431 -0.101898 -0.288373 2.314838 0.340891 -0.315088 -1.754477 0.311218 -0.146641 0.333069 0.147308 2.073116 -0.413287 0.780243 -0.198207 2.147029 0.603032 1.256759 -0.480150 -0.939854 1.915322 0.407546 -0.749991 -0.630709 -0.224882 1.550652 1.195460 0.100014 1.934538 0.192420 1.103208 -0.052383 0.713925 -0.405644 -1.990796 0.123227 0.877172 -1.006474 2.593467 -0.179724 0.978155 1.827768 0.684292 -0.447669 -0.359900 -0.278572 -1.268143 0.669123 1.308222 0.338200 2.289792 0.485363 0.596522 0.486868 0.269665 0.808163 0.590431 -0.230368 0.851663 0.083179 0.931339 -0.141616 0.748773 2.334825 0.312663 -1.237579 0.046093 -0.770852 -0.059252 -1.121493 1.635784 0.680929 -0.732360 -0.284615 -0.983348 2.442917 -0.923538 0.950965 2.690982 -0.753229 0.501864 1.296454 -0.786472 -0.081448 -0.030509 -1.726112 -1.273585 -0.867098 -1.688137 -0.611580 0.388230 1.217442 -0.474167 -0.014885 1.873905 -1.077402 -0.179361 -0.290213 -0.264319 2.296234 -0.594774 -0.293396 0.835456 -0.886230 -0.971445 -0.121483 -1.060604 -0.054912 0.988428 -0.792060 0.370627 -0.387071 -2.062131 -0.137368 -1.131671 -1.102535 -0.899048 -0.537502 -1.218788 -0.060398 0.759825 0.499409 0.485010 0.542392 -1.116161 -0.053965 -1.085584 1.363230 0.042310 -0.707533 -0.314474 0.813251 1.428047 0.899201 0.714294 -0.136268 -1.566148 -1.314451 1.148843 0.507340 1.135717 0.396418 -0.843945 0.453396 -0.651726 2.386749 -1.010873 0.187384 0.463614 -0.171144 -0.188587 -0.367814 2.101336 0.701966 0.810284 0.049989 1.170757 -1.642205 -0.716317 -0.868680 -0.073627 0.771223 -0.073775 0.274747 0.495518 1.368406 -0.804319 0.950136 -0.136518 -0.924554 -0.696032 0.275404 0.970490 -0.132305 0.063705 1.081249 -0.660576 0.283847 1.794239 1.336134 -1.427951 -1.718648 -2.106994 1.455321 -1.858654 -1.745789 1.381791 -1.026974 0.241212 0.191429 0.109729 -0.076444 0.844854 0.630983 0.546546 0.639116 0.540654 -1.257024 -0.226339 -0.343995 1.226506 -0.789213 -0.466648 -1.829470 -1.379080 1.223030 -0.262670 -0.302464 0.014944 -0.406673 -0.249804 0.508882 -1.583579 -0.593555 -0.421854 -1.191200 -0.128084 -0.092016 -0.094804 1.638708 -0.279692 -0.160935 -0.038863 -0.078622 -1.169657 1.445103 0.220255 0.237673 -2.106795 -1.547197 -1.403356 -0.700669 0.719113 -0.378949 0.108929 -0.314790 -0.007421 -0.238908 -0.547797 1.823016 -0.310940 0.833295 0.066002 -0.632889 -0.653454 -1.659515 -0.805041 0.801907 0.682350 -1.006145 -1.275159 0.019846 0.631749 -0.761728 0.005609 0.115239 -0.504950 -1.140037 -1.003080 0.645915 0.255411 0.141756 0.260066 -0.344863 -0.155456 1.425110 0.002349 -0.158705 -0.867269 -1.419373 -0.356768 -1.378995 -0.532621 0.298811 -0.476531 0.630311 -0.169126 0.765502 -0.358365 0.472493 -1.473416 2.171689 -0.863053 0.999685 0.040036 0.115215 -1.625747 -0.578756 1.040215 -1.173852 0.826075 -0.930007 -1.341539 -1.079985 -0.201649 1.144574 -0.113094 0.145140 0.420207 0.610793 0.374975 -0.806519 0.009420 0.750376 0.600532 0.508568 -0.285365 -0.937705 0.910902 2.197512 -1.043045 -0.737496 0.548065 0.498961 0.192914 -0.017353 1.679236 -1.070756 1.053230 -0.887461 -0.791139 -1.645971 0.221473 -0.854744 -0.719852 -0.378396 0.654975 -1.927868 -0.736406 1.015208 1.458605 2.838216 0.796451 0.255804 0.521437 -0.505539 -0.970065 0.436840 -0.686525 -0.438333 0.004350 0.220456 0.179802 0.917797 -0.217919 -0.176066 0.829557 -0.185180 -0.187138 -1.874170 0.176677 1.700646 0.410358 -0.445951 -0.024913 0.236697 -1.650031 0.106578 0.615831 -0.430003 0.711184 -1.704506 -1.192121 -1.051868 2.252828 1.396491 1.229008 0.690606 -0.605964 -0.315994 2.710811 -0.987103 -1.904309 -0.360035 0.832512 -0.236051 -0.295852 1.470814 0.401643 0.549487 0.499043 1.269661 -2.433741 0.582539 0.305037 1.772732 -1.120033 -0.620145 -1.075695 -0.884629 -0.996646 -0.382346 1.354486 0.403750 -0.936922 -0.441753 -0.291539 1.133865 -0.345120 -0.366981 -0.058567 -0.581736 -0.422378 -1.384654 -0.463467 -0.558584 -0.449420 -1.158381 -0.783608 0.293232 -1.575222 0.343807 -0.670869 1.191834 -0.723344 1.248967 -1.516560 0.497299 -0.566935 -0.692916 0.185638 0.095426 -3.243116 -0.004528 0.821449 -0.517470 1.220733 2.010510 -0.677453 -0.294751 1.508219 0.791550 -1.378162 0.580154 0.531098 -1.192800 -0.906924 0.867407 0.511225 -1.366753 0.727903 1.519587 -0.419482 -2.015850 -0.783008 0.038956 1.446819 -0.720455 -0.417131 0.082309 0.273473 0.005314 1.398831 -0.697999 -0.442185 -0.994120 0.027616 0.650197 1.168265 -0.766949 0.489673 0.678711 -0.353201 0.393326 0.980524 1.585182 0.511024 -1.030686 1.031312 -0.944971 -1.879334 -0.098929 0.637000 0.504032 -1.071196 -0.503699 -0.291085 -0.344408 -0.638218 0.964616 -1.723162 0.575067 -0.221359 0.646817 -0.462545 -0.410414 0.517180 -0.468807 0.516525 -1.375972 -1.888374 -0.741188 0.942173 1.352127 1.957742 0.278742 -0.151889 0.967444 -1.238937 -1.533228 0.096517 -0.895053 -0.636331 0.609563 -1.038247 -0.785188 0.192375 -1.782205 0.935111 -0.991657 -1.595547 1.376671 -1.406114 -1.243149 1.480918 -1.423653 1.308786 -1.407737 -0.185238 1.481496 0.303894 0.084370 0.969757 0.982929 -0.131953 -0.924527 -0.031946 1.490750 1.042108 0.829861 -1.631852 -0.984593 0.865215 1.101526 1.320863 -0.559903 0.930006 1.107654 2.610046 -0.783932 0.983366 0.003397 1.763010 0.515246 0.403478 -2.115163 0.114545 0.857656 -0.518183 0.398101 -2.046870 0.408574 1.200053 -0.884341 0.841991 0.824643 0.009916 0.952235 0.014699 2.483303 0.245331 -0.543168 -0.353990 -1.057685 -1.888988 -0.101361 1.464095 2.008710 0.329761 -0.026735 0.347634 0.181589 0.519728 2.559352 -1.363409 0.203494 0.617073 -0.323020 -0.543288 1.056832 -0.962034 1.060268 1.165160 -0.661574 -0.392747 -0.268260 1.319116 -0.030618 0.053512 1.091358 -0.542196 -0.309023 1.368566 0.078752 -0.884812 -0.537722 -0.305359 1.436905 0.232661 -0.657947 -0.327418 -0.898299 0.911136 -0.371826 -2.101598 -0.729839 0.435289 1.132145 0.828927 -0.855174 -0.394378 1.586621 -0.634922 0.052097 0.860644 -2.615929 0.625690 -1.208294 -0.292148 0.445971 -0.408684 0.626312 0.712630 0.758124 -1.189258 1.686573 1.199148 0.874471 -0.054804 1.027563 -0.764229 -0.675736 0.127320 0.686277 -0.341818 -0.102795 -0.665600 -0.412314 0.476863 -0.712399 1.031975 0.914935 0.111842 0.295497 1.241086 -1.661919 1.957634 -1.123118 1.619192 -0.319270 -1.752087 0.390682 1.096077 -1.020880 -0.103134 1.052598 -0.783850 -0.482005 -1.251371 0.551064 0.277286 -0.657129 0.424170 -0.269789 -0.051120 1.591304 -0.542260 -1.346909 -0.102261 1.640786 0.268754 -0.620495 -0.297715 -0.078363 -1.800867 -0.838917 -0.936092 -0.876238 -0.645422 -0.387423 1.527569 1.312217 0.310752 -1.365830 0.737348 -0.451636 1.016471 0.598506 0.577314 0.787627 0.903807 0.760808 -1.289179 -1.138679 0.588350 0.293779 0.149483 0.302841 -1.157380 -1.613377 -0.536582 0.878496 0.341575 0.354424 0.689091 0.970900 0.071736 -0.965765 -0.200528 1.293691 0.909033 -0.035306 -0.541907 -0.999017 0.013157 -0.370863 -0.676042 -1.463483 0.782088 -0.053921 1.745238 -2.010392 0.194857 -0.708000 0.117454 -0.153547 -0.203815 0.011537 2.737356 1.504589 1.221327 1.207215 0.230565 -0.732960 1.757923 1.982152 0.604633 -0.037234 -2.191139 -0.748520 -0.071728 -0.611479 -1.668971 -1.056542 -0.423124 -0.166501 -1.033186 2.454648 1.080218 1.043853 1.157285 2.062119 -0.044578 -0.158707 -2.016216 -1.009412 -0.114869 -0.286135 -0.197782 0.134544 0.483364 0.503558 -0.466442 0.344414 1.901563 -1.084335 -0.761549 1.263826 1.002037 -1.050615 -0.808472 0.284892 0.190351 0.096945 0.865698 0.803798 -0.838630 -2.223198 -0.140679 -0.438836 1.892641 -1.133513 -0.536112 1.757759 -1.873098 0.867140 0.364668 -1.538800 0.479003 1.473597 0.340338 -0.524661 -1.909764 -0.779245 -0.855995 0.686980 -0.549290 0.667300 0.102829 1.227042 0.133707 -0.067123 -1.052768 -0.112140 -1.028144 -0.932761 0.113704 0.091684 0.156303 -0.640032 -0.390362 -1.209745 -0.224232 -0.414585 0.387291 1.225001 -0.538802 -1.035942 -0.742721 -0.775146 -1.045735 0.604647 2.160453 -0.603490 -0.875611 0.427672 -0.680278 -0.153262 -0.498326 -0.485695 0.645388 -0.062937 0.018837 -1.729253 -1.442259 0.290237 1.662151 1.201428 1.224923 1.527889 0.702274 1.415882 -1.795766 0.780475 0.375152 -0.617785 0.457327 -1.122881 0.103930 1.703912 -1.321061 0.534012 0.586706 0.577175 -0.423864 -0.258929 -1.991872 0.870530 -0.300982 -0.437339 -1.082173 -0.630740 0.424754 1.917492 -1.142136 -0.006817 1.125540 0.923361 0.621232 -1.267368 0.757250 -1.135577 1.614340 -1.500483 1.415487 -0.455534 -0.224189 0.723622 -0.377058 -0.333433 -0.372258 -0.217270 -0.288267 -1.881818 0.181320 0.070809 0.877044 -0.146817 0.085627 1.112894 -0.796216 -1.576575 0.242732 0.033815 0.723166 0.668409 -0.059203 0.219542 1.158818 -0.976136 -0.169960 1.500911 -0.554989 0.512922 -0.262733 0.739806 0.519235 0.372449 -0.640500 0.408217 1.276054 -0.776149 -0.578486 1.286917 0.163755 -0.777995 0.295805 0.272979 0.208054 1.039739 -0.026050 0.062546 -0.658324 1.179450 1.631407 -1.319202 -1.775875 -0.402098 -0.401810 0.188509 0.844259 -0.918712 -0.337035 -0.818475 0.086857 -0.281115 -0.435956 -0.362828 -0.110413 0.109419 0.953516 0.741463 0.567666 1.407148 1.222490 -0.679680 -2.231741 0.705586 0.243236 -0.950905 0.969481 -2.369712 1.844622 -1.932426 0.873654 -0.436412 -0.309032 2.398513 0.296641 -0.361950 -0.236093 1.651348 -0.751514 -1.600601 0.418097 -1.387999 -1.063863 -0.064506 -0.100882 0.757144 0.770461 -0.939840 1.092627 1.804353 1.276778 0.954809 0.099149 1.127574 0.066509 0.785832 -0.451122 0.499917 0.473102 0.467377 -0.387825 -0.242796 -1.007189 -0.918824 0.860104 -0.299807 0.712202 -0.896048 -0.437371 -1.177983 -0.243110 -0.494696 0.302577 -0.479220 0.712562 -0.883793 1.065859 -0.950777 -0.049129 0.738291 -1.140135 0.034365 -1.634612 -0.406055 -0.526781 -1.371365 -0.347232 -1.080728 0.968540 -0.963278 0.184793 0.999945 -0.030113 -1.744029 -0.557892 -2.241917 0.487887 -0.690966 0.212765 -0.505683 0.787025 1.609373 0.332639 -2.340904 0.613403 1.245705 -0.163004 -1.046924 -0.648876 -2.078728 -0.905501 -0.208471 -1.424686 0.578697 -0.156702 0.114089 -0.656280 0.338346 -0.839291 1.683162 -0.477997 1.364909 -1.271880 -0.885168 0.049831 -1.152683 0.489156 -0.630973 -0.297027 1.614641 0.608323 -2.133026 0.840020 -0.300026 2.024654 -1.077502 -1.567007 -0.204654 0.713625 1.113258 -1.134389 0.155236 1.176155 -0.633582 1.918544 -0.330531 -0.261862 -0.170244 -0.103477 -1.135304 -1.039587 1.695809 0.364361 0.451153 1.435038 0.520802 -0.397628 -1.279230 1.310284 1.578358 -1.361437 1.696565 0.817232 -0.885190 0.932691 1.435131 0.055750 -0.763324 -2.083419 -0.824786 -0.816563 -0.130760 -0.339151 -0.064816 1.186475 0.342246 0.363126 1.061691 1.624995 1.208746 -0.669268 -1.219514 0.776611 0.416116 -0.841813 0.138815 -0.533129 -1.938937 1.068737 -1.052295 -0.187976 -0.117726 2.645895 -1.223515 1.835634 0.744755 -0.328165 -0.307097 -0.393802 0.407095 1.050017 0.978330 -0.827325 0.542546 -0.335446 -0.459748 0.229884 0.039378 0.080138 -0.588531 -1.978597 0.976448 -0.248128 0.438343 1.210206 -1.326091 0.078714 -2.436268 -0.437388 0.029229 -0.180684 0.731671 -1.623557 0.856818 -1.890201 1.762952 0.121364 -0.850423 -0.504513 -1.887477 0.251963 -0.147419 -0.317333 -0.380599 -0.011349 0.173011 0.143824 0.050693 -0.980087 -0.813605 0.136409 0.849648 -1.109881 0.071629 0.190331 0.155907 0.878593 -0.253085 1.526443 -0.427880 1.488489 -0.590186 0.378014 0.211203 0.070019 -2.575954 0.485184 0.355478 -1.632032 0.461711 1.314826 1.157687 -0.701848 -1.233915 0.663629 1.193486 0.665909 1.310916 0.527448 0.801988 -0.940588 1.658829 0.095559 -0.963340 0.149230 -0.590660 0.476903 -0.544852 0.415234 0.262210 1.201740 1.899327 0.758704 0.820866 -1.815981 1.132168 -0.274495 0.366353 0.214778 1.286290 3.077970 -1.626692 0.650100 -0.430999 2.065528 -1.305932 0.695775 0.776608 -0.833475 1.262218 0.880586 -0.184080 0.690936 0.759296 -0.242812 -0.968093 -0.727069 1.848224 -0.355562 -1.081306 0.224848 -0.457792 -0.394393 -0.466262 0.390249 -0.562797 -1.095800 -1.622454 0.404195 -0.676564 1.026497 0.008520 -0.594230 -0.189385 -0.098251 1.441233 0.892447 0.778814 -0.014905 0.329992 0.311036 0.900985 -0.370388 1.358543 -0.484226 0.665735 -1.079363 -0.881588 0.861081 1.356270 0.204786 0.383633 -0.979556 1.065708 0.708894 -0.602265 -0.590660 -0.300962 -0.959743 -0.803098 1.013830 -1.048981 0.119635 0.271323 -2.255394 -0.935286 -0.006291 0.593223 1.180734 -2.236356 0.286313 0.420704 -1.538129 0.097413 0.790320 -0.203475 -0.843266 -1.236196 0.676521 -2.241586 -0.296759 -0.443220 -0.311612 -0.127362 0.910480 -1.776437 0.293744 -1.524304 1.952458 0.519500 -0.387111 -0.060520 1.044710 0.815600 -1.370603 -0.305810 -0.376120 -0.305372 1.375927 0.221715 1.182665 0.318435 0.416814 0.229287 0.899228 -1.187140 -0.165035 -0.075321 -0.958371 0.077474 -1.697167 -1.366819 -0.294984 0.554947 0.300596 1.231486 0.404986 0.547130 1.405621 -0.760697 -1.667067 0.251298 -1.684456 1.069748 -0.009203 -0.713602 1.376727 1.293828 -0.744928 -0.674822 -0.517000 1.079651 1.568733 0.375244 -1.189427 -0.560846 0.457667 -0.897062 1.496471 1.098457 1.167739 -0.349296 -0.813104 0.123292 -2.027188 0.560359 -0.691498 -0.384262 -0.871347 -0.393590 1.395522 1.782747 -0.348697 -0.169251 -1.546251 -1.248853 1.254557 2.302963 -0.859923 -0.226988 -0.464543 -1.160335 -0.438070 -0.889823 -0.158928 -0.009818 0.374755 0.533528 -0.276934 -1.113086 0.640590 -0.578510 1.953141 0.750679 -0.851837 -2.111387 -0.747521 -0.135317 -0.686721 -0.730852 1.310779 -1.093441 -1.439424 -2.012153 -0.223228 0.194328 0.750115 0.736279 -1.536206 -2.461748 -0.318851 -0.832906 -1.357615 0.437529 -0.262103 -0.646883 0.661028 0.470696 0.059851 -0.133808 -0.175762 -0.166570 -1.821688 -0.669640 -1.606809 -0.624552 0.177263 -1.613714 0.548496 1.427689 -0.537115 1.237831 0.161698 -0.811139 1.824800 -1.240133 -0.307622 -0.263683 -1.065666 -1.044276 -0.902250 -0.853627 0.021431 0.936292 -0.125863 -0.800291 -0.497326 0.359078 -0.009785 -0.258786 0.608476 -0.252649 0.807853 -1.076279 -0.959773 -0.963048 0.736357 -0.508703 0.437512 1.422718 -1.266399 -0.012804 -0.142176 1.319858 -0.119473 -0.052104 0.978853 0.094314 0.121693 -0.946476 -0.033502 1.498907 0.267049 -0.596242 0.608595 0.644275 1.251179 0.844652 -1.096118 0.955483 1.715190 0.401605 -0.612696 0.512466 2.171344 -0.925460 0.982970 -0.926643 -2.379940 0.620740 0.252080 -0.048083 -0.803381 -1.083954 0.130352 0.932878 1.351510 0.072350 -0.511072 -0.112474 0.816180 -0.463931 1.095124 1.717333 1.559188 -1.021000 -0.537661 0.397228 -1.776444 -0.933464 -0.090525 -0.844731 1.272904 0.427367 -0.387090 -0.211398 1.574687 1.013566 0.704817 1.590734 -2.820788 0.538002 -0.598745 -0.025549 -1.194105 -0.819906 -0.427089 0.668065 -2.853701 -0.719998 -1.477343 -0.524728 -0.575868 0.415175 -2.085495 -0.584501 0.489324 0.086060 1.616563 0.438141 -0.250134 -1.688641 1.285698 0.595058 0.965691 -0.968922 -1.348490 -0.800443 0.085227 -0.343252 -2.349170 0.812525 -0.070551 0.931763 -0.087190 -0.851754 -1.539418 -1.357794 1.190576 0.553281 0.494529 -1.003810 0.498362 -0.422775 -1.522005 -2.500059 -0.576508 1.140876 0.009741 0.256683 -0.307755 1.738566 1.249254 -0.149975 0.576427 -0.348495 -0.214928 -1.146831 -0.196802 0.489206 -0.534020 -1.221991 0.003697 1.788577 -1.302442 -0.211460 -0.139062 -0.119917 -1.063810 -0.965366 -0.018776 3.368224 0.156315 1.151660 1.308170 0.363468 -0.735327 -0.920754 -0.218362 0.422891 2.134230 -1.613521 -0.023469 0.236475 0.888184 -2.279662 0.582765 2.197757 -0.758056 0.544167 1.474498 -0.480440 2.078439 2.443415 -0.750601 0.490063 0.688817 -1.306909 1.306860 0.886150 -1.124891 0.220230 -0.372520 1.387113 1.854325 -0.253851 -0.952557 1.280771 1.046141 0.582998 0.436737 0.482354 1.476467 -0.408529 -0.338320 0.518704 -1.359320 -1.169298 1.633601 1.305303 1.154064 1.315802 0.551711 -1.120174 -0.092605 1.276035 1.515175 0.418752 -0.087584 0.437123 0.535500 -0.636743 0.886525 -0.284382 -0.087994 1.065467 1.056343 0.937807 0.856762 -0.060222 1.701827 0.531477 2.135583 -0.806492 -1.271620 0.831195 0.539318 -0.652430 1.187299 -1.339227 -0.821989 1.257130 -0.008808 -0.179088 0.003864 1.103615 1.851110 -0.074927 0.900695 -0.030339 0.918928 -1.108173 -1.811405 -0.619111 -1.417659 2.267565 0.914549 0.195920 0.624320 0.904856 -0.206759 0.410060 1.000710 -0.169069 -0.738510 0.527508 -0.368134 0.503455 -0.530981 -0.428967 -1.107109 0.956335 -0.996203 -0.822902 2.033424 -1.788979 2.147881 -0.776331 1.221998 1.830554 0.715828 -0.247978 -0.064920 0.079066 -1.940270 -0.774433 -0.819667 1.911511 -0.946895 0.409524 -0.215800 1.703885 1.250041 1.704638 0.601109 0.730562 -0.851155 0.969674 -0.302052 0.371071 -0.552458 -1.121246 0.184625 0.174475 0.943138 -0.171889 -0.783513 0.416119 -1.321313 0.550381 0.264878 -0.653225 -0.384347 -0.072228 0.860827 1.467115 1.211978 -0.648399 0.644598 1.489094 -0.701188 0.157706 -1.621234 0.479669 -0.496400 -0.405986 -0.334076 -0.994558 0.192794 1.830633 0.608436 -1.167898 1.111695 -1.613283 0.292931 0.856843 -0.350865 -0.188751 -1.540927 -0.194416 1.408182 -1.633891 0.289633 1.269970 0.347570 -0.488385 -0.251822 0.595542 -1.424026 -2.077953 -0.076014 -0.115058 -0.982147 -0.696727 -0.392940 -0.245488 0.651299 -0.463673 -0.408497 -1.070947 -1.684556 0.228329 -1.778155 -0.702685 1.166167 1.058586 2.714456 -0.155595 -0.721104 -0.563975 1.018474 0.224329 -0.101604 -1.599605 -0.935953 -0.566638 0.995761 -2.155369 -0.074413 -0.754441 1.239041 0.128232 -0.770172 -0.549271 -0.450716 1.261175 -0.149170 -0.096704 0.927884 -1.643814 -1.316037 0.473359 -0.811965 1.701209 0.613879 -0.073801 -0.598874 0.541449 -0.770935 -1.026114 -0.136553 -0.188763 0.005922 1.021542 0.063910 0.093302 0.105210 -0.894671 0.846044 0.551067 1.269313 -1.466187 -1.776205 -1.406456 0.293550 -0.237785 0.448454 -0.226027 0.265081 0.527999 2.055618 -1.222153 1.491191 1.229204 1.020149 0.051570 1.027285 -1.773202 -1.543986 0.320234 0.727501 0.489002 0.640603 0.098069 -0.503507 -1.243267 -0.506262 0.887748 0.512166 -0.290857 1.058182 -0.532685 -0.388247 -1.406312 1.126219 -1.101138 0.897944 -0.785942 -0.379552 -1.037725 -1.847443 0.836567 1.220506 1.014631 0.215375 0.711393 -0.101024 -0.226735 -0.568809 0.029050 -0.925668 -0.618237 -0.318993 0.675663 -0.351077 -1.185053 0.800412 -0.269768 0.612634 -1.261090 0.803994 -0.219597 -1.923698 -0.754173 1.844121 0.485012 1.264238 0.484286 -0.195806 1.715825 -0.567954 0.064812 -1.841875 -0.540358 -0.506965 -0.459476 1.311233 -0.638714 1.481906 -0.411823 0.644391 1.252454 0.025328 0.827161 -0.158548 0.012555 -0.906392 -2.484445 -0.469679 1.126233 -0.105037 0.902341 0.295987 0.575189 0.538245 -0.617344 0.054852 0.759570 -0.252756 2.479205 1.334509 0.409553 -2.073640 0.115740 -1.140556 -1.358727 -1.312654 -0.160373 -2.455003 -0.881606 0.199970 -0.928435 0.919479 -0.957100 0.264890 -0.533516 0.479094 1.027141 -1.881995 0.281609 0.222228 -0.707836 -1.568086 -1.255360 -0.259808 1.371645 0.183790 -0.642425 -0.168427 0.882257 -0.363219 -0.583399 1.111571 0.010490 1.007431 -1.669743 -0.403854 -1.308354 -1.302125 -1.381428 -0.408864 1.461776 -0.432374 0.834735 -0.031280 1.760310 0.339030 0.096872 -0.853486 0.205015 0.135840 -0.943627 -0.809038 0.185625 0.166361 0.954912 -1.783467 0.400512 1.218832 0.843995 -1.175650 0.890172 2.547090 -1.463720 0.613403 -0.419740 0.473034 -0.629664 -0.577377 -1.402602 -0.200448 0.727988 -1.326522 0.750367 1.563483 0.494238 -1.257809 -0.894486 0.025167 0.582516 0.225932 0.150952 -0.423015 -0.024614 -0.004930 -1.127951 -1.153718 0.681648 -0.360406 0.648459 -1.019785 -1.525118 1.369413 -0.002398 0.606803 -1.225037 0.171780 -0.642759 0.284754 0.834555 1.367646 -0.480082 0.725616 -0.087072 0.680922 -0.522879 -0.616372 -1.414933 -0.251199 -1.089754 0.740024 -1.139747 -0.845624 0.319243 0.227388 0.952246 -0.146580 -1.721282 -0.444606 -0.410438 1.930487 0.455760 0.530145 0.803796 0.959853 -1.002930 -0.214520 1.276697 -0.966157 1.033436 0.143564 -0.556019 1.376766 0.178231 1.684718 0.467053 -1.167002 0.029946 1.777522 -1.422483 0.438450 -0.399515 0.618018 0.588086 -1.227658 -0.132450 -0.100368 0.745435 0.427599 1.323015 1.242219 -0.483259 0.641701 0.406591 1.858264 -0.411088 -0.220491 -1.703952 -0.386915 1.251547 -1.051968 0.017378 -0.606244 0.685840 1.434363 -1.489696 2.238289 -0.753494 1.234626 -0.756292 0.323912 -2.403603 0.633771 0.387565 0.981946 0.136245 -0.480993 0.803713 0.607763 -0.551517 0.190419 1.063616 0.050424 1.940332 -1.767467 -0.452312 0.493114 -1.569845 -0.650079 -0.530074 -0.314909 -1.030151 -0.632780 -1.436658 1.391533 -0.699150 1.128117 1.084981 -0.635693 -0.350874 1.417522 -0.838256 0.823212 1.594617 -1.250535 0.112502 -1.505483 -0.534878 0.979671 -0.255566 -0.211777 0.183182 -0.403485 -2.098925 -2.695632 0.931264 -0.491317 0.418391 -1.108650 0.442558 -0.295823 0.483523 0.899629 -0.386304 -0.165218 -0.848906 0.262208 0.017650 0.713705 1.341732 -0.530912 0.692893 -1.078972 0.768022 0.319217 -0.803537 0.213444 0.319912 1.241926 -1.624421 0.494068 0.292485 0.131599 0.018738 -0.834692 -0.562271 0.423656 0.259278 0.023172 0.964998 -0.814114 -0.532184 -1.293088 0.486683 0.108108 0.857090 1.693120 1.666571 -2.648955 0.591073 -1.485633 0.857870 -0.545163 -0.422022 0.868599 1.078472 1.030440 -1.900553 -1.507754 -0.582259 0.977077 1.352030 -0.541810 0.071388 -2.100207 0.064750 -0.463692 -0.026377 -0.175121 1.020699 -0.487709 0.711383 1.463389 -0.818926 0.090693 0.027862 0.009829 -0.883295 -1.520650 0.441979 1.119247 1.710941 0.585124 -0.029051 1.138870 0.028205 1.456558 0.868327 -0.161778 -0.775386 -1.260250 0.649701 1.073549 0.678257 -0.220082 -0.612084 -0.208277 -0.264779 -0.548203 -0.730457 -0.576816 2.292695 -0.589665 -0.276365 0.805008 -0.242128 0.483765 -0.621038 -0.517386 2.221995 0.188529 -1.539589 -0.213987 -0.138480 -0.381781 -1.375281 -0.287301 -0.159295 -1.672290 2.160262 -0.070502 1.717143 -0.206018 0.034313 0.912332 -0.247173 -1.253306 0.548555 -0.375760 0.519917 -0.317110 -0.161801 -0.927255 0.988694 0.635609 -1.338956 -0.922489 1.085975 -0.901995 0.008754 -2.599054 -1.209602 -0.137145 -0.292250 -0.403945 -0.206174 -0.722468 -0.478450 -0.412443 1.120797 0.725594 -1.089636 -0.647341 -0.378324 -1.310909 -0.519694 -1.536587 -1.319899 -0.960337 0.161259 -1.665009 0.393344 -0.550485 2.092312 1.674806 1.421254 1.353069 -1.318576 -0.190247 -1.414559 0.131762 -0.314046 -0.216751 0.967656 1.102602 -0.646317 -0.566475 -0.591130 0.912642 -2.113812 2.585143 -0.409654 -0.947498 1.170750 0.864862 0.460689 0.245760 0.310348 -0.617706 -2.947497 -0.808143 -0.156970 -0.426771 0.471674 1.531161 2.486138 0.580842 -0.237962 0.539141 0.154801 -0.242087 -2.134576 -0.792395 0.314336 0.248847 -0.727637 1.232686 1.156724 0.159089 -0.660919 0.295325 0.971183 -0.262432 -0.267249 0.717836 -0.135333 -0.056242 1.644016 0.370297 1.199291 0.257325 0.320128 1.138645 -0.003585 -0.118673 -0.990474 0.130450 0.031077 -0.005528 -0.852910 -0.562759 2.247709 0.025965 -0.797745 0.370088 0.403551 -1.499494 -0.453878 -0.482119 2.982410 0.765852 0.857549 -1.516139 0.781565 0.413979 -0.176966 0.471678 -2.110559 0.432948 0.459098 0.293427 2.652071 -0.345246 0.858595 -0.792780 -0.577402 -1.661772 -0.761746 0.867610 0.656433 0.017373 -0.460154 0.828872 0.568970 0.182821 1.660285 0.510015 -1.048375 0.276041 -0.652625 -0.787068 0.000935 -0.104502 -0.012912 1.131339 0.252095 -1.441706 -0.230212 -1.219177 -0.395285 0.368544 2.033272 -2.466009 1.046543 -0.714338 -0.789508 0.794861 0.399052 -0.516362 -0.986643 1.254578 -0.008714 0.765273 -0.361784 -0.236510 -0.918434 0.135622 1.673081 0.321999 0.409678 0.587248 -1.037756 -1.740465 0.096415 -0.319603 0.399727 -0.372727 -0.821759 0.504321 0.434125 1.837014 -0.436720 -0.195793 0.046922 0.111477 0.782506 0.436242 1.231355 -1.446070 -1.751714 2.030358 0.471345 1.005707 0.936529 -0.562894 0.722979 -0.249563 -1.400618 -0.590251 -0.533648 1.256233 -0.586233 -0.180942 -1.666590 -0.402882 0.277541 -0.123490 -0.164957 0.086086 -0.443924 -1.111599 -0.101714 0.486356 0.187159 -1.529559 -1.859305 0.373083 0.140481 0.694107 2.213342 -0.548590 0.840425 -0.833220 1.733246 0.096949 -2.715428 -0.419529 -1.116719 -0.072673 -1.133033 -0.889433 2.784001 0.671839 -1.027108 -0.664805 -0.448145 -0.695127 -0.088020 1.412258 -1.377977 -0.641812 -1.130817 -0.186792 -1.392451 -0.569674 -2.287320 0.007925 0.150955 0.931371 1.631817 -0.298891 -0.027003 -0.853160 0.854873 1.113605 0.697296 -0.198801 -0.678285 1.398735 -1.666115 0.957756 -2.080772 0.041604 0.077543 0.959272 0.783767 -1.849551 -0.417066 -1.333454 1.271030 -1.987763 0.981319 -0.757308 0.508353 -2.082683 1.656732 0.245005 -0.863579 -0.571661 -0.393541 -0.274469 0.454374 0.237265 -1.633440 2.356187 -0.669720 0.280382 -1.514802 1.342036 1.754609 -0.416506 -1.076822 -1.561424 -0.314135 -1.530930 -0.734884 0.057040 1.081390 1.174965 0.348967 1.336555 1.047835 1.550993 0.166021 -1.625390 -1.252238 -0.223216 0.385830 0.045401 -0.724939 -0.260684 0.059743 -0.859023 -0.079814 -1.141977 -0.120342 1.666346 1.413284 -0.440940 1.649904 -1.148657 -0.205381 0.431307 0.888732 -0.253285 0.051669 0.331431 0.322056 0.221085 -0.041822 0.749107 -1.097317 0.096616 0.952642 -1.020161 0.023157 0.040876 -0.842901 0.162031 0.140795 1.770347 0.615905 -0.154319 0.030886 -0.780618 0.050573 -0.277559 -0.376768 -0.261367 -1.701288 0.492753 0.325518 0.996468 0.754594 0.809345 -0.841684 0.315970 -0.733496 0.802012 0.449451 0.374201 -1.177222 1.059268 -0.842067 2.573206 0.176502 -0.691144 0.585528 -1.103502 2.466591 -0.029198 -0.886332 2.006585 -0.707732 -0.552436 1.214282 0.014628 -0.133677 0.076296 1.886405 -1.918792 -0.502070 1.253029 1.688170 -0.419149 -1.000325 -0.508856 0.494474 0.208204 1.567557 -0.432258 0.030216 0.374730 0.307125 0.892600 -2.043297 0.980769 -0.900228 0.231677 0.157849 -0.681944 -1.342024 -0.164161 1.540535 0.169575 0.290332 -0.389628 -1.794312 0.262247 -0.117590 0.421483 0.323906 -1.121579 -0.576704 -0.358055 -0.516580 0.084020 0.836001 -1.808983 1.443531 -0.397533 1.337904 -0.774298 -0.637422 2.064112 0.769449 -1.931761 -0.609378 -1.240294 1.326023 -0.932826 0.022065 0.215646 0.531750 -0.333157 -2.103163 0.785687 0.355673 -0.682229 2.077806 1.062462 -1.475864 0.732296 -0.390128 1.880695 -1.292977 -0.973432 0.245117 -0.503501 0.346719 0.074898 0.955867 0.849034 0.074071 -1.590737 -0.416028 -0.531240 0.080956 -0.961650 -0.655855 -1.125472 -0.753257 1.887641 0.409781 1.206512 -0.511268 -0.089135 0.805140 -0.459046 1.902691 0.538633 -0.193084 0.117635 0.274800 -1.683571 -0.742825 -0.812245 0.890664 -0.065021 0.174618 1.275874 -0.519214 -0.407854 -0.522078 -0.630544 0.151146 1.839576 1.566249 -0.173617 0.264685 -0.561910 0.175060 0.586708 -1.534429 -1.165466 -0.668435 1.284032 -1.697186 0.350907 -0.551118 0.496778 0.422709 0.309077 1.143505 1.860797 -0.093012 -0.040640 0.043574 0.743850 -2.201261 -0.148128 -1.891524 0.209490 0.152417 -0.751119 0.388061 -2.099565 0.132482 2.471961 -0.766259 0.243845 -1.208826 -0.787905 0.048330 -0.261676 -0.538107 0.506518 -0.147947 1.745127 -1.086492 -0.034830 -0.129445 1.473726 0.143603 1.026116 0.193559 -1.386271 2.414933 0.785973 -0.421225 -0.275147 0.025242 -0.840457 -0.774572 0.048372 0.708910 -1.033027 -1.489669 -0.181131 1.518881 1.867675 -0.282138 0.929660 0.243391 0.303431 -0.011617 -1.176353 -0.232419 -0.173678 -0.929918 -0.708264 -0.463503 0.465791 1.174434 1.826192 -0.114503 0.223002 -0.516861 1.154060 -0.280202 -1.299618 -0.989775 0.214687 0.206478 -1.641497 0.455344 0.384831 -1.358947 -1.076107 -0.023212 -0.140582 -1.064860 0.897866 -0.975352 1.096429 -1.641926 -0.498024 -0.523426 0.302115 0.955561 -0.082263 -0.655124 -0.348934 -1.106993 -1.217483 -0.423310 0.313717 -0.589018 1.504651 -2.007467 0.242345 -1.633594 0.101002 -0.268824 -0.305445 1.620310 -0.213424 0.962554 0.748637 -1.173842 -2.030885 1.647147 -0.698944 -0.695246 1.373582 -0.443642 -0.215515 -1.021513 0.699401 -0.620734 1.184879 0.938701 0.068015 1.196418 1.014355 0.710550 0.395993 -0.578930 0.332752 -0.619825 0.290035 1.857101 0.660319 -1.026464 -0.578543 -0.431939 1.072233 -2.047745 -0.873064 -0.560923 0.573882 -0.435896 -0.377605 -1.106011 0.876276 2.395702 0.045982 -0.666082 2.329693 0.214983 -1.719448 1.069202 -1.060938 1.636707 0.497208 -1.195643 1.819034 -0.947388 -0.023017 0.613156 1.310145 0.121915 1.230998 -0.518119 -1.221989 -0.996362 -0.289109 0.302532 0.168939 0.391147 -1.911904 1.360634 0.106371 -0.207186 -2.048457 0.170923 0.175852 0.969502 -0.064145 1.774037 0.820524 0.790717 0.667023 -0.432179 0.440175 -0.639425 0.280950 1.036732 -0.770398 0.388994 0.443710 1.229572 0.037182 0.091782 1.860332 0.699270 -1.940947 0.209873 -0.738427 0.054457 -0.102874 -0.054662 0.151016 -0.441454 -0.246912 0.530617 0.330784 0.181367 -1.468586 -0.149970 1.621867 -0.549889 1.225679 1.113392 0.255308 0.360597 -1.381513 -0.419356 0.292659 0.069390 -0.880281 -1.292059 -1.649649 -0.482087 -1.491846 -1.489807 -0.380350 1.543565 -1.184108 0.153784 -2.305991 -0.196758 1.255380 0.649886 0.480912 -0.086085 1.246270 0.146940 0.806257 1.161326 -1.752482 -0.426513 -1.144225 -1.032260 -1.942796 0.905094 0.626692 -0.209341 -0.684611 1.376092 0.223813 1.691193 0.344324 1.163404 -1.435030 -0.153836 0.575350 0.138925 -0.039279 0.033924 -0.572860 0.537808 1.291605 0.840359 0.672885 1.587885 0.580859 -1.166709 -0.093449 -1.164767 -0.339561 -1.300706 -0.162440 -0.863534 1.239979 -1.514550 -1.184907 0.780554 0.464214 1.114321 -0.760978 -1.181875 0.047919 0.810834 0.255332 -0.806565 -0.435890 2.444655 1.158353 0.889864 1.660864 -0.220694 -0.107205 -0.196248 -0.438201 1.120593 0.056133 0.196146 0.428973 -1.156860 0.733168 0.387518 1.849276 -0.237566 -1.574295 0.714128 -1.191469 -1.243283 -0.453171 1.308356 0.258483 0.569496 0.778112 2.482917 -0.586785 0.281563 -0.728277 0.196352 -0.806745 1.862189 -1.073061 0.213540 0.435060 -1.377980 1.392339 0.960160 -1.837094 -1.337482 0.030568 -1.026261 -0.175422 -1.079743 -1.686475 1.459548 -1.338095 -0.284509 -0.217310 -0.987084 -0.007358 -0.027842 0.776507 -0.239817 0.027668 0.058839 0.908887 -1.105414 0.735948 0.565730 -0.405448 -0.246390 -1.013956 -0.008329 0.696470 0.454707 -1.379153 -0.857024 0.286363 0.052434 -1.907346 0.971473 0.821129 -0.960969 0.247073 -1.477435 -2.142746 0.656700 1.078029 1.509641 -0.191400 -1.345091 -0.839533 -0.006428 -0.643668 -1.878582 1.115163 0.280331 0.537089 -1.111658 0.001466 -1.058950 -0.273333 0.359956 1.901153 -0.836467 1.392044 0.474826 1.154404 -0.142285 -1.159190 -0.154489 0.671703 0.485358 2.908429 0.825379 0.970228 1.065700 0.846091 0.388793 0.937885 -0.206614 -0.107423 -1.595730 -0.399600 -1.324320 0.475205 -0.598350 0.496009 0.670163 -0.083596 1.793834 2.250626 -0.795828 -1.429787 -0.152272 0.534412 -1.601229 0.339255 -0.500954 1.593813 0.635792 -0.259019 -0.141842 -0.080768 -0.188400 0.479409 0.366478 -0.472493 -1.830370 0.378420 0.144167 -0.111565 -0.140766 -1.658267 0.625872 1.395052 0.125555 0.908888 0.094334 1.123018 0.072057 0.001395 -1.020568 0.010468 -0.913251 0.051259 -1.657531 -0.406723 -1.128988 0.775372 1.409020 -0.562522 -1.056561 -1.500211 -1.245768 -1.419058 1.933839 0.503879 -1.846488 -2.614589 -0.147152 0.335493 -0.372496 1.164681 -1.401220 -1.387465 0.864611 1.247805 -0.360492 1.346827 1.287339 0.428442 0.580752 -0.466459 0.233860 -0.055044 -0.212389 -1.094209 -0.721463 2.077502 -1.000637 0.931514 -0.045175 -0.787206 -0.655348 -1.508115 0.257013 -0.003598 -0.805652 -0.545337 0.668681 -0.310737 -0.358942 -0.377531 2.177850 0.871212 -0.914369 0.321352 0.331152 -1.624560 -0.728418 0.053339 -0.955599 -0.643472 1.347834 1.110672 -0.737523 -0.454620 -2.119307 1.557803 0.909644 0.517575 0.602172 0.966039 -2.413430 -0.317910 1.056336 -0.570115 -0.527232 -1.003105 -1.349824 -1.011367 -0.165524 -1.441627 -0.415440 -0.195611 0.846412 0.801838 -0.134344 2.508842 1.980693 -0.995782 0.971170 -0.066077 -1.105349 -1.108220 1.506804 0.169735 -0.553552 0.723105 -0.157801 -0.967573 -0.090530 -0.335939 -1.311057 -0.107987 1.696583 -1.194524 0.071922 1.012984 -0.990250 1.691924 0.415400 -0.550065 -2.029733 -0.629286 -0.797614 0.755919 -1.276223 -1.783489 0.647621 2.324331 -0.869820 0.128929 0.252600 0.227844 -1.622325 -0.627215 0.140382 0.016062 -0.794932 1.162002 -0.645659 0.422850 1.167947 1.644796 0.419695 -1.226150 -0.841373 -0.802773 0.777504 1.087681 1.719609 0.893389 0.392797 -0.281481 -0.406324 0.083704 -1.248043 -0.262296 -0.936641 1.219716 0.232880 -1.467397 -1.146607 -0.128360 -0.335290 0.348438 0.307843 -0.416202 0.846975 0.767728 -1.254238 -1.999149 1.731963 -0.572527 -1.394977 -0.963652 1.948888 -1.047036 0.861350 -1.062324 0.023509 0.075802 1.648488 -0.550638 0.506997 2.366229 -0.688313 -1.354811 -0.294863 -1.302377 -1.362121 0.488483 -0.543150 -0.248553 0.134595 0.196847 -1.641385 2.897070 -2.198249 -0.069857 0.928649 0.754438 -1.173653 -0.865413 -0.700943 -1.643909 0.297410 -0.057884 -0.878168 0.401788 -0.327597 1.445304 -0.671783 -0.605346 -0.564341 -0.484408 0.322714 0.113631 -2.462686 -0.152762 1.639284 0.227252 0.107985 1.123147 -0.646564 -0.446964 0.364786 0.782847 0.445683 -0.393483 1.603199 0.558283 -0.364536 1.324971 -0.795442 -0.723829 1.106474 -0.910408 -0.783700 -0.523410 0.428104 1.080739 0.034133 -0.753611 -0.437623 -2.006386 2.445286 -0.098887 0.716371 0.002679 0.410376 -0.447063 -0.528996 1.851357 0.314118 0.412308 0.587279 -0.963584 0.968936 1.425758 0.860112 -0.195487 0.179068 -0.526116 0.414255 -2.468857 0.350545 0.172273 0.171688 0.311296 1.379895 -0.425745 -2.004777 0.060087 -1.192908 -0.347474 -0.370437 -0.147374 -0.729739 -1.202580 0.722049 0.319933 -0.726843 0.301516 2.132392 0.946890 -0.847393 0.288514 1.011431 -1.106438 -0.204309 -1.119362 -2.593378 0.560109 -0.556114 0.243447 0.289265 -0.351050 -0.994563 1.847825 -0.466658 1.119671 0.104587 1.079893 -1.591389 -0.356166 0.380988 -0.871340 -0.795284 1.087710 1.021392 0.086014 -1.441682 0.587202 1.168085 -0.177104 -1.120930 0.960722 0.929862 1.630826 0.436691 1.270210 0.307852 0.317473 -0.731238 0.085477 -0.058601 -0.984836 1.003766 0.013152 -2.432790 -0.136342 -0.193388 -1.280865 2.315783 0.198832 0.404809 0.725818 -0.116460 -0.303003 -0.455307 0.260112 -0.809580 0.393584 -0.427511 0.644496 -1.168723 0.756185 0.511813 -0.505411 1.391902 1.194734 1.079403 -1.619768 0.558200 1.132539 0.698047 -0.402111 -1.040599 -0.574070 -0.445076 -0.560864 0.123284 0.970171 -0.735891 -1.152090 0.955520 -0.235444 0.450512 0.270694 0.317574 0.455859 1.403486 0.235974 -2.440659 -0.191538 0.509682 0.152376 0.050136 -1.446147 -0.847710 -0.568983 3.618876 1.661517 1.498580 0.908902 0.383514 0.352543 -1.011700 -0.461018 -1.562999 1.441493 -2.147193 -0.565992 0.570680 -0.452103 0.369057 -0.608709 0.483121 -0.407538 -0.179893 -0.258097 -1.119097 -0.931557 0.022916 1.687664 -0.389426 -0.069560 -1.540202 -0.309189 2.940495 1.127948 0.905277 0.320114 -0.095252 0.789007 2.873436 0.984183 -0.069252 -0.439610 0.807012 1.416420 -0.900959 -0.031717 -0.807560 0.411427 0.333103 1.100584 -0.818482 2.992363 -0.038518 0.904528 -0.044432 -0.028418 -0.125546 0.638610 0.449763 -1.336674 -0.765770 -0.562615 1.186039 -0.110215 0.801037 0.017554 0.338306 1.262832 0.041979 -0.936638 0.946267 -0.940380 0.942775 1.660579 1.412292 -0.391525 0.866001 -0.105448 -1.120763 -1.081373 -1.964034 -1.646708 0.407960 1.217567 0.226300 0.577696 -1.761420 -0.452081 -0.629353 0.753938 -1.412564 -0.935240 1.332612 0.386269 -0.512961 0.393429 -0.557275 -0.520348 1.270561 -0.819898 -0.618688 0.548798 -2.116808 -0.068759 0.689722 -0.461205 -1.203438 1.018150 1.726213 -1.215360 0.841394 -1.077981 -0.876396 0.886808 1.363982 0.142210 -2.171690 -0.520602 0.343902 -0.043966 -1.254820 -0.138377 0.136435 -0.547267 1.315234 0.063001 0.040003 0.102492 -0.739858 0.180359 0.044865 -0.066669 -0.094343 0.918568 -0.064242 0.008376 0.883987 0.629947 -1.249483 -0.118439 1.592324 -0.556744 -1.288212 -0.950024 -0.763017 0.097439 -0.111000 2.410038 0.408911 -0.103499 0.166652 0.943789 -1.296631 0.380943 1.896461 -0.155728 -1.506628 0.770189 -0.297460 0.353236 -0.776710 0.181766 0.299047 0.450993 -1.322097 -1.082938 -0.912608 -0.101587 0.584381 -0.421897 0.781069 0.924871 0.043264 -0.020429 0.726929 -0.448527 -0.433221 -0.320749 1.457122 -0.536795 -0.339273 -0.194434 -0.146400 0.650787 0.391719 -0.538916 1.433247 -0.393780 1.410639 -1.484740 -2.059003 -0.891310 -0.056005 0.542401 -0.463468 0.846845 0.147692 -1.352683 1.364189 -0.086621 1.430322 0.313039 -0.323072 0.822672 -0.982402 0.740838 -1.432896 0.513687 0.374858 -1.262504 0.836644 -0.135370 -1.834201 0.134925 -0.823922 -0.840366 0.191035 -0.635085 0.388654 1.308079 0.226093 -2.393595 -0.090074 -1.111882 0.496703 0.179206 -0.670450 1.483136 1.483073 -0.464460 0.403115 0.275257 -1.702338 -0.630106 0.219175 0.887740 1.641848 -0.158492 -1.565886 0.653908 -0.555209 0.792896 0.384419 -1.278246 0.178100 -0.477462 -1.368241 1.182559 1.627733 -0.454372 -0.882633 0.498076 -0.512496 0.189759 -0.156000 -1.963627 1.186496 -0.633206 0.334103 -0.620605 -0.429520 0.461747 -0.535691 0.378914 1.115317 1.027950 0.899902 0.892309 -0.076019 0.768192 0.495476 2.792969 -0.369287 0.803012 -0.836161 -0.602641 -1.575658 -1.610608 1.893339 -1.137059 0.291750 0.585221 -0.090218 -0.120014 0.605938 -0.606498 0.288808 0.393273 -0.498292 0.570525 -0.358763 1.376068 -0.681386 2.100572 -0.863301 -0.540949 -0.393143 -1.302747 -2.113698 1.549250 -1.411591 0.661412 -0.853310 -1.348567 -0.219397 -1.232598 -0.441780 -0.539924 0.585147 -2.012394 -0.508609 0.421650 0.975269 0.621350 -1.171659 0.178889 0.246124 -1.648533 -0.780510 -2.544494 -2.147219 0.764454 -1.226325 1.583444 -0.214955 0.143462 1.067053 -0.922311 -1.027335 2.362155 0.030893 -0.010411 -0.565598 -1.157774 -1.048082 0.571863 0.029827 0.773462 0.964643 -0.616047 0.588839 -0.487558 0.135862 -0.222494 -1.116465 0.022790 -0.721004 -0.541953 0.321216 -0.666946 -0.597560 1.280558 1.893547 0.668227 0.743050 2.496544 1.159334 0.018642 -0.078755 -0.171131 -0.264509 1.375976 0.147083 0.250796 -0.349117 -1.846742 0.135819 -0.192516 1.294197 -0.697472 -1.032788 1.220001 0.170915 -0.061152 0.613141 0.529353 0.519980 -2.839188 2.076988 -0.262027 -0.341187 1.414385 -0.426234 -0.125019 0.024963 0.825378 -0.489748 -1.200999 -0.949469 -1.623109 0.382444 -1.614910 0.393089 1.266715 2.088567 1.009209 -0.660981 -1.232189 -0.302642 1.066287 0.364549 -1.418039 -0.718471 -0.193905 0.676102 1.080992 -0.197001 -0.880461 -2.125301 -1.633591 0.934983 -0.547544 0.284154 -0.340849 0.188409 1.205981 -0.854405 1.648839 -2.307657 0.795056 -1.141390 -0.924495 -1.716555 0.285511 0.126870 2.608991 -1.153294 0.186955 -2.161659 -0.154922 -0.625348 -0.110746 -0.183899 -0.751212 0.685822 -1.105402 0.772136 -0.554098 -0.582894 0.334634 -1.402183 0.634218 1.311369 -0.701191 -0.574480 -0.336527 -0.357740 1.220852 -0.034874 0.803233 0.002975 -0.641077 0.290859 -0.842223 0.785776 -0.401133 -1.091244 1.831790 -0.165951 0.712079 0.543154 -0.384145 0.498663 -1.348849 1.376634 -0.795321 0.282397 0.237361 0.303322 0.275412 0.202756 -0.708670 1.063367 -1.741277 0.249379 -0.703957 1.124282 -0.007648 0.092833 1.073302 1.791797 0.627552 -1.257895 -0.059427 -0.177378 -0.353689 -1.372152 -0.251554 0.770545 1.606038 -0.343630 0.734065 -0.979602 0.048337 -1.929489 -0.106187 -0.268623 -0.193882 0.027592 1.939120 -0.860231 -0.630432 1.215003 0.732562 0.436244 0.394182 1.365801 -0.478199 0.596030 1.178788 -0.945903 0.094070 1.830764 -1.106805 0.057195 0.167497 0.930687 -0.195871 -0.107563 -1.784910 -0.493012 0.418974 0.938420 0.713740 0.821019 -0.678179 -0.332815 -0.360055 0.188559 -1.873363 -0.656989 1.336877 1.199003 0.253476 0.404285 1.363495 -0.653084 1.092503 0.657748 -1.248277 -0.006582 0.949186 -0.168097 -0.160244 -0.029319 -1.734046 -1.342705 -0.318428 -0.518742 1.215939 -0.596663 -0.178453 -0.734674 0.316494 -0.038756 -0.280443 -0.263669 -0.090577 -0.741803 1.143743 -0.879750 -0.781053 -0.624121 -0.533127 -1.397480 0.536069 2.110267 0.857602 0.995006 0.226116 0.321245 -0.766858 1.640570 -1.630818 1.281379 0.359261 -1.239600 -0.870121 1.840264 1.224762 -1.757639 -0.277079 -1.810529 0.294198 1.651008 0.178738 1.117540 -0.331077 0.962300 -1.903160 -0.029419 -0.460847 1.145216 0.110056 -0.483108 -0.003472 -0.769314 0.963815 -0.477417 0.368406 -1.349713 0.046588 -1.635993 1.168878 -0.135129 -0.196841 0.010841 1.920075 -0.089854 0.790015 0.661586 1.318142 0.205397 -1.559290 0.494421 0.290837 -0.744767 -1.566113 -0.296106 0.652472 -0.356591 -0.279885 -1.031842 0.177842 0.965748 0.634501 -0.391153 -0.124155 -1.657511 2.917534 0.357366 -2.417266 0.852233 -0.006111 -0.096716 1.474998 0.291928 -1.431690 0.913866 -0.143863 -1.255199 0.628543 0.418083 2.074737 1.015754 1.960384 -0.837213 0.352152 0.078936 -0.322101 -1.357384 -0.240208 -0.906838 -0.630075 2.170665 1.674445 -0.248643 0.973623 1.001586 -1.004619 1.612445 -0.681771 -0.626831 -0.343306 -1.014322 -0.016430 -0.930366 0.087085 0.891124 1.758984 -0.178607 0.112287 0.239924 0.940870 -0.330251 1.313367 0.243657 -0.446301 -0.136014 0.745807 0.443308 -1.487858 -0.253616 -1.025736 -1.642978 -0.551229 0.288178 1.049396 0.151093 2.187410 0.260707 1.269329 -0.757620 1.824203 0.392520 0.276825 -1.377414 -0.071997 -0.006280 -1.924709 -1.650618 