1.970651 6.957257 1.776144 1.685648 -3.486556 -3.568265 -1.102604 -1.175766 0.198267 -2.377225 1.710791 1.898415 1.894265 11.462798 5.900860 5.368345 -0.070808 3.300656 2.303181 3.550990 6.766153 2.367050 3.251058 6.255380 2.953438 -7.703313 -3.484707 -3.879707 -1.404477 -4.194089 -0.755644 -2.336994 -0.354210 0.409225 -2.594571 -7.179244 -3.191029 -0.463746 -0.893803 7.042973 -4.452625 0.714997 -3.695275 4.800587 5.061164 -1.933394 -1.014324 -0.054738 3.481541 -2.704010 2.646946 -1.231962 2.112029 -0.413728 -2.697578 -6.937175 -2.899772 2.158650 3.194229 0.044181 0.976585 2.191277 0.080677 0.056507 -6.079938 7.366303 -2.625101 -1.343295 -3.044877 3.180745 -4.958876 -3.946782 -1.220265 0.814169 6.218115 -0.221211 -1.671073 -0.310738 0.203564 -0.594775 -1.557630 3.300713 5.253869 2.600408 3.101019 -4.589398 -0.537843 -1.220769 0.330973 1.878592 1.565032 -5.202958 -0.084143 -4.947102 -7.014055 -3.908502 3.185112 2.030839 2.608173 -1.565646 2.649382 -2.450208 0.063545 -4.040212 -4.086815 -3.166869 0.175519 0.348120 -2.042221 -1.018537 -0.747967 -0.538922 1.769150 3.429436 0.121119 -6.774790 3.023537 -3.415763 -2.988194 -0.532807 1.366731 1.479696 -3.123395 0.750421 0.324722 0.324857 -2.859854 -0.180809 -0.296347 0.055125 5.306181 -1.249600 -5.343670 1.330519 2.899909 1.635350 3.610236 -4.760015 -0.011319 -2.059276 0.397199 4.220161 0.018015 -1.825998 -3.037709 3.390390 2.042259 1.088860 0.439949 0.597011 -1.207998 4.477097 -2.168944 3.233023 -2.693476 -1.799297 -1.241481 -1.276672 1.344379 3.144425 0.198240 -1.760771 -3.092621 2.660964 -1.215464 -1.462534 -1.462583 -0.939145 2.450697 -3.124077 -2.298551 0.484749 0.194392 2.578219 1.835636 1.801638 -0.426399 -2.268623 -7.076326 1.476927 4.938400 -4.458843 2.531032 0.032980 3.689785 0.642318 2.494279 1.235347 -1.422730 7.049640 -5.204191 -0.717174 4.315387 -4.775877 -5.936357 0.172463 7.103896 0.281469 1.215021 1.336969 4.462956 -0.988277 -1.292572 -1.987527 3.173302 -0.000769 -7.507294 2.359594 -0.945903 2.119431 3.817233 0.152798 1.057762 -0.844157 -0.501162 1.484060 -4.487729 -1.145028 1.467679 6.375142 2.774211 -2.117146 -3.332880 2.741490 -1.085553 -4.398072 -4.022295 6.978404 5.842321 0.351709 -1.331609 2.067210 4.445076 -7.417673 -1.420602 8.034210 -1.284596 -4.688253 1.902490 1.309664 -1.098404 3.969578 -0.670620 0.148758 1.286445 0.976619 -1.942942 -3.992551 -5.905369 5.086004 0.762394 -1.737851 -0.569366 -2.346448 1.436948 3.153563 -3.639163 2.206318 -0.460733 5.277019 1.725973 -6.114984 0.731835 -2.476465 2.843183 1.380799 6.072058 2.878636 1.244451 -3.150268 2.435944 0.964484 4.773362 -1.814158 1.805286 0.041435 -1.784046 -1.388306 -2.127409 0.307554 2.467799 2.233444 2.426782 -2.163673 -3.477582 -2.896415 4.348423 -0.428475 -0.351807 0.507103 -1.122870 2.654118 1.643600 0.559475 0.221283 0.523352 0.716097 3.334670 0.009299 -4.957368 -3.557592 1.950096 -1.716178 -1.510054 1.344542 -6.220110 -1.123238 1.426411 -2.366142 0.576473 -2.154516 -1.359578 1.960884 -1.049631 -1.053002 -0.929981 -0.784607 -3.214098 0.032426 2.109816 -1.060335 -0.361907 -0.166265 -0.027544 -2.533218 0.288987 2.093239 -1.079506 -0.380999 -2.725634 -1.969511 -1.695399 3.123885 -0.892846 -5.517044 6.595336 2.294774 2.187818 1.825685 -1.311134 1.899077 -3.674311 -0.869919 -4.171262 -0.782918 1.721599 3.763720 0.779264 1.359189 -0.848673 -3.176447 -0.318922 1.032737 -5.066076 -3.700705 2.437872 -0.716058 -2.683704 2.938908 4.293973 -1.440079 4.640727 0.666999 -1.811780 -1.015952 -1.548449 0.580883 5.215206 1.401243 -0.853626 0.427582 3.139806 -3.040254 -2.867715 -8.169687 -4.150635 4.118284 -2.670601 0.830077 -1.297155 2.466980 2.274023 -1.143834 1.042452 0.383836 0.515498 -7.258168 -0.427964 -1.045858 -6.316302 -2.466186 -2.641690 8.141223 1.327335 4.319529 -1.219888 -0.061303 -2.485312 -3.175099 -3.865539 -1.516878 -3.752102 -0.092620 2.882221 -2.693392 -1.531984 3.647829 -0.361401 2.212615 1.504260 3.621783 3.303312 2.956288 -0.335667 -0.304122 -0.386928 -3.480414 1.918462 0.797133 -4.352698 -2.709706 0.491711 2.571782 -3.391773 -0.177924 -0.383333 5.174346 -6.034274 0.486313 -0.125416 2.217118 -0.813821 4.096712 5.747814 2.535252 -7.213026 -0.455311 -1.205887 3.114138 3.995925 0.133171 1.564408 2.782403 0.079813 -8.205939 -2.066246 -3.144530 -3.132668 -2.480463 0.649671 3.699427 -1.376909 -3.043868 -2.690182 5.030738 0.438837 -2.523890 0.802652 3.596647 3.408733 -2.461868 -2.206082 3.023541 -2.964188 5.165035 5.813334 -2.836123 -0.672379 -2.763038 -2.716306 4.634140 -0.286010 -0.478659 3.261746 3.500891 0.772328 -4.368040 -1.420852 0.501489 -0.167391 2.039999 1.628465 -0.328346 -1.711786 -3.758268 3.929940 1.886963 1.097794 3.783394 -1.358189 2.725223 -8.002303 0.871036 1.699709 3.053141 2.564051 5.323304 -2.139494 4.685872 -4.258785 -4.366573 3.336346 3.855880 -1.918651 2.219723 0.064436 0.711787 -4.348301 0.621377 -5.827767 3.113473 2.279182 -3.141430 6.395166 -2.510419 -1.314103 3.798022 -3.098429 2.537437 1.935183 -0.882539 0.001138 5.524658 -1.204547 -0.674889 2.052749 -1.396542 -0.644803 1.975678 1.155462 1.211138 1.507108 3.858960 0.707053 -1.512145 -1.138898 -1.207147 3.937094 -2.430398 -1.562509 -3.259658 -2.025724 -1.567814 3.239992 -5.644305 3.873652 0.933054 1.261529 -3.455399 -0.178848 -0.465278 -0.677048 -0.601981 -3.320109 -1.873974 1.426490 3.550850 2.565975 4.973981 -3.114203 3.749796 -2.165156 0.477046 -5.365601 -4.601367 -1.092889 -1.061442 4.549791 -4.107162 -4.569275 4.668640 0.664568 -2.247778 -1.969098 0.859955 -1.491239 1.916892 -4.124972 -3.204319 -2.140668 -2.038985 3.066795 -0.592888 5.186306 2.071164 0.033031 3.094794 -0.557653 -0.790557 -3.701011 -3.211651 4.855499 3.563103 3.176717 -6.907871 0.888549 0.533333 -2.972236 -5.807464 -2.849668 0.459132 3.345788 -4.708052 1.766228 -0.908178 2.065345 3.791377 2.175568 -0.513247 0.367670 0.617259 -2.474752 10.480730 1.979637 2.200452 0.306949 3.401496 0.289482 -0.258315 -1.138812 1.009320 -3.841430 2.485656 -0.717720 -0.387807 -2.480440 0.466083 2.703805 1.965690 1.819825 -3.425178 0.690719 0.455906 4.951197 -1.891118 3.886835 0.955007 1.510951 -3.437827 -3.029281 -2.911854 -0.441518 1.770755 -3.968720 5.557185 2.272117 -2.490209 -1.487705 -4.336473 1.178202 0.128069 -0.350447 -0.055077 -1.574840 4.704072 -1.652912 3.689835 -0.180719 -2.528076 3.560257 -0.128709 0.020503 5.105176 -1.221628 -0.396310 2.625856 1.655435 -3.831095 2.310123 -3.838659 2.324753 4.397635 0.541510 -9.021411 -6.173544 4.949885 2.351172 1.428337 -1.400582 0.254734 -0.707834 4.756228 -0.368870 -6.153691 3.280438 -2.803526 -1.675539 -1.293711 -1.448103 4.009949 0.611340 -1.811513 -1.067205 -3.018886 2.578278 -1.386820 1.041144 0.868917 -1.237447 -5.339583 -4.110852 -1.416466 0.317453 -5.362111 -4.031309 -0.100476 -2.279914 -1.600449 -4.445674 1.211336 5.839905 -0.534859 5.236713 -3.256769 -4.208923 -0.818767 -2.215228 -0.451039 1.611048 -1.020203 -2.314614 -3.321336 -2.837607 -0.636843 3.410109 -3.210780 -1.841601 -3.144323 5.529343 -3.870690 -3.449124 -3.254470 -2.950939 -2.148706 2.781447 -0.968213 -0.335463 0.556504 0.370348 -2.355398 2.805488 3.831319 0.164501 0.802597 -1.683959 -3.622479 -0.524133 0.915829 -5.436654 3.571965 -4.883427 -3.083964 2.936981 -1.227929 -3.686882 2.106290 1.211739 -1.426036 1.974901 -1.567690 1.370336 -1.509970 3.465986 -0.361992 2.502325 2.138431 -3.409290 -2.227728 0.264910 -3.148995 -2.958277 -0.110894 2.188997 2.169393 -0.347823 5.076079 1.406054 3.935868 -2.331727 0.484519 0.172099 -0.169495 -0.373555 1.890041 4.201461 1.048077 -1.080406 1.848614 -6.374035 2.587548 -1.690077 3.223976 -4.871255 2.091270 4.516625 0.970391 3.706620 -0.165921 -4.759919 -0.774295 1.297042 -5.117310 1.139247 0.654440 3.469373 -1.491522 -0.687324 -3.130223 -0.050188 -3.193970 1.781117 -1.436043 -0.584803 -2.174840 1.036012 0.667582 2.671593 -3.218515 2.799677 -5.207479 -1.171551 -3.829964 3.832792 2.494556 -0.455507 0.648764 -1.491951 -0.528714 -1.050253 -4.393813 -1.544266 3.735265 -4.677226 -0.248094 2.508830 -0.730014 -5.325035 -1.926078 -2.367447 5.567119 1.516558 6.348544 -1.798494 0.049914 0.383962 -3.372983 1.492588 -0.139035 -0.076845 0.663252 1.338150 1.384916 -3.977382 1.751671 0.435444 -2.427321 -1.696399 -3.981556 -2.891901 -4.918650 3.221586 1.537005 4.034947 3.930116 1.330946 -3.046817 -2.336988 2.111107 2.547515 3.993568 5.914656 -1.781702 3.000126 0.002159 -0.869321 -4.321572 -4.355052 1.298913 -1.586804 4.513553 -1.422759 2.327523 -2.808616 2.892642 -1.042794 1.176652 0.862667 0.719814 -1.262030 -0.731383 -0.623605 -6.084753 -2.329841 -0.058215 2.141853 -0.630577 -2.427677 1.306694 1.221656 3.352220 1.895927 3.879251 1.004231 4.149247 3.372811 -0.072068 0.026533 -0.344403 -5.579521 0.693907 2.443378 1.604525 -0.627114 0.207311 0.708404 8.424357 0.936923 5.757897 -0.254667 -1.838528 -0.827097 -4.008288 -3.923664 3.717049 2.462828 -2.512592 -0.403153 0.273135 0.408989 2.425248 -1.726197 -3.982243 5.266606 4.111947 -4.151562 -0.062296 2.221549 6.758301 2.702187 2.061222 -0.431565 5.861174 -0.371131 -3.322679 -3.031750 -2.872204 0.340327 2.410015 -0.719128 0.261424 -6.386345 3.159832 -0.899211 6.246029 4.457011 1.491936 2.899434 -1.980173 -3.775837 -1.441935 -2.534079 -0.325845 -0.165885 -1.952928 -2.890150 0.981747 2.913636 -0.887622 -0.722494 4.626109 -1.117026 2.524944 -3.228329 -5.215536 1.015975 -0.112242 -5.606559 0.956940 3.427889 -1.943839 -5.660145 -4.586659 0.873643 -2.489628 2.637531 -3.561599 0.860340 -0.764736 7.109248 -0.197885 -0.238177 5.194198 1.282809 -0.820247 4.352831 0.315688 -2.100909 1.236167 0.312845 0.248458 0.428436 -2.333608 -6.700637 5.272045 5.728231 -0.884213 2.756427 0.086832 -1.498120 1.632448 2.490684 -1.615205 -0.800592 -0.181158 5.213154 1.752633 1.534087 1.269913 3.777757 -1.821626 -1.385542 -1.494785 3.505908 0.111287 2.743287 -0.056737 -1.818122 -0.672135 4.027231 -5.266645 -4.054540 7.001447 -0.076313 -1.505574 -3.283014 -5.136860 -1.230874 -1.733583 -2.591835 -2.241844 6.712537 0.671945 1.552816 -3.463878 2.353476 -6.212440 2.201871 -1.954020 0.835673 -0.978835 -0.333647 -4.826635 -3.809864 -0.940482 0.574564 0.189027 2.878465 3.020337 -1.723837 -0.539427 1.556572 -4.820844 0.924017 -2.599989 -4.519934 2.235610 1.507793 -1.290687 -3.214687 2.626661 -0.875913 2.019662 -1.375111 -6.295015 0.801880 2.643408 1.482621 1.050856 1.178136 1.620772 -3.206925 2.430728 0.702905 0.136520 -2.299147 -4.212644 -2.949952 0.042077 1.853994 -1.784101 1.557065 6.815806 -6.879445 -1.904777 0.236716 -0.964123 4.005500 -0.144062 -2.158964 -2.912133 -1.733014 5.359121 2.893355 -0.564246 0.206335 1.069776 3.941563 0.110362 4.442438 0.381715 5.991337 -0.010797 -2.185813 1.043532 -2.390491 0.355527 4.598670 0.792366 -3.545307 0.906845 0.605029 -2.349214 0.269927 1.819694 1.519997 9.736475 0.279746 3.791241 -1.528907 -3.750725 -3.467863 6.079490 1.050688 -1.223452 0.512577 3.773483 -1.340209 1.339788 -2.651179 5.130217 -0.837009 -0.149760 -2.200523 -1.440990 -6.007807 -0.205907 1.387395 -1.848471 2.070968 -0.490571 3.061212 -2.344386 -7.023272 -6.009713 2.067498 0.692098 -4.702731 -0.332247 2.948107 -4.423392 -5.685248 -0.498469 -1.619709 3.856751 2.778819 -2.524779 2.180460 2.264586 1.306200 0.274283 2.121003 -3.546666 0.510835 -2.173608 -2.020010 -1.744139 -4.395287 1.572668 -1.580414 -0.897802 4.564250 -1.537429 -3.113933 -4.860305 -1.820840 -2.242549 0.138650 2.112105 -0.577081 -1.660735 1.857147 -1.443887 -1.599272 -4.486084 3.518883 2.402482 2.273153 2.350729 2.266201 -2.651781 -4.581815 -1.981928 -0.444448 1.600774 1.105522 -1.030383 -2.108780 4.142266 2.552286 1.266924 -1.838651 1.294304 -1.150439 -0.695924 -3.544236 -0.807585 -0.854045 1.766221 -1.152875 -0.582608 5.121985 3.910958 3.267781 -2.435290 1.001058 3.262576 -0.409384 -0.685752 1.656659 1.537885 1.800476 -0.926100 1.765789 -6.229130 3.015891 4.029927 5.253770 4.776485 -3.039116 4.127772 3.274756 2.051083 -1.802648 -1.688997 1.578785 -0.919747 -0.466218 -3.226380 -2.311741 -6.750808 2.256640 0.926669 0.708939 1.357275 1.682127 -2.888460 3.237251 6.797344 -0.610518 0.274623 3.154187 -2.253662 1.414568 -2.093715 -2.356629 -9.383564 0.513848 -0.378257 -0.442505 0.171479 -2.159525 1.867396 1.711792 -4.017602 -3.517867 -3.038776 4.951570 0.905526 3.510311 -1.760172 -2.769710 6.071096 -1.508682 0.844942 0.169263 -2.154527 -0.858734 -0.557124 -6.026600 0.140403 2.165570 1.336685 -0.900998 -2.610217 1.048930 -1.793473 0.673997 -0.457432 2.039101 -0.436905 0.305523 -2.046483 0.875162 -2.230249 5.404725 -1.322351 4.567375 -0.934161 2.369071 -0.481344 -0.789391 -0.982440 -1.374695 -1.012134 -0.886338 -0.434242 -7.899261 -0.697813 1.302966 -2.069780 1.099015 3.352084 3.207222 3.460545 0.437460 2.713477 -3.095181 0.021480 1.772759 -1.704380 -0.928574 -0.539969 -0.205032 2.562246 -3.241395 -0.033425 -2.652232 0.569470 -7.409465 -0.805085 -6.258383 2.642133 1.787793 -1.295547 -0.070871 0.373193 -4.442187 1.288688 -5.174527 -4.683206 -1.148422 -1.312181 1.664617 -3.672410 -2.430277 0.669567 -4.830449 3.491660 -0.841531 -0.616599 5.158979 -3.553259 2.880956 -5.764840 0.285340 -0.682548 1.384655 0.896588 -1.642415 2.120123 1.654761 3.831922 -5.240495 -1.487273 3.527344 -0.294468 -0.138569 -0.368036 -0.083495 2.957548 -0.391361 4.310646 3.125687 0.326946 3.306115 2.452576 -5.709204 3.287473 -0.989703 1.386912 -1.307901 1.582816 1.580936 1.674419 -1.112058 -1.191788 4.157286 2.811393 -0.229982 0.112271 0.422003 -1.918592 3.478529 -0.776765 4.365860 -3.875050 -2.260583 -1.546009 -1.699738 -4.385605 0.963702 0.414443 3.323282 0.917214 1.182873 -1.160365 1.670610 -1.870415 -4.676761 1.230832 0.484472 -1.850651 1.503726 -1.359981 -0.682263 -2.956629 4.790885 -2.108954 1.270729 1.193470 3.572845 -4.324384 1.914317 0.827659 2.723464 2.291319 4.161927 -1.296028 4.970405 -1.184432 1.276214 -1.893405 -1.935206 -1.542541 1.127671 -4.219280 -0.552955 -0.341553 -5.470537 1.145849 2.725361 -0.610873 5.201633 -3.386995 3.178924 -2.477304 -4.807319 0.696646 2.033048 4.006616 3.477523 3.680822 -1.232721 -2.575670 -2.589702 4.126596 -0.615699 2.017313 -2.844516 -3.495324 0.686404 -2.862912 -0.668365 -1.415539 4.072265 -1.398584 -0.012588 2.870727 -3.122204 0.223937 1.864631 0.893500 3.573387 0.670043 1.051952 -1.245201 -0.937933 -3.953702 3.910098 -0.195128 0.124791 0.861107 1.121348 -3.663234 -2.907725 -3.112946 4.323848 0.462936 -1.861894 1.990180 -2.937757 -1.646050 0.512508 1.687149 3.492989 3.204002 3.297338 0.989228 -3.585589 2.039701 0.315201 1.999795 -1.164267 -2.934664 -3.877675 -2.658245 -2.690616 -3.199594 -0.448210 -0.393203 0.421282 1.036926 1.171644 3.569598 2.608275 1.952617 1.615438 1.486689 -3.744312 2.227704 1.036273 0.475345 -1.956439 1.240116 3.806226 0.655916 -1.779056 1.028633 -1.746101 6.413373 -0.598081 2.242427 -0.186182 -2.093084 1.225281 2.748821 1.646451 -1.197493 2.344672 -2.884505 3.477205 -5.381225 5.663374 1.405780 -1.094137 -2.467947 3.355585 -2.389607 -4.435218 -3.813004 -1.261209 1.765488 1.343254 1.289210 -3.322003 -1.417804 3.897135 2.051296 1.169904 1.046904 1.484421 -3.036032 -1.983744 -2.375975 2.350768 -1.148759 -0.697915 0.078847 -1.792360 -0.813390 3.951097 4.842053 -3.820542 0.585688 3.212795 0.066662 -2.358616 0.052225 -5.513628 1.313521 3.299150 -3.025763 -1.547493 -0.797468 4.556613 3.345821 -0.052007 -2.387309 -1.212858 4.411764 -7.474973 -0.970876 3.634722 0.234656 1.156371 -3.974695 -5.230142 -1.275018 -1.867172 -2.778314 -5.060234 -0.924920 -0.242695 -2.338666 -4.385147 -1.239716 -1.338114 1.266340 0.683343 3.101701 0.495661 1.080529 3.454047 -2.909392 2.725043 -1.123062 4.059531 0.650810 -4.271183 -0.320311 -3.151377 -2.765778 -0.444268 1.476515 -1.311394 2.448035 -0.253998 0.095954 -2.403865 0.065322 -3.212625 4.846228 -4.161287 -2.751695 3.385740 -0.321872 -2.582730 0.208246 -2.883975 5.557339 1.676195 -1.368331 -0.514399 2.426328 -3.331413 -0.393789 1.382247 -1.977720 1.671392 -1.264651 -0.817120 -0.430180 4.482893 -2.191901 -1.461863 4.106238 5.481376 -0.463252 -2.579684 0.535755 0.226664 -5.086681 -7.271737 3.746060 5.028024 -0.669985 0.257031 -1.841276 -0.579048 -3.233315 1.014701 -0.619662 -5.345782 4.350925 0.736308 1.119898 -1.437996 -1.463470 -1.356969 3.756028 -2.861033 2.784867 -0.075284 -2.154109 -3.780894 1.545750 -2.244300 5.529477 1.494153 -0.913677 0.572985 3.153633 -0.497650 -3.525640 1.778962 0.731650 3.556321 -2.124080 -1.335583 -0.725602 1.821101 0.707999 2.435958 4.547411 -0.919946 5.443977 -3.519628 2.375287 1.189644 2.734992 -0.474015 -2.562439 1.147995 -1.756887 -1.418179 -1.860810 -1.860775 8.813896 1.750064 4.752003 -0.629095 2.780334 -7.955811 0.802300 1.426545 2.604687 0.135204 0.879148 -0.612204 -4.871597 1.028668 -1.082481 3.473106 0.123605 -1.644698 -0.126420 0.329489 2.420231 0.857233 -4.845874 -0.896517 2.043754 -6.182021 -2.205022 -2.481874 0.208620 0.271880 -2.475543 0.799002 3.509131 -2.173003 -1.745366 -4.334402 3.861238 -0.106768 2.185593 1.695177 -3.197203 1.027954 5.351283 -1.906372 3.429303 -0.059239 -4.828841 2.032583 -1.798340 -2.105185 -1.971905 5.747092 1.797738 2.275278 -0.294813 -2.635559 -1.867773 -2.474604 -0.693806 -3.918393 -0.251178 -2.486968 1.060484 -1.723242 0.930694 2.892734 -0.589872 -0.148526 2.376495 1.712197 -1.268785 -1.129574 1.156258 3.177520 2.351375 -0.803952 -0.319008 0.052282 -5.216712 0.429274 -3.431461 -0.499053 -0.348866 -0.225507 2.760633 -0.220891 -0.014795 2.246174 1.382658 0.864802 3.118123 -2.812792 -4.339998 -3.445174 -3.635998 1.379525 -2.319237 3.322035 0.587758 -1.056969 -2.831076 -2.731393 7.056476 9.260635 4.568799 7.366753 12.420469 5.769377 7.674458 2.394258 3.518912 2.591724 -0.818685 4.364840 -4.232389 -2.487913 -4.525724 1.127895 7.959167 -1.699180 -0.118298 -1.508068 -5.298258 6.030026 -2.170557 -4.862483 -5.672039 1.335365 -1.304512 1.643766 0.876633 0.826001 4.438368 1.304473 1.290001 -1.515825 -3.661984 2.009714 3.442552 -2.584452 1.267008 1.537403 1.827976 -3.229220 -0.248036 1.750272 -3.754796 0.051161 4.817906 3.938764 -6.139986 6.228497 4.290303 -1.434940 -0.622329 -1.213456 -3.307378 3.004709 -0.956852 6.580304 3.275299 6.217379 -1.850013 -0.661296 7.000315 1.754295 -1.331774 -0.946217 -0.152083 0.671805 0.676353 2.412682 1.827546 2.294731 7.562314 3.665809 3.670875 0.856728 0.856903 0.669729 -9.965014 -2.812720 -0.482101 -0.627720 -5.135273 1.704031 7.002922 -1.252786 -5.055858 0.889680 0.254491 2.766692 -3.438372 -0.195699 0.787271 1.531138 3.748146 -0.098208 0.399221 0.827976 5.940443 -0.643891 -7.706711 -0.557743 1.538294 0.920957 0.526335 0.460099 -3.639209 3.654573 4.977543 0.565710 -1.748625 -3.487424 -2.293042 0.719189 -5.335131 2.969873 -2.888573 1.254999 1.672185 1.410036 -1.143003 6.840021 4.973940 -3.514241 -4.253660 -0.900787 1.394678 0.412298 -0.372732 2.390731 0.617062 -0.835161 -0.598638 -3.656412 -0.693151 1.404379 -1.838550 -5.953497 -3.857124 2.101507 -3.976375 4.304885 0.189107 3.432144 -1.171252 -2.915177 10.309592 -0.660373 -2.769187 -2.104648 0.926216 1.018131 3.113363 1.695717 1.723184 -2.375737 3.716511 -2.716550 2.691645 -0.942450 -0.846502 -0.101762 -2.346794 3.528006 2.350944 1.959373 -3.220384 0.698073 0.601631 -2.272527 -4.632455 -1.583860 -1.332517 1.723340 -1.150401 -0.652070 7.773078 -3.943767 2.705028 -3.370739 2.306350 -3.431883 -5.508809 0.543504 7.659632 -1.380221 2.255057 -0.226604 -2.135766 -1.168943 5.415310 2.850752 -4.990334 -5.098352 -1.116246 -1.019482 0.976383 -0.455421 2.150450 0.428274 -3.549057 0.039459 -0.773755 3.782510 -2.804285 -1.959392 -0.924674 -0.244467 -0.206249 -0.859503 1.506210 -3.824762 -2.313129 0.616091 0.032811 5.006230 -1.431147 -0.532064 -2.296602 3.465527 2.000544 0.968844 0.770266 1.027341 -0.947482 -0.589694 4.112457 2.460466 -2.946718 -1.725253 1.370890 6.149652 1.976464 1.479070 -3.478339 0.840347 -1.854553 0.251302 1.816724 -6.474885 -1.457249 -0.912022 -0.748611 -5.834187 -2.272834 -2.212709 0.975583 0.881662 -4.519143 -0.275390 -2.573483 0.443367 -0.358716 1.767542 -1.038554 2.434709 2.248070 4.342431 -4.179191 -5.699082 2.919319 -3.833668 -3.151710 -0.412085 4.589324 -3.276412 3.561518 -5.256510 -3.940776 1.930673 -2.552609 -4.928427 -1.152737 -3.324994 -4.771022 -3.661179 1.224147 0.331056 3.036405 -2.513035 -3.793832 -2.409805 2.484704 -1.970345 -2.248357 0.771559 0.938488 -1.054311 6.809138 -3.098402 -4.630414 1.554374 -2.438089 -4.701114 -1.507940 3.146884 -0.043052 -1.727731 1.245229 -4.284341 -0.483183 1.219711 -0.229464 -5.228849 1.515783 -4.104191 2.035568 -1.450870 -1.794372 -1.308072 1.520935 1.079873 0.663316 0.572524 2.911163 -0.138730 -2.644376 -2.314257 2.696185 -1.010709 6.708093 2.451537 2.729765 0.708191 -1.833461 3.262170 3.909710 -2.744116 -1.943649 -3.616401 -2.475541 2.952529 -1.416000 1.176813 3.947432 1.237356 -0.721367 4.699923 -2.113137 -1.693750 -1.646534 3.143135 -2.663674 6.028882 -0.522729 -2.256295 1.601635 -4.514270 -6.324515 -0.497472 3.662480 -2.441533 1.739872 1.827393 -0.366666 5.468606 -4.323473 -1.141752 -1.076672 3.977554 -2.215304 -3.935625 2.348354 4.244143 -1.535720 -1.221657 1.407605 -1.295986 -0.543342 -1.070841 1.176429 1.172898 -1.289264 -3.382736 -5.029528 1.090402 2.496006 -1.192008 -0.584557 0.236573 -1.607451 -1.014831 0.931353 -2.740078 -2.032642 1.063182 -4.336770 2.178967 1.376313 0.865348 -1.536421 -0.986689 -5.873738 0.445883 -0.559934 3.874185 -1.986195 4.346043 -3.554882 0.448200 -0.038341 1.337426 5.660522 1.631580 -0.289037 -1.831056 1.554197 3.024102 1.402429 0.594290 3.352475 -4.124890 -7.397510 4.077496 1.495112 -1.802307 1.390011 -1.152798 0.486343 1.003115 -0.138565 4.263393 0.727638 1.055025 -3.780921 -5.020732 3.521330 -1.027005 1.268028 -1.546060 -5.452527 4.472767 5.619023 3.758236 0.477053 1.079809 1.621449 -0.914177 -1.321782 2.943915 -3.192481 -4.391425 4.556827 -1.893845 -0.866343 4.419139 0.389056 -1.459772 -3.130865 -2.823456 -2.559427 -4.934566 0.524906 -0.038556 0.625191 3.831315 -6.816323 -1.990418 0.518481 -0.755945 -1.195068 -3.707314 2.683628 -2.399899 1.217966 -2.197156 3.064434 -2.778950 -4.574850 1.494104 -1.982195 -1.356920 3.707071 -5.101220 -5.707015 0.920041 -5.452541 0.512127 -0.288932 -0.522804 -2.100630 1.586026 -1.549329 1.120640 2.965847 1.710476 1.735888 1.756330 -3.437712 0.018085 -0.667449 3.659887 -5.268892 1.360885 -1.317596 1.883539 4.052951 2.510027 -0.326962 -4.763724 -0.798079 1.107001 2.565136 3.899032 -4.394620 3.086888 0.431157 -4.816570 -1.778351 2.375551 -1.259904 2.117855 1.978657 -0.486637 -1.883158 5.974986 -1.563472 -3.782985 2.227944 1.252274 1.484646 -1.163133 1.527723 1.315102 -1.132350 -1.090406 1.190243 -4.219516 2.080095 -1.344288 -1.060279 -2.982534 -4.894310 -1.400377 0.905628 2.808075 -0.455038 3.014341 3.061429 5.520398 -3.357016 -5.318541 3.044734 1.381874 0.837773 0.553586 -4.155978 -4.497987 1.809775 7.549210 -0.259451 0.537176 -1.201007 2.666226 -0.194552 -3.655818 -1.341969 1.027939 1.117623 1.170261 -1.267544 -0.395337 2.574072 -3.575277 1.944296 0.987243 0.916336 1.304544 1.243735 -1.326454 1.748491 -1.540963 0.955872 -4.464297 -0.823162 1.820525 1.247927 6.306300 -2.636876 4.077533 3.497957 0.203505 2.598574 -1.107907 4.330179 -4.146031 -0.230926 -3.038896 -2.433596 0.522198 4.870877 -1.253079 0.034641 -1.658729 -1.106310 1.535847 5.243820 -4.141827 0.214243 0.865207 3.454551 2.759786 1.700869 1.393338 1.717516 1.900544 3.835642 0.240917 -2.173888 -1.411347 -1.230738 1.377718 -1.851441 1.136295 1.207636 -0.918486 2.396920 -0.864388 6.995662 0.180089 3.178019 0.315016 -4.382385 -3.017519 1.901328 -2.080324 0.784863 0.959858 1.435966 -0.218529 0.224373 2.322112 -1.176874 1.699616 -1.418162 1.811902 1.769194 -0.997679 -3.113800 -4.963965 1.069430 0.117250 -0.162184 0.047006 -1.818307 2.094580 -3.379424 -0.374705 1.551090 0.892613 -4.035047 -0.091121 -2.544367 -1.863365 0.816119 2.300169 1.894403 -0.280146 8.180295 1.394539 -3.305087 7.653254 -2.740596 0.813827 -2.035342 -4.526741 -3.143235 -2.528699 7.530698 -2.324586 -5.652722 -3.529470 2.439555 1.447639 -2.247938 2.887703 0.084862 -0.865137 -0.242082 6.713213 -0.449700 -4.977850 3.970089 5.187756 2.026972 -3.161211 0.047272 -2.324649 1.088683 -2.664962 4.744432 1.378633 -0.352744 3.192662 -2.604934 5.961191 -1.181702 1.377623 -3.977071 -0.020310 -2.464756 2.905020 1.836728 -3.701066 5.747241 -3.107221 -1.661558 6.145697 3.834401 -4.344233 0.050710 -5.104295 -3.755275 -0.737521 0.350536 -5.181307 -3.011606 3.347087 0.079803 3.044364 -0.548903 -0.339861 5.345769 4.018554 0.470847 0.636601 -6.859271 5.122192 -7.136344 1.544360 -2.017935 -1.412990 -0.180891 -5.088653 1.342475 2.935394 2.084983 -0.917351 -2.637090 -4.054446 4.525444 4.951022 -2.023672 -3.431758 0.651614 3.447532 -0.105042 1.760071 0.816855 1.367117 4.411888 -1.804296 -1.288051 -1.076605 3.862940 -0.045389 2.598092 -0.220445 -7.022373 0.406359 1.805098 -2.101189 3.324075 0.052956 -3.978193 3.249990 -0.554588 6.637356 -0.337270 -5.033302 4.510493 -1.615011 1.437570 0.467800 5.039899 1.820279 -0.073769 0.361790 0.171467 0.160140 -0.520362 1.649245 -1.227628 -2.694965 0.863260 -4.657967 1.490871 5.648676 -6.117690 -1.094267 -3.129153 -2.454564 0.376191 -3.318549 -0.381464 -2.360294 -1.099560 -0.790015 -8.425144 6.028140 -1.467643 1.566457 -3.511084 0.230283 0.574987 0.218427 -0.472041 -1.057155 2.112803 -0.777363 -5.409178 0.799032 -5.103949 -1.644495 -4.448970 1.137789 6.001569 -5.186540 -3.029985 0.171562 -0.240757 4.320642 -5.351009 3.569343 -1.738168 -3.091941 -0.056997 -1.182386 1.221707 0.698355 0.649243 -4.196597 0.039638 -0.441455 1.431123 -1.978406 0.862730 -1.581727 1.818520 -1.132266 -1.254611 -1.202154 6.356979 -0.412863 2.647759 -10.295915 -2.413126 2.588899 0.419171 -2.840955 0.383579 3.830008 3.995296 6.047471 1.444875 1.396060 4.022779 0.280785 -0.042184 -2.897169 5.211604 1.224168 1.275524 1.306425 -1.222129 2.228222 1.365429 3.055088 2.160530 -0.346873 -2.156796 1.176496 3.082960 6.926367 0.139615 -1.608301 -2.734567 -1.807277 -2.067014 -0.416498 -1.172327 -5.626703 1.898781 -0.852850 -0.435317 -3.002109 2.374493 -0.875244 -2.872316 5.558808 -1.240669 -7.808994 1.887486 -2.151784 -1.881240 0.969502 0.141806 -1.766232 2.214249 -3.576757 -0.423948 -0.623439 -1.107206 -3.511539 2.438650 1.823591 -0.830772 -0.173042 -0.306734 2.379932 -0.913431 -0.997658 1.545623 -3.764537 -2.526577 0.192290 -0.469690 4.687581 -1.510251 -3.142119 -1.754333 1.073109 -2.469545 2.466696 -1.170346 -0.343575 -6.976143 -0.180682 -0.961483 -1.557772 0.953884 -2.093633 -0.685225 0.064587 -0.098106 1.921675 1.099843 -1.756411 -3.585072 2.466166 -3.685779 4.567275 2.861295 -2.768959 -1.031306 -0.690919 -0.888638 1.216529 0.087947 2.343479 2.517412 2.657318 -2.664132 3.158096 -5.831647 -2.358051 2.459638 1.019434 -1.265016 -0.339760 -4.921112 1.624243 0.592703 1.854965 1.181656 1.419079 -3.090535 -4.373576 1.261105 -0.438048 1.549075 0.942174 3.846112 -3.549565 0.706522 5.009188 0.263881 0.140486 2.454382 -2.952796 1.129069 -1.893835 -2.251702 3.027072 -5.683037 3.579200 0.136724 3.011572 0.119109 0.183667 5.286937 -1.173212 -0.628131 1.686935 1.146817 1.069903 -4.255091 6.844347 -2.553179 1.233908 0.799211 2.887138 2.698254 2.252734 4.373640 -1.496833 -2.872422 5.141095 -4.499042 -5.942642 -2.273859 -2.384930 0.940934 5.794784 -0.733105 -1.821345 -2.748610 2.747832 3.739252 -0.505374 -2.973802 0.944369 -1.029335 1.948353 3.325653 1.998456 -0.333695 0.554542 0.670235 0.440502 -5.054892 3.256580 -3.105953 0.583351 0.690416 0.539395 -4.113354 -0.353572 1.772964 0.872688 -4.201364 -0.598568 -0.329323 -2.557485 0.486962 -0.418129 2.281838 -2.841166 0.780460 3.036429 -2.768172 0.610709 2.480135 1.790813 -3.221666 2.885487 -3.234065 -2.177651 3.170131 -3.626766 -2.447614 3.402293 -5.214792 1.585205 0.977931 5.424104 1.956407 -0.441834 0.110444 -2.271645 -1.868416 2.514885 0.997438 0.959923 1.636239 -3.103450 0.804426 -2.347189 -2.675921 -0.232361 4.496331 -3.899413 3.159942 -4.884443 -6.020881 2.727974 2.960814 1.761714 -0.568649 3.202114 -4.222012 -2.541865 1.857900 -0.292057 -2.954288 0.572387 0.801798 -1.120573 -5.493056 0.188541 -0.800200 1.666797 -1.430128 1.639415 2.018147 -0.372290 -2.777808 -0.231548 4.316365 2.908381 -0.078718 3.033720 -2.051867 -0.935411 -1.320843 -2.267411 0.227711 -5.083226 -3.569576 -0.026172 -2.640368 0.392197 -2.667135 0.476291 0.616597 0.643206 -2.089821 -4.167085 1.775060 3.238296 -0.352350 4.977612 1.603283 -0.341427 0.302952 -0.474441 -1.157566 -1.399120 -6.611651 2.526234 -0.702041 -0.361680 -0.120943 -0.126415 2.800225 2.161354 1.471405 -4.016293 -2.667908 0.182745 1.926633 0.903730 3.181653 0.521004 1.505409 1.658312 -1.720919 0.720070 -0.117671 9.821393 -2.563401 4.327855 1.350927 1.411487 1.204604 -0.031264 -3.092164 0.247303 0.357386 0.141984 0.442167 3.007489 0.057132 0.526834 0.488708 0.190499 2.712751 4.442361 0.974462 -1.084929 2.341297 -0.777486 -3.227872 -0.441955 4.025184 0.629621 1.320302 1.571306 4.330409 -1.195353 -0.941988 1.195500 -1.990187 1.296063 -1.766168 1.379658 1.516421 -3.537980 -2.507392 -2.196605 3.071263 -3.149111 2.817513 -2.751578 -6.286161 -1.765743 0.127632 -0.768086 -0.856475 -0.435283 2.900782 -4.454356 4.498350 5.113382 1.139848 -3.578202 2.592438 -0.600897 -2.835624 -0.121525 -1.228079 -0.659779 2.510329 4.444805 -1.348847 7.535695 3.220752 -2.305996 1.194312 2.794424 -3.283611 -2.392823 -2.304685 -2.040970 1.391908 3.346065 2.513591 0.284890 1.196448 1.148144 0.730542 -2.473991 2.679157 1.783560 1.848265 -3.018186 3.184497 -0.072356 5.070777 3.546588 2.708033 0.530370 -3.872405 -0.199416 -3.584331 -3.534423 1.594072 -1.563804 2.252034 0.096677 -1.815171 1.495797 -1.771174 8.314213 -1.754271 -0.563193 -2.238383 -1.396137 -1.220982 -4.446259 -1.619970 -1.550624 -0.583282 2.444989 4.654126 -1.071301 -2.614265 3.143309 -3.303669 7.469980 2.413125 -2.912352 -3.405848 -2.221099 2.863876 -6.530675 -0.546795 1.569086 7.062077 1.394154 -0.725195 2.465840 -0.592405 4.447403 2.149284 -1.181570 -5.126101 1.899309 -1.456883 3.556257 -2.905271 -2.178475 1.625249 -1.036666 1.822395 0.887900 0.688220 6.039079 -0.086533 2.977124 -2.593276 -1.878085 -1.800934 2.922268 -0.913166 4.643447 -3.373578 0.991368 -3.846673 -0.870415 0.994021 2.418376 -5.602660 4.175746 -1.390039 -5.698457 3.312510 -3.955270 1.993536 -0.989348 -0.614046 0.075238 3.079697 -0.354392 -0.406320 -0.280218 -2.935814 -2.092697 -4.606822 1.084805 -2.134689 1.048035 -4.107200 -0.156789 2.585316 4.216507 0.585426 -1.908291 1.627763 -3.758709 -2.986800 -3.376164 1.555522 0.979978 -1.379090 -0.421470 0.175069 0.468962 -0.101284 -3.372990 -8.008623 -1.036551 1.085334 -2.227393 3.478313 -2.287868 1.808526 1.903834 1.015532 -2.251078 -1.985060 3.256078 -0.400138 -0.052132 -2.637630 -1.851995 -1.354735 -4.108575 -1.358104 -1.654751 -1.196596 -0.713731 2.105392 1.697466 4.100588 -4.406551 1.892367 1.128895 -4.638791 -1.254904 3.271770 4.849110 -0.769075 2.647144 -0.344655 -2.238036 -2.012446 -5.552323 2.498891 4.000011 -1.726617 4.753781 1.827371 -0.368410 -2.750929 -0.653838 0.918348 2.912677 -2.835173 -1.631390 -0.494028 2.284786 3.791768 -0.329937 5.056059 -3.147945 1.077340 -1.930606 0.351975 -2.917752 -0.101254 2.381096 -0.431239 3.059136 -2.633270 5.955578 4.315383 3.289665 -2.290270 -3.864228 -2.736499 -2.765145 1.853820 0.302302 0.697004 -0.788377 0.514111 0.695821 -2.461470 -0.060518 1.742834 -3.743815 0.267690 2.853252 -2.825443 -1.732031 3.366596 -0.491777 2.577137 -3.033069 0.330939 -2.001386 3.470769 1.976675 -1.186269 7.373140 -1.683235 -0.337425 -0.300871 1.644658 3.351412 -0.187679 -2.445993 1.263465 -3.624501 4.703604 -2.344365 3.121390 -2.342047 1.390879 -1.150934 -0.986507 -0.991849 -1.326905 -1.012510 1.693868 -6.117349 0.742333 -2.160530 5.750563 -0.867070 2.134638 -0.375401 2.843339 -2.659717 -0.000455 4.470360 0.439078 -4.053411 -2.782711 -2.125383 0.690519 -0.140258 4.234724 -1.519361 2.783670 0.279674 -2.318203 -4.595195 0.624263 -0.468243 4.539653 1.312884 -0.652229 0.755319 -4.278430 3.856277 4.101923 -2.477386 1.322544 -3.388495 3.236611 -2.760223 2.267844 -1.599782 -0.963089 4.909415 -6.422952 -4.294356 1.346246 0.212772 2.438624 -5.818650 -3.961579 -4.958748 3.729130 -1.044857 3.633129 -1.953735 -0.286606 -4.291006 4.002869 -3.194367 1.857830 1.178315 1.178355 -0.518067 -2.587683 -2.158315 -2.431581 -0.042307 1.661475 6.414811 0.595088 -0.717569 0.148381 -0.202415 -0.950978 3.163470 -3.415045 -1.947646 -0.710782 2.005789 -1.184185 -1.213586 -1.249363 1.620897 -1.035449 1.679586 1.130036 -6.584910 3.000285 4.092913 -2.261276 1.213201 0.862706 1.030428 -8.856937 0.452672 -1.093485 -1.161210 -3.383492 -0.275921 0.304214 -1.673257 -1.327465 -1.842265 -1.554214 1.205783 0.568107 2.978322 -4.900856 1.894853 -3.949217 4.212973 -2.606080 -2.323761 0.985958 -1.708591 1.604731 3.302074 2.321047 2.100195 2.194606 -3.258202 5.262602 -9.343013 0.099411 1.713002 0.772893 -1.363051 -3.200076 0.544901 -4.599632 1.287596 4.607067 0.691776 -0.979123 0.067989 5.428944 -3.570262 -3.006215 -3.385271 -0.559935 2.159152 1.331169 1.190310 1.783509 -2.814677 0.435043 2.038918 5.772127 1.708376 -5.686770 -3.398160 -2.508863 2.385114 2.859568 -1.076212 2.649795 -1.580850 -2.719077 2.614332 3.144071 -5.952031 0.804309 0.603729 0.956747 1.265122 3.029144 -0.317876 0.421462 0.448906 2.439573 -0.729186 1.988774 1.437043 -3.733204 0.161240 2.228870 1.333958 -6.520616 -2.269614 3.064619 -2.812205 0.499875 2.348150 -3.002412 1.358967 0.923208 -2.383126 -4.281634 4.072646 -0.103873 -2.233390 1.231208 -1.734576 1.745157 -1.331076 -4.097652 -3.348077 -2.659707 0.121319 -2.905225 -4.749903 -6.009145 0.568630 -0.080836 2.028773 1.448288 -0.887207 0.380710 0.479735 -2.742773 -2.867334 2.163026 -1.395955 -0.675040 -7.840884 1.784119 -1.611761 0.822744 2.588371 -0.699560 -1.964473 1.611690 3.391608 1.952364 3.927211 -4.712710 -0.329536 2.402882 -1.369296 -1.539701 -1.682497 3.828611 3.312532 2.982891 -2.619612 3.601832 -2.278216 3.030990 1.484433 -1.804191 -0.722216 2.271163 -0.755658 1.954683 1.274131 0.843580 -1.374055 1.696645 -1.463679 -1.172564 1.451207 3.241843 -2.352621 -1.229203 4.259003 0.583563 3.278591 -0.307003 -0.100314 0.481264 0.397150 -0.156415 2.107511 -3.417949 0.281108 -2.245403 -1.826294 -1.583692 0.866765 0.502225 0.693443 1.029536 1.082773 -6.440746 -2.437249 2.288814 -4.222751 -3.169841 2.519919 -0.409374 3.204301 2.588358 4.305993 3.808891 3.420333 -2.426552 -1.769806 -4.187463 -4.012083 1.124382 -5.032799 -0.904246 4.887954 -0.847364 -2.327027 0.828390 10.221131 -2.530554 1.234250 -1.759665 -3.524023 2.820671 -1.723353 -2.110445 -1.401915 4.604869 -6.410207 0.777750 -2.504374 0.208385 -2.415439 -2.307363 0.733066 -1.766661 -0.910769 1.496995 1.023085 3.499384 0.320807 0.481575 3.194812 -2.631737 2.973265 4.217654 -4.511293 7.353850 -2.148237 -3.695437 2.473308 3.517615 -2.654518 3.463493 5.123613 -3.178735 1.375276 0.433509 -2.753340 2.996102 -6.010567 0.468345 0.598949 -1.915628 1.230758 -4.303422 1.980856 6.452958 -2.751579 -1.624149 1.556341 -6.449965 2.767291 -1.609523 0.661613 1.056880 1.403112 4.153799 -1.507020 4.218816 -2.384655 0.780654 2.853678 -0.648044 -0.133221 0.099035 -2.291792 -1.693191 0.954310 0.100960 0.188571 -4.574752 -3.140464 -2.395145 0.231965 1.995743 3.756752 1.000872 -3.047992 1.078944 0.391306 4.618209 0.147909 -4.956396 -2.960747 0.649549 0.123964 -3.193711 -2.896754 2.918968 2.779378 5.156199 -0.992649 -2.715817 0.936774 5.248984 0.590557 -2.324572 1.163825 -3.648924 0.382293 -2.999269 -0.662528 1.796896 1.565447 -0.798948 0.003804 -2.167904 0.741537 7.587491 0.003285 0.658562 -3.779609 0.212427 -2.594176 -2.980124 1.636982 5.877313 2.857315 -4.131135 2.987227 4.715110 -4.334776 1.118228 2.215704 -3.122872 1.318897 0.825753 0.447943 3.360942 2.477205 4.396560 -3.655706 0.419875 2.553574 -3.575848 -0.342848 -0.854538 1.976507 2.095842 -3.060510 0.465095 -2.080828 -4.144674 -1.202681 3.338034 4.958879 -0.471992 -1.758630 -0.655644 -0.334058 -1.017876 -4.606587 0.989455 3.522869 -1.584398 -2.936057 -2.063683 -1.734222 0.738460 -2.941405 2.424684 -0.216191 -4.245735 2.336966 -1.319486 -1.254760 1.227439 5.581277 2.052677 2.689314 -2.478532 0.879223 0.466964 1.971372 -1.785176 -1.314254 -0.367888 -2.430969 -1.774427 0.540041 -0.064232 -2.532870 3.473078 0.169660 3.226981 0.164033 2.624445 2.076437 -3.397803 -0.027233 -3.126251 -2.562103 0.199664 -0.327167 -0.143955 -2.109229 -1.210538 -0.959417 6.658660 -0.553275 -2.689782 0.997055 -1.696388 1.361893 -2.267861 0.149504 2.650398 -2.562985 1.014823 0.630017 -2.077276 3.452659 2.119007 -3.486246 3.020141 -0.297633 -2.733918 0.457409 -0.397126 -3.074084 -2.108988 -4.406217 -6.139440 2.793449 1.271470 -4.198627 2.548795 2.176860 2.221576 -0.595305 -0.990938 1.409636 6.151422 -3.143049 0.301908 2.982211 -5.188650 1.381998 2.516089 -3.728788 0.290557 -4.836349 -3.756720 -2.925761 -3.021863 -3.167536 -0.056634 2.661519 -0.101404 0.700033 -1.824001 3.677566 2.330096 3.867637 0.332683 -1.760136 -0.707864 1.764968 3.156339 -5.889028 3.300598 -0.049595 3.083658 2.587442 -0.810131 -0.262658 2.536767 -0.858409 1.503522 -1.528463 1.443146 3.936345 5.663151 -0.454839 0.291440 -1.984405 0.890258 5.177658 -4.544320 -0.598189 -2.593656 -1.498629 3.896964 4.761571 1.053753 4.390262 4.357027 1.421186 1.473041 3.047567 -0.762585 7.196356 -2.134594 -0.958089 -2.661713 -2.120111 -4.588474 5.854309 -1.293122 -0.233153 1.121846 1.371899 1.631199 -1.577995 3.327396 -0.348567 0.392758 -7.054489 -0.171895 -3.055822 4.863507 0.679143 -4.288809 -1.978211 -3.596621 9.822314 -1.320829 1.567869 1.713882 -0.158897 -1.689128 -1.844609 -2.548209 -5.200563 1.101731 0.366437 0.777131 -1.121404 -2.907445 -4.566359 -6.450085 4.157859 1.821448 -0.928676 2.930496 0.696274 1.597038 -3.926602 0.994427 -2.996895 0.102174 -0.026017 -2.485310 -3.730504 2.386895 -1.209407 1.265879 0.811184 -1.884406 1.785054 1.426560 -1.676415 -1.460971 1.156494 -1.963552 1.165319 0.673523 5.581787 -0.392523 2.830831 -0.271963 -2.690294 0.369926 -3.244004 -2.980310 -5.098320 1.129943 0.650144 -1.775029 4.037340 -1.955249 -5.902184 3.080996 1.181328 0.449914 -2.067902 -3.999791 -0.023771 -2.522191 -0.182379 1.399178 1.024047 1.464894 1.741919 -0.909173 1.913072 3.552250 2.110906 1.659290 1.593684 -5.964573 -1.676204 -2.120313 4.848378 -2.019166 1.367167 4.397689 -0.771660 0.258105 -0.506872 6.415209 1.904715 1.851349 -3.264381 0.808580 -1.692140 0.501542 4.418326 -2.184793 -3.132350 -1.702826 -1.271755 -3.949091 3.831334 4.508464 -1.077459 0.713048 3.652716 2.995858 -5.377391 0.335357 -3.369648 -2.498134 -1.903404 -2.055291 3.644988 0.645946 -1.499048 1.616904 1.331711 -4.072634 4.251869 2.396570 -0.544431 -4.696670 -3.516928 4.645471 0.405878 -0.064502 -2.773343 1.214384 -3.448536 2.320752 3.191831 -0.561492 -2.200408 3.761347 0.418064 -7.097380 -0.572991 -1.716101 0.975867 3.256935 -0.186662 -1.783567 2.238177 1.577802 -2.005606 -2.001855 2.988862 -2.848953 0.909287 0.558211 -4.749408 6.926420 -0.390226 -2.792030 -1.828371 3.536012 -0.043495 5.080727 -1.535844 -5.857843 1.494961 0.368721 -5.576582 2.853749 -3.457783 0.524809 1.051585 -1.982114 -1.492466 3.813114 -0.100574 2.449806 4.667923 -1.335764 4.893683 3.628458 -2.549533 -1.855661 -1.885088 5.611613 1.406026 -1.283046 2.001058 -2.894376 -1.648200 -2.063718 -2.834698 -2.740118 -2.108823 -4.144296 4.685267 -1.483980 1.651359 -1.190134 9.285955 4.597274 1.372415 -1.078705 -0.786103 2.008452 3.066569 -1.189245 -1.022779 0.014974 -2.046167 