8.109643 8.209169 8.304150 8.394646 8.480718 8.562427 8.639832 8.712995 9.882027 9.914453 8.369504 8.181879 8.186029 8.789761 11.808633 12.341147 12.694169 11.865771 12.863245 14.158503 16.029472 17.885509 17.001501 16.540245 17.299121 17.783607 16.108068 16.503067 16.570904 16.817450 15.922070 14.960355 12.977571 12.214135 12.674865 12.173407 10.728257 10.544041 10.974097 10.666520 11.989853 9.365298 8.689437 7.822774 10.105262 12.013689 11.094618 10.135033 9.141819 10.241239 9.976414 11.312256 10.511332 10.494022 10.234806 9.388271 7.893934 7.921644 9.429132 10.036113 9.103709 7.889018 7.456551 7.480721 8.531034 7.800124 10.162330 8.880523 8.039040 6.899549 7.409972 6.397878 6.214427 6.723059 6.405246 7.758439 6.665235 5.304900 4.790598 5.588937 6.551792 6.779581 7.369492 7.479886 6.979275 7.040494 5.532005 6.214931 7.206255 8.201702 8.515262 7.654054 5.078305 4.855132 4.379019 3.816532 4.352117 5.506389 4.929056 4.016742 2.344780 2.358237 2.387551 3.948242 3.994845 3.074899 2.275577 2.102976 1.950251 0.926567 0.655997 0.446952 0.681946 1.564726 2.329977 1.596688 -0.572441 0.780726 0.353158 0.440837 1.084365 0.971400 0.488359 -0.842392 -0.416692 -0.416827 0.224818 0.088838 0.204377 -0.147095 -0.312019 1.157630 0.165568 -1.422489 -0.448813 0.815746 1.383926 2.124979 -0.080651 -0.575760 -0.489169 0.774001 2.433081 1.734028 0.402672 -0.939294 0.408837 1.362236 2.011147 1.854085 1.116028 0.517065 2.076974 1.761139 2.601506 1.707327 1.149511 1.184702 1.106717 1.849737 2.252856 1.668801 0.457585 -0.209868 1.123494 1.370564 1.370613 0.847174 0.000399 0.489040 -0.336485 -0.576719 -0.286363 -0.127123 0.615460 0.649458 0.334429 -0.366413 -0.644842 -1.568897 0.055762 1.823807 -0.079936 -0.124950 -1.238689 -0.734288 -0.043184 1.215749 1.330760 0.487588 2.569155 0.625204 0.678776 2.140841 0.758255 -0.264433 0.433332 2.169627 1.236075 1.114127 0.531206 0.896307 1.200602 1.895557 1.820860 2.451865 2.329192 0.091502 0.853932 0.331665 1.176929 2.298298 1.393334 0.752187 0.409192 0.967036 1.852693 1.053058 0.983417 1.162086 2.219951 2.025176 0.697844 -0.290394 0.993583 1.763036 1.387259 0.558824 1.694908 2.099387 1.239639 0.383886 0.549086 2.239571 1.328632 2.046084 3.735692 2.053217 0.548606 1.141432 1.006434 1.024584 3.121716 2.302338 1.164651 1.474477 1.850972 1.357515 0.727267 -0.091842 1.688702 1.645880 0.477396 -0.288588 -1.528918 -0.702467 1.004127 0.244778 0.368763 -0.282857 0.725123 0.936882 -0.823805 -0.158572 -0.392087 1.070297 1.465170 2.115526 1.206645 0.515232 0.015152 1.486612 2.763866 4.265254 3.188876 2.409661 1.692076 1.296335 2.035439 2.143542 2.526363 2.760718 2.567380 2.071703 0.842546 0.261379 0.645739 2.879571 2.802903 1.943993 1.030900 -0.203022 0.807496 1.891621 2.229813 1.927744 1.734999 1.659493 2.441797 2.322332 0.922556 0.501000 1.624208 1.418084 1.106554 1.042008 -1.511799 -1.518382 -0.268894 -0.668443 -0.480520 -1.275458 -2.052854 -1.585405 -1.582035 -1.705056 -1.850429 -1.964005 -2.667462 -2.201787 -1.574702 -2.273130 -2.468771 -2.607492 -2.644885 -2.924023 -2.185209 -1.555530 -2.254037 -2.452468 -3.208591 -3.482703 -3.215856 -1.742191 -2.204125 -4.144240 -2.386744 -2.279789 -1.917655 -1.323902 -1.991047 -1.503792 -1.765117 -1.006840 -1.852118 -1.813569 -1.312624 -0.871234 -1.451159 -1.786363 -2.001655 -2.316114 -1.124707 -0.112026 -1.477397 -2.529842 -1.918978 -2.494399 -3.030878 -1.842877 -1.194957 -2.189631 -0.758969 -0.823256 -1.619084 -1.086587 -0.672853 -0.221044 1.049853 0.761655 -0.519552 -0.688710 0.405218 0.232679 0.448519 -1.027467 -1.667188 0.035565 -0.922047 -1.337881 -2.558950 -2.365993 -1.491203 -1.134422 -0.475806 -0.607468 -0.463000 -2.207072 -1.589179 -1.404866 -2.711916 -2.536412 -3.147061 -1.419305 -1.868433 -1.415148 -2.573733 -2.692791 -2.003004 -1.312563 -1.118158 -1.426000 -2.542416 -2.974191 -2.484710 -3.646118 -3.739799 -2.273635 -2.304585 -1.596230 -1.170687 -0.852216 -0.505192 0.243697 0.212152 0.294958 0.845377 0.532634 1.653963 1.717662 0.074669 -0.583681 -0.120686 0.756737 0.085954 0.291363 -0.180183 0.856172 -0.578283 0.033446 0.233978 0.721851 0.897450 1.789414 2.458910 2.034924 0.363341 1.113917 1.880024 3.541303 4.860991 3.429754 2.211759 2.371283 3.027837 1.974275 3.052560 3.040698 2.388493 1.801425 1.294735 1.284939 0.408831 0.055146 -0.036575 2.012259 2.431920 1.648444 1.397515 1.585429 2.369898 2.114112 1.970621 2.872218 2.372193 4.266960 5.287219 3.123475 2.671068 2.624336 2.903088 5.280172 5.472821 4.275482 4.036338 4.221835 4.276070 3.871948 4.492673 5.161553 5.497229 5.908763 5.322508 4.162882 3.666298 3.607288 5.650265 6.439434 6.296900 6.352351 4.812006 5.367267 4.123126 5.837519 7.027153 7.516243 7.300057 7.133656 5.394422 6.709881 6.817669 6.743948 8.767481 9.455879 7.860572 7.472792 6.825441 6.799397 6.915851 8.278863 6.966821 7.801112 8.135592 6.228195 7.504581 6.308265 6.282273 8.092591 7.542857 8.145111 8.419767 7.536090 7.098703 8.741775 8.212117 8.027545 8.933770 8.182031 8.104616 8.924832 8.869156 8.573186 8.764401 9.373241 9.049373 8.676126 8.744375 8.686266 9.967626 9.099738 8.253820 7.019886 6.561976 6.840302 8.095401 6.206643 6.604175 6.275699 5.906495 5.173011 5.459440 5.671210 5.596143 5.771205 4.325070 3.567672 3.986378 4.971253 5.106314 5.565299 3.787432 4.616252 4.517116 5.273631 4.509397 3.543985 3.512538 2.987438 4.015192 1.934239 0.325523 1.786528 2.155808 1.877128 1.591141 1.399268 0.534203 1.489935 0.569283 -0.494368 -0.596051 -0.615699 0.500917 -0.192144 0.379932 -0.125001 -0.643698 0.465683 0.698587 1.065974 0.576615 0.138663 1.431059 1.817445 1.729769 -0.980519 -0.625303 0.337200 0.629362 0.214632 -0.551102 -0.894692 -0.470050 -1.858198 -1.726859 -2.157315 -1.340281 0.275528 0.421277 -0.459640 -0.709229 -0.160284 -0.400436 3.014525 2.793710 2.144147 1.592666 2.161614 2.709411 3.589908 3.984842 3.749460 2.508506 3.168816 2.838903 2.388470 1.985013 2.290357 3.028472 3.174337 3.333208 1.760376 1.995190 2.586032 4.342214 3.650394 4.039155 3.483211 3.345857 2.937311 2.819884 2.892614 3.223407 3.876750 1.980043 2.722045 2.398239 1.395735 1.701437 1.272894 2.323027 2.801543 2.506173 1.482869 0.290090 1.560942 1.304327 2.631815 2.436106 1.433905 2.579805 2.430593 2.432053 3.672724 2.847406 2.368306 3.338727 3.739125 2.684039 3.746689 2.669409 3.139593 4.452652 3.843309 0.995442 0.044277 2.642990 3.565825 3.851678 2.196362 0.615864 0.237934 2.819966 3.518655 1.713724 2.711556 1.583569 1.201741 1.356133 0.984213 1.839756 1.719543 0.975235 0.383850 -0.127182 1.294850 1.409952 1.582179 1.145477 0.161481 -1.067250 -1.218570 -0.409424 0.184009 -1.146793 -2.534560 -2.898188 -3.577653 -3.275494 -3.846372 -3.388809 -2.100178 -2.785617 -1.921333 -3.512245 -4.359336 -2.962874 -2.183998 -1.703018 -1.614833 -2.863488 -4.399832 -4.883562 -4.541259 -3.502079 -1.967322 -3.336501 -4.576845 -5.621314 -3.850478 -4.272044 -4.466699 -4.770230 -5.572463 -5.416483 -4.209889 -4.842640 -5.734606 -5.548450 -5.365770 -5.440524 -3.923289 -2.799537 -3.437633 -3.494144 -4.098690 -4.653970 -3.550866 -2.284514 -3.663936 -2.837742 -4.637205 -5.572018 -3.950173 -4.034286 -4.741326 -3.846775 -3.752066 -4.609937 -3.610413 -4.005372 -3.668133 -3.557956 -2.273044 -2.594296 -2.230401 -1.768812 -2.950374 -2.899946 -2.029107 -2.219825 -2.524142 -2.280967 -2.261363 -2.287213 -2.624983 -1.498024 -1.484772 -0.303309 -0.576489 -0.264070 0.077525 0.281585 0.561055 0.792701 1.403019 0.988436 0.602482 1.195933 -0.136452 1.598107 1.770186 2.236219 0.359826 0.477537 1.480705 1.287542 2.617017 2.124883 0.682325 1.154054 2.482274 1.311849 1.796656 1.524789 1.399552 0.595354 0.495186 -0.041783 0.558934 0.669979 1.344073 0.492833 -0.460197 -1.127982 -0.759552 -0.220497 0.583479 -0.348581 0.029377 -1.463485 -1.348138 -1.381696 -0.043460 0.363537 -0.740734 -1.143085 -2.106322 -1.584783 -0.784289 -1.090770 -1.284169 -0.500877 -2.386942 -2.600800 -1.905022 -2.396134 -3.252025 -2.810656 -3.116023 -1.608528 -1.354382 -0.836542 -2.684951 -3.018998 -1.805119 -1.584558 0.047065 -0.015125 -0.755222 -1.430121 -1.476886 -1.200720 -1.843641 -0.527414 -0.207715 -0.938637 -1.196546 -2.286201 -2.802519 -3.313556 -1.628975 -1.583851 -1.479020 -1.422916 -2.131285 -2.841114 -2.203077 -0.096419 1.000594 1.622572 1.689732 -0.549030 -0.094130 0.777351 1.686536 1.720016 1.152183 1.494834 0.480609 1.330789 0.123573 0.173580 -0.441546 0.950824 1.274444 1.588429 1.731282 1.170060 0.639413 0.531635 0.906650 -0.305195 -0.033755 0.309243 0.538607 -0.207360 -1.398664 -1.313626 -0.901124 0.555169 1.114911 1.446865 0.844915 1.621351 2.523164 2.424563 2.795499 2.944485 1.757189 2.550784 3.389637 3.078210 2.243785 1.742692 1.655938 4.057239 4.322397 5.248829 4.289624 3.278193 3.916318 3.831694 3.820179 5.074400 4.963688 2.854249 2.177961 2.042107 2.568914 4.177293 3.890273 2.270622 3.425281 4.059592 2.513392 2.772613 3.321993 4.835041 5.476006 5.425727 4.219121 5.365293 5.773775 5.482846 5.323300 4.653835 5.127213 5.713291 4.732738 3.751309 1.834330 3.350307 3.834265 5.623284 6.045292 4.637794 4.431269 3.683867 3.893031 4.985175 5.320007 5.160047 4.404024 2.798179 1.469349 2.080526 3.338718 3.173590 2.911120 3.568122 2.469218 3.136359 2.580500 1.435121 2.563338 2.971523 1.494156 1.566273 1.851869 0.482043 -0.591444 -0.965613 -0.145408 -0.186435 0.926563 -0.952310 -1.870300 -2.115086 0.105915 0.146207 -0.200036 1.168287 0.728276 0.641331 2.135408 2.008939 1.214929 2.138251 2.202638 2.022660 2.241638 1.522535 -0.277883 1.808997 3.335309 2.237735 2.364264 1.406150 0.818648 2.503478 4.066301 3.251688 2.632254 2.324074 3.241529 3.460075 3.724249 3.759471 4.272722 3.836638 3.945881 4.031321 4.882875 4.793942 5.050900 4.269218 3.123231 3.509998 5.174674 3.962570 3.078847 5.070475 3.956670 3.191044 2.501823 1.138904 1.641613 2.499864 2.149874 0.824692 1.779151 0.898280 0.828842 0.097620 1.034337 0.249225 1.862050 1.615423 0.886865 0.241677 -0.351467 -1.368238 -1.694554 -0.666534 -0.280997 -0.427369 -0.569241 -0.911199 -2.095609 -1.648542 -0.357259 -1.015987 -0.035047 -0.658168 -2.327580 -1.599764 -1.344349 -1.963415 -2.718631 -1.759123 -2.111632 -1.259925 -1.426154 -3.436917 -2.735378 -1.574591 -1.142826 -1.270106 -1.712743 -1.971177 -2.522698 -0.794875 -0.228490 -0.335890 -0.965458 -2.228151 -2.677114 -1.945964 -0.850936 -1.649035 -1.821644 -0.841723 -3.273325 -2.871752 -1.670913 -1.554404 0.052092 -0.476072 -2.265969 -3.445089 -2.908025 -0.442259 0.472275 -0.298305 -1.161746 -1.490467 -0.202332 0.551724 2.069381 1.545891 2.461893 2.093843 1.407564 2.298521 2.095569 2.938558 4.201796 3.453336 1.544251 1.846067 2.257244 2.181169 3.174468 3.474165 2.886885 4.714416 3.745987 3.980003 3.658755 3.375893 4.000804 6.486540 6.217614 4.481585 3.763745 3.791305 3.654374 5.102275 4.950077 5.831171 5.143922 4.651619 3.892086 3.372771 2.657003 3.606767 4.299567 2.923194 2.941667 1.932950 2.252416 1.845170 0.831610 0.383598 1.758998 2.067694 0.240276 -0.497011 -0.754711 -2.035921 -2.136567 -1.015327 -1.405655 -0.327723 -0.110257 -2.272430 -2.356556 -1.398170 -0.366253 0.330093 0.911630 -0.602805 -0.461429 -0.615027 -0.890898 -0.782815 -1.664638 -1.054622 -1.737234 -2.113154 -1.097607 -2.064169 -2.860863 -3.357263 -2.935553 -2.773686 -2.204075 -2.057955 -3.517367 -4.492183 -3.734215 -3.578830 -3.235084 -3.610853 -2.494452 -2.365123 -2.442699 -2.358172 -2.526322 -3.139353 -3.196175 -2.190588 -1.692744 -1.197492 -1.604653 -3.069322 -4.234236 -2.644256 -1.358894 -0.796385 -1.386275 -1.484598 -1.939112 -1.633866 -1.827451 -1.780991 -1.858192 -1.482161 -2.052428 -2.670889 -1.459862 -0.816685 -0.199746 -1.093028 -0.811480 0.317413 0.593782 0.794437 0.913211 0.650620 0.834130 0.685307 1.051028 -0.564795 0.964235 2.283458 2.760743 2.947146 0.866390 1.719406 2.943079 4.253744 4.140093 3.415377 3.370843 2.917314 3.134410 2.219771 1.572705 0.194456 1.524427 1.742157 1.093821 0.768969 0.253423 -0.786155 0.739884 3.061614 2.176473 1.839975 2.161691 1.036528 2.001745 2.264659 1.662396 -0.605818 0.286287 0.350535 -0.263449 -0.475511 -1.959366 -1.803762 -1.160500 -1.660236 -2.139327 -2.500474 -0.997497 -1.059215 -0.874865 -2.408392 -3.620000 -1.126354 -0.936912 -0.261234 -0.480509 -1.776302 -2.077912 -1.694568 -2.775440 -2.257540 -1.428655 -1.734039 -2.567885 -3.683967 -3.384629 -3.309033 -2.177604 -2.131071 -2.198131 -2.940559 -3.131619 -3.510198 -2.947854 -2.953629 -1.312685 -2.116279 -1.700875 -2.461041 -2.153692 -1.845645 -1.652597 -1.260341 -1.622902 -1.748698 -2.200795 -2.364974 -4.480290 -3.938003 -3.108323 -3.734051 -3.444054 -3.299192 -3.552515 -3.072496 -2.805447 -2.082921 -2.656516 -1.864729 -0.930656 -1.706462 -2.095067 -2.430004 -2.654216 -1.936707 -2.601611 -2.525870 -3.204506 -2.854770 -4.373017 -4.005852 -5.277169 -4.422830 -3.882555 -5.107231 -5.551295 -5.822047 -6.466791 -5.089707 -5.581028 -6.572747 -6.408987 -6.842719 -6.591825 -7.833958 -8.390735 -7.976851 -8.669762 -6.879637 -7.104570 -7.794015 -6.710976 -8.059058 -7.042461 -8.006509 -7.038620 -6.562757 -6.074691 -6.078754 -7.298226 -6.832864 -6.466959 -5.023740 -6.233895 -6.162380 -4.883634 -5.039534 -4.810066 -5.094608 -5.592585 -4.786742 -4.402616 -3.217657 -2.961982 -3.398085 -2.544546 -2.011964 -3.379443 -1.645334 -1.478882 -1.327135 -1.674786 -1.672906 -1.766389 -1.522979 -1.443249 -1.706190 -0.360297 0.138012 -0.204242 -0.513973 -0.716444 -1.027433 0.684794 0.628302 1.240014 -0.374453 -1.089027 -0.935298 -0.792497 -1.055672 -0.506413 -0.872186 -1.009184 -1.274843 -1.474671 -1.762580 -0.764621 -0.501341 -1.322803 -0.576442 -0.784385 -1.595697 -1.275055 -1.952773 -2.221473 -2.339789 -0.526083 -1.362699 -1.285440 -1.121749 -0.853718 -2.006287 -0.919629 -0.272368 0.159777 0.832235 1.204058 0.023757 1.092462 1.174882 1.801435 1.843236 1.450571 1.323425 1.584244 0.460985 0.249583 0.292435 -1.237819 -0.274265 0.518903 -0.207471 0.751959 -0.727828 -0.157732 -0.370784 -0.788616 0.418048 0.987547 1.516639 1.313340 1.140751 -0.059366 -0.045334 0.867566 3.066795 2.976849 2.752546 0.860287 -0.778375 0.227876 0.576394 1.323569 0.921898 1.306614 -0.079382 -0.419631 0.487168 -0.315907 0.586465 1.557596 1.420775 1.781053 1.399144 1.153231 0.845962 1.318666 1.084064 2.646224 2.326305 1.589989 1.329748 1.028198 0.272689 0.477910 0.670315 1.988160 1.769924 0.460916 0.302721 -0.988986 -0.604478 0.763947 1.501173 1.790160 1.696824 1.461868 0.950552 0.411395 2.135895 2.994367 3.615363 2.842694 1.242639 0.023208 0.055580 0.564557 0.356240 0.301233 -0.513252 -1.128896 -1.263614 -1.118502 -0.157179 0.498479 0.835658 0.964407 1.109276 0.223392 1.414823 1.975751 1.864469 1.210980 1.187936 1.795180 1.687086 1.422463 1.654131 1.123856 3.049177 2.751735 2.637278 2.001114 1.225815 2.245341 3.347711 3.648589 2.649490 2.792534 1.516957 2.746189 1.873854 3.588382 3.545233 2.375977 1.638577 2.297637 1.800182 1.177968 1.169239 0.685608 1.107842 1.161886 0.686967 -1.217233 -1.446039 0.399800 1.281192 1.404192 0.966675 0.400995 -0.651292 -0.259061 0.100328 1.056789 0.605945 -0.170817 -0.842676 -1.821646 -1.500001 0.152109 1.185506 -0.677658 -0.761699 -0.158632 -0.276420 -0.144195 0.335526 -1.405491 -0.848054 0.390727 -1.087543 -1.837569 -2.105517 -0.894725 -0.039963 -0.247727 -1.422178 -1.960668 -0.246195 -1.664161 -1.183626 -0.326626 -1.248341 -1.203407 -2.491027 -3.903085 -3.310930 -2.399789 -2.660934 -4.253183 -4.935407 -5.382503 -5.879088 -6.481452 -6.383055 -6.444442 -5.861446 -5.736738 -5.673763 -6.258631 -6.089083 -4.811776 -5.360080 -4.055041 -4.151501 -3.285846 -3.449986 -4.857792 -4.569792 -4.955391 -4.733835 -4.111551 -3.866708 -5.083071 -4.924105 -5.274057 -5.317304 -5.243425 -4.508543 -4.938198 -3.559881 -4.969473 -6.020776 -4.856230 -5.138438 -5.386349 -4.837193 -5.649309 -4.311231 -3.809772 -4.663703 -5.061364 -4.389755 -4.784313 -4.017284 -3.200382 -4.306428 -3.913451 -4.360982 -4.747922 -4.574863 -2.986201 -3.716240 -4.198208 -3.030280 -2.171784 -2.598419 -3.170792 -2.861700 -2.634487 -2.992498 -3.838030 -2.576928 -1.965051 -2.892068 -3.336826 -4.599055 -4.487853 -3.649737 -2.015374 -2.375386 -4.442895 -3.371344 -3.754934 -3.740106 -3.714633 -3.821134 -3.847998 -2.317069 -2.876837 -2.559752 -3.023993 -3.940275 -4.180786 -2.933802 -3.078381 -1.586123 -1.721360 -3.208021 -3.245603 -2.137386 -1.652462 -1.870932 -0.823620 -1.105225 -0.510957 -1.299453 -1.909434 -1.913071 -0.799970 0.015138 0.446751 0.827976 -0.449815 0.884592 0.075809 1.261452 2.259170 2.925111 2.470469 1.303101 1.664917 1.326209 1.768840 1.768805 1.266398 3.244098 2.785225 3.080191 2.213828 2.777709 1.648796 3.567617 4.932541 4.858959 4.115014 3.063300 2.236561 1.422428 3.533577 4.064123 4.870557 4.095794 2.577516 2.121607 2.573931 4.136929 4.753903 3.347613 2.950408 3.546985 2.113051 2.389904 2.242476 2.179216 2.383573 1.652094 1.485031 2.081033 1.653396 1.699365 1.132924 2.557864 2.808569 3.298985 3.105233 1.423142 2.185945 4.357468 4.107925 5.053401 4.736871 2.961579 4.249436 4.556281 4.423001 4.333202 5.739490 5.261950 5.288975 5.086655 4.318869 4.925700 5.687968 6.369489 5.245340 4.938064 3.933678 4.174338 4.063468 4.644494 5.584034 5.142688 5.160733 5.825031 6.262947 6.123736 6.380970 6.902774 7.728920 8.341181 7.856236 7.484946 7.667808 7.107954 8.425623 8.036281 7.886095 7.762735 7.319661 7.758119 7.552023 7.834120 8.697636 9.215493 9.505237 10.350020 9.334160 8.439336 8.630160 8.700769 9.856465 9.301326 9.492536 8.594197 7.825239 7.725555 8.109950 10.991924 13.140694 12.885806 12.918222 14.483182 15.121167 17.858301 19.276712 20.203901 21.071243 20.973851 21.941882 20.197406 19.692151 19.124664 19.922590 21.951739 20.370856 19.217561 17.921618 16.765599 19.880050 20.028910 18.295399 16.374128 16.470939 16.065727 16.832859 16.883492 15.814191 16.405019 16.419491 16.682251 16.285344 15.699779 16.810006 17.750879 16.442485 16.172089 15.881517 15.852581 15.414463 15.959221 16.378156 15.115265 15.434653 16.313795 16.220280 14.024062 15.962256 16.601366 15.788755 16.379883 15.930738 14.704784 16.123278 16.215320 16.977259 16.578246 17.016439 15.827723 15.795310 18.498264 19.041267 18.655710 17.861576 17.037688 17.033140 17.839876 18.425012 17.957828 17.776377 19.129816 19.124750 19.395830 19.395656 19.582829 20.045309 17.979146 18.191594 18.337212 17.758633 16.005461 15.792703 16.419212 15.136152 14.276747 14.911935 14.942800 16.061732 15.362126 14.379155 13.635289 13.961347 15.264634 14.767205 14.338451 14.312115 15.810318 15.243939 13.181103 13.628133 14.245469 14.640092 14.706328 13.719503 11.511854 12.731950 14.600716 14.371985 13.567719 12.373336 11.904172 12.872359 12.196554 12.968868 11.368362 10.951175 11.213324 11.223298 10.869472 12.735552 13.594535 11.790889 10.981081 11.228683 12.211062 12.996093 12.775695 12.006299 10.915455 10.678932 11.193640 10.773445 11.218981 11.918844 10.947659 8.851286 7.978787 8.970537 8.318475 9.891187 9.191216 8.708480 7.909339 7.399901 10.740667 10.306415 9.641876 9.154078 9.062163 9.509997 10.927644 10.900176 9.912965 8.906850 10.253778 9.931715 11.022744 10.926796 10.182056 9.884023 9.095354 10.272416 10.663987 10.757612 9.382221 9.478663 9.809755 9.626618 9.121088 8.869745 8.356954 8.687629 8.189298 7.393348 8.937929 7.375266 8.364902 7.773944 8.426045 7.959905 6.993725 7.506794 8.917449 7.825237 7.763833 7.129928 6.163105 7.208050 9.772609 9.984497 7.549448 6.110408 6.013644 6.560845 7.992649 7.929844 7.108954 6.000153 4.954703 5.767917 6.297784 7.798447 6.953554 5.918836 5.238629 5.200411 5.853665 6.031019 6.275858 4.764225 4.378071 4.961351 5.074064 6.425309 5.526226 4.747698 4.071701 5.536684 6.568384 6.766962 6.509887 5.941644 5.583856 5.967837 7.619828 7.940880 6.719415 6.166339 6.473709 8.103831 8.601224 8.472501 6.696881 6.848715 7.285926 8.263570 8.925981 6.451411 5.906184 5.742773 5.742216 4.723930 4.663805 4.018579 4.112500 4.427172 2.726486 2.481513 2.007729 2.809812 3.226620 3.489650 2.559453 2.746092 3.194797 4.087221 3.064045 2.074844 3.741698 3.059740 2.863181 2.947904 3.184442 1.432644 2.621474 1.305740 0.520423 2.460639 2.293391 1.060766 0.689958 -0.407080 -1.516923 -1.316117 -0.423026 -0.585309 -0.122001 -1.384270 -2.768297 -2.576675 -0.664691 -0.386679 -0.863529 -1.030458 -1.580725 -1.814976 0.463365 -0.547688 -1.646345 -0.196947 -0.476988 -1.127097 -0.695788 -0.048918 -0.907306 -1.337199 -0.893761 -2.151853 -1.311681 0.137493 0.050746 -1.607753 -1.073912 -2.127538 -1.184166 -0.840664 -1.326964 -1.612905 -1.171843 -0.755287 -0.664494 -0.460067 0.046759 0.009340 -0.320779 -0.245089 0.918738 0.829135 2.542626 2.264398 1.742905 1.741491 1.731992 3.627518 5.195212 4.394745 3.524431 2.383571 2.041633 3.867096 3.817349 3.589796 3.756806 3.172463 2.837305 4.564233 4.144846 4.097630 4.394093 5.114770 4.051412 5.516891 4.707391 3.392527 4.422300 3.689479 2.948568 3.874748 4.892629 3.254291 3.166769 2.817762 2.068622 4.231503 3.592848 3.527768 3.559674 4.666400 3.843655 2.645808 3.293086 3.986816 3.672753 3.586557 3.747082 2.994438 3.521937 3.817733 3.821264 3.740360 3.290766 2.394492 1.360694 2.498156 3.643104 3.035653 2.214523 1.515481 0.922861 1.519743 2.648108 1.940672 1.387914 1.701733 0.272129 1.074783 1.585748 1.444451 0.894719 0.695636 -0.537853 0.467964 1.119977 1.894225 0.648119 0.919846 -0.540170 -0.053629 1.113670 1.876706 3.362582 2.740133 1.739085 0.896899 1.970060 3.591734 4.399872 4.184753 4.032920 2.219407 0.916666 3.499050 4.253403 3.604151 3.603894 1.964753 1.447981 2.589661 3.273835 4.266524 3.939137 3.688950 2.385695 1.472832 3.478101 3.726134 3.997156 2.817490 0.521395 1.918206 3.778992 4.517109 3.914353 3.372713 3.365273 3.772878 4.593313 5.643577 4.299455 2.980401 4.344941 3.317439 3.118089 4.605106 3.910868 3.038895 2.731486 2.467457 2.299530 1.926190 2.489652 1.825905 1.162847 1.638221 -0.644618 -0.610452 0.663975 1.103098 1.072277 -0.232532 -0.235138 -1.309936 -0.437880 -0.613338 0.143914 -0.603252 -1.586074 -0.652841 -1.278117 -1.255975 -0.076883 -2.014154 -3.555077 -2.268628 -3.147163 -2.346104 -2.112232 -3.077472 -4.221062 -3.628774 -3.755676 -3.057817 -1.802446 -1.827858 -1.848301 -1.740390 -2.653121 -1.967587 -1.208791 0.090789 -1.452855 -1.317440 -1.975509 -1.601855 -0.058931 0.234992 -0.414378 -1.836957 -1.198971 -0.114040 1.095130 1.759584 -0.635792 -0.523127 -0.361533 -0.856685 0.075545 1.167934 0.333241 0.472439 0.394667 -0.751878 -0.980824 1.471502 1.147949 0.223152 1.198822 0.966450 1.071163 0.923373 1.135994 1.040380 0.998436 1.260853 1.584480 0.371001 1.252317 0.968309 0.347497 -0.283792 -1.234660 -0.997598 -0.356979 0.363068 -0.563245 -0.610333 -0.526235 0.721980 0.140439 -0.593638 1.069222 1.613323 1.897510 1.520941 -0.680116 -1.901745 -0.011981 2.710547 1.913920 1.109037 -0.215130 0.102582 1.020782 1.249999 1.423157 1.333473 1.280835 1.175574 0.303367 -0.122976 0.940241 0.506800 1.463853 1.534760 1.146552 1.207361 1.234484 0.702605 1.448993 1.495223 1.829261 0.731192 0.630571 1.203169 1.230928 2.544906 0.916629 1.496205 2.247591 2.395588 3.559003 3.207049 4.054061 2.682022 2.946926 2.341626 1.928898 2.666351 3.704175 2.416455 1.566759 1.014340 0.915249 2.293409 4.049857 2.236853 1.585889 1.539612 2.234376 3.293293 3.600824 3.276646 3.093618 3.701586 4.753245 4.624984 3.862443 3.681834 3.616444 4.302537 3.857867 3.786526 3.369582 2.597242 3.315484 3.084632 4.814073 4.359210 4.679146 4.290415 2.925549 3.092834 4.531420 4.209299 4.034304 3.558196 2.669625 2.226723 2.672050 3.627970 3.294546 3.869258 3.182260 3.224968 3.448775 3.021830 2.328929 1.381666 2.333846 2.613280 2.404090 1.726337 0.356516 0.744387 0.282735 0.900006 1.558483 1.400011 -0.000849 -0.090669 -0.771671 -0.908089 0.150927 0.556693 0.188176 -0.643067 1.056557 0.670050 -0.116026 2.648626 1.637269 1.943372 1.891705 0.508199 -0.106337 0.006530 2.232615 0.474620 -1.648632 -2.531525 -1.539609 -0.387098 -0.436607 -0.176832 -1.769899 -2.392954 -1.719051 0.357730 -0.200253 -1.518993 -0.193594 0.424124 0.526175 -0.139242 -0.310387 -1.180653 0.029926 0.249731 1.072463 0.260774 -0.741566 -0.030102 -0.967029 1.089732 1.073473 1.342035 -0.071661 -0.170280 -0.453924 0.614368 1.066030 -0.753079 0.472185 -0.973478 -1.151535 1.159762 1.709197 -0.142681 -0.073807 -1.422827 -1.897516 -0.442507 0.003204 -2.166496 -3.439058 -2.714840 -3.136334 -2.086134 -2.295176 -2.894673 -1.567458 -0.562818 -0.728571 -0.861898 -2.671096 -0.584824 -1.636330 -0.617101 -1.222046 -2.454145 -2.632515 -3.977511 -3.027364 -2.176953 -1.717686 -2.541012 -3.666722 -4.617414 -2.499926 -0.611364 -1.746344 -3.286650 -3.539502 -2.529995 -1.852041 -0.908825 -1.459087 -1.960792 -0.830740 -1.346985 -1.558431 -1.411844 -0.046581 -0.146996 0.128475 -0.698796 -3.041396 -1.897068 -0.533847 -0.872979 -0.144926 -1.199910 -3.341961 -2.080449 -1.643194 0.245300 -0.144800 -2.059397 -1.020026 -1.529540 -0.559770 -0.045737 0.630817 -0.018201 -0.453760 -0.263437 -0.252110 0.428392 0.801851 1.135658 0.059928 -0.955230 -0.520135 -1.582841 -0.654514 0.939587 -1.540770 -2.048950 -2.723538 -3.011227 -1.859554 -2.253572 -2.817808 -4.078542 -4.388087 -4.382156 -6.120110 -3.710459 -4.201494 -4.210084 -5.408385 -5.753089 -5.396529 -4.706061 -4.120947 -4.747839 -4.400740 -4.855056 -5.977135 -5.160285 -6.076673 -5.815265 -6.315892 -6.093539 -5.077694 -7.234249 -7.892730 -7.480411 -6.955678 -4.913226 -6.204379 -5.983001 -7.172293 -7.664172 -6.538782 -6.399809 -5.876457 -5.827345 -6.067637 -7.760806 -7.279713 -6.609225 -5.742763 -6.040833 -6.139441 -6.996623 -6.588902 -6.466557 -6.519014 -6.448949 -4.765239 -5.282795 -5.054452 -7.851108 -7.767001 -5.597273 -4.880214 -5.561682 -6.465044 -6.630332 -6.139441 -4.079912 -4.031097 -4.114749 -2.915821 -2.592852 -2.280934 -2.760508 -1.316138 -1.367494 -1.398395 -1.412908 -2.320192 -1.457399 -0.603992 0.290566 0.254903 -0.478240 -1.268466 -0.631864 0.610861 2.311481 1.516331 0.099531 -0.827759 -0.568022 0.324528 1.080357 0.448600 -1.990752 -1.782186 -2.199719 -2.175993 -2.466463 -1.759792 -2.305787 -3.107712 -1.394368 -2.455240 -4.522522 -3.026318 -3.296863 -3.604538 -2.776842 -3.411870 -4.849286 -4.144412 -4.754155 -4.554663 -4.070896 -4.209629 -5.073687 -4.458627 -4.347330 -5.005060 -4.871368 -5.014968 -4.264671 -4.180445 -4.180659 -3.956631 -5.194592 -5.370393 -4.708412 -4.779551 -3.667851 -4.579050 -5.966835 -6.251211 -5.251623 -5.101732 -4.007756 -4.834527 -5.831157 -7.540486 -6.759685 -6.163397 -6.131986 -5.627535 -7.035943 -7.785755 -7.623063 -7.099778 -6.277945 -5.964757 -6.679162 -7.644269 -6.578456 -7.202311 -5.496331 -4.952209 -6.689862 -7.030249 -6.832530 -6.394631 -5.266049 -4.978515 -5.152448 -5.292354 -5.057037 -5.793132 -4.432588 -5.363118 -5.094674 -3.654470 -3.913087 -4.838343 -5.343123 -6.802345 -5.770806 -4.490001 -3.816692 -4.054115 -4.630634 -5.890658 -6.439208 -4.740055 -4.184111 -3.577211 -3.938082 -4.171604 -5.884624 -5.101158 -2.898917 -2.775523 -2.546352 -2.225306 -3.764105 -3.284267 -2.926400 -3.119042 -2.038132 -3.671170 -2.771760 -3.103542 -2.754145 -2.818703 -2.835841 -1.461824 -2.006906 -1.778905 -1.238787 -1.161873 -0.923012 -1.850185 -0.081857 -1.325878 -0.891181 -0.436042 -0.247158 0.198362 0.620522 1.404863 0.237386 -0.146933 1.864006 0.764540 -0.361177 -0.250106 -1.032904 -0.800622 0.641135 -0.813691 -2.429492 -2.839802 -1.288156 0.413404 0.338766 -1.036339 -1.605701 -2.040323 -0.874557 0.452640 0.241725 -0.646512 -0.762205 -0.532472 -0.123210 -0.805484 0.470917 -0.675321 -0.782386 -0.631365 -1.064748 -2.281464 -1.864934 -0.964658 -0.976739 -2.036468 -2.305714 -2.620617 -3.121998 -2.216907 -2.373808 -2.336936 -3.415496 -3.128400 -2.409931 -3.245745 -2.572105 -1.882783 -1.956437 -2.977457 -1.944037 -3.000451 -3.262101 -1.551336 -2.730488 -3.494263 -2.506376 -4.220241 -3.612967 -2.973008 -2.048378 -2.193203 -2.745480 -2.906457 -3.309686 -2.606855 -1.089408 -1.051894 -1.728209 -2.074652 -3.439463 -2.830913 -2.502181 -2.402675 -2.045235 -1.278689 -3.251912 -2.836726 -4.243354 -5.363010 -3.052784 -1.853684 -2.066387 -3.294084 -3.499157 -5.179303 -4.492936 -2.342979 -2.223815 -3.207423 -3.436834 -4.057529 -4.771178 -5.366644 -4.377903 -4.301833 -3.747974 -4.274452 -4.653183 -4.805812 -4.943361 -4.946554 -4.408335 -3.000351 -2.556318 -3.125690 -3.126235 -4.242692 -3.857259 -2.910692 -2.862747 -2.637943 -4.151593 -5.151930 -5.080800 -5.570299 -5.054033 -5.654393 -5.794699 -5.821308 -5.631347 -6.097149 -6.953162 -5.873333 -4.825752 -5.069582 -4.238319 -4.836675 -5.481054 -4.703661 -4.020537 -3.778982 -3.652584 -5.161270 -4.476061 -4.816422 -5.057159 -5.051687 -5.435261 -4.796390 -4.106442 -3.704876 -5.053260 -5.360847 -4.561669 -3.538766 -3.273624 -3.156040 -4.140445 -4.293348 -3.457184 -3.355106 -2.517365 -2.284165 -0.071635 -1.876759 -1.442897 -1.503457 -1.296574 -0.060706 0.457128 -0.339273 -0.449356 -0.233955 -0.534138 -0.556393 -0.149102 -0.618804 -0.580678 -0.282469 -0.261655 0.551801 1.476634 0.992959 0.109799 0.685516 0.592836 0.349985 0.968978 1.821475 1.130794 0.879790 0.663753 1.103383 0.850018 1.255596 1.898217 1.155033 1.674198 1.071438 0.934675 0.902943 -0.127644 -0.438431 -0.620167 0.514075 -0.366417 0.116542 -1.435007 -3.412360 -2.762668 -1.866950 -1.778562 -2.199753 -2.992752 -3.266812 -4.590321 -2.662286 -1.231818 -1.599900 -2.684408 -2.034139 -2.342478 -2.513512 -1.406957 -1.975257 -2.602299 -1.993709 -1.286190 -2.541533 -0.769656 -0.329040 -1.286282 -0.343328 0.648575 -0.242213 -0.330351 -0.594066 -1.483878 -0.894970 -0.062495 -0.376860 -1.288419 -1.240115 -0.822512 -0.161045 -0.228061 0.667536 0.602831 0.383150 -0.733401 -0.019615 -0.076614 1.447574 2.286129 1.920726 1.237369 0.107446 0.949295 0.899387 0.857024 1.471834 0.199062 -0.188647 -0.819865 -1.587767 -0.863862 -0.776985 1.662301 0.471223 -0.396653 -1.238899 -1.414055 -0.731843 -1.015066 -1.084412 -2.051754 -2.536959 -2.203030 -1.563735 -2.563837 -3.235279 -1.874433 -2.475818 0.037971 0.277316 -1.772255 -2.957003 -2.955847 -1.190493 -2.088241 -1.661056 -2.067915 -1.486124 -1.909841 -2.557810 -2.042631 -1.996307 0.301812 1.089600 -0.052001 -1.991279 -1.178154 -1.105161 0.270235 -0.456562 -1.717219 -1.598370 -1.914365 -0.979870 -0.780190 -1.044917 -0.005437 -0.526028 -0.041761 -0.756951 -0.834103 -0.471172 0.821196 0.350715 0.738541 -1.083338 -1.331429 -1.764621 -1.085991 0.032720 0.424557 -1.724650 -1.244997 -2.022712 -3.404480 -1.222832 -2.085507 -1.645688 -2.020990 -2.710274 -3.171667 -2.280644 -2.228716 -2.354818 -2.242288 -3.085405 -3.114347 -3.719841 -3.043413 -3.683072 -3.613969 -5.021313 -5.220352 -4.308477 -3.220462 -3.269811 -4.262799 -3.962460 -4.734369 -4.345005 -4.190558 -3.615014 -3.799013 -4.756633 -5.353171 -5.647065 -5.076818 -4.348179 -4.798677 -6.684617 -6.263437 -5.493775 -6.113349 -5.433300 -6.986629 -7.081936 -6.193635 -5.470091 -5.736108 -5.891114 -4.777964 -5.125970 -5.083538 -5.869173 -6.366434 -6.155659 -6.363064 -6.066417 -6.524573 -7.007437 -7.283494 -6.875569 -6.735624 -5.857683 -7.070469 -6.306997 -5.625444 -6.466265 -5.906807 -4.941080 -4.409028 -5.282181 -4.833447 -5.483132 -5.708722 -4.711911 -5.133928 -4.091981 -3.451486 -4.845751 -4.462407 -4.809692 -4.970239 -4.524265 -3.553385 -3.004647 -2.342930 -3.546712 -4.684074 -4.919822 -3.883739 -2.305100 -2.604963 -2.030157 -3.712377 -3.247497 -2.987011 -2.260351 -2.533783 -2.473066 -2.203797 -3.151106 -2.544832 -3.504482 -1.864287 -0.838569 -0.344766 -1.313874 -2.441604 -2.412957 -1.945790 -0.394272 -0.788974 -1.846659 -3.149147 -3.330857 -2.716632 -2.574519 -1.834804 -1.434287 -2.902726 -2.945222 -2.352659 -3.446071 -3.458567 -2.143259 -2.669107 -2.145033 -2.965975 -3.176716 -3.562739 -2.068645 -1.448768 -2.378978 -0.951801 -2.297611 -2.334165 -1.736628 -0.900316 0.095709 -0.189043 -1.355435 -1.553602 -2.252508 -0.290671 -0.670294 -0.292989 -1.482849 -1.484102 -1.648529 -1.643187 -1.308131 -1.622526 -1.785838 -1.603820 -3.377369 -3.017572 -3.299467 -1.767966 -2.226608 -2.259635 -2.935309 -2.518385 -2.634582 -2.019264 -0.531048 -1.124691 -2.395391 -3.052719 -3.325555 -2.494778 -1.783628 -1.115675 -2.875640 -2.914711 -2.859899 -3.125973 -3.259299 -2.166794 -2.088557 -1.404854 -1.982807 -3.390356 -3.442739 -3.948248 -1.650827 -0.157651 -1.414514 -1.789607 -3.328581 -2.417880 -2.359814 -1.035255 -1.671948 -2.458319 -1.298216 -3.426812 -3.981282 -2.847808 -2.530594 -1.902518 -3.759590 -5.305486 -6.364166 -4.133245 -3.725099 -3.224367 -4.891496 -5.973229 -6.637905 -4.526801 -4.492866 -3.813351 -3.813392 -4.660035 -5.133486 -5.562853 -5.289587 -5.135795 -4.296511 -3.963715 -3.230124 -4.460534 -5.326483 -4.975687 -4.227124 -3.255440 -1.763057 -3.230457 -4.467320 -4.640825 -3.993917 -3.964516 -3.928739 -4.255933 -4.142654 -4.314623 -3.765072 -3.679324 -5.635321 -4.184883 -2.916827 -3.848237 -3.497743 -3.665464 -3.950364 -5.630775 -4.084617 -4.016892 -4.337677 -4.902181 -5.482317 -6.047911 -6.393703 -5.878903 -6.166955 -6.383885 -5.746209 -5.613358 -5.363379 -7.072956 -6.315017 -6.848009 -5.115089 -5.397407 -6.164060 -6.012578 -6.782833 -5.937110 -4.956084 -4.735231 -4.829642 -4.462966 -5.354573 -3.464288 -5.277513 -4.348038 -3.407929 -3.815051 -4.521093 -5.723003 -5.664603 -6.465698 -4.699037 -3.326813 -4.198979 -5.246091 -5.520914 -4.150906 -4.714953 -4.335898 -4.618168 -4.794189 -3.966205 -3.825346 -4.418545 -4.906492 -5.613145 -4.673954 -3.321031 -1.800346 -2.034398 -4.323009 -5.212305 -5.020150 -2.951538 -1.558824 -2.741766 -3.597252 -5.002091 -5.249368 -3.236041 -1.769137 -3.439345 -3.238766 -3.591783 -3.900158 -3.121114 -2.317160 -3.056498 -3.083942 -2.531543 -1.905850 -2.080744 -1.529013 -1.444898 -2.796277 -2.320840 -1.425928 -1.200552 -2.908489 -3.156589 -2.365897 -3.134911 -2.440120 -2.175691 -3.994003 -3.558244 -2.794976 -3.439535 -4.164616 -2.531163 -2.944712 -3.866245 -3.443526 -4.380193 -3.847026 -3.623517 -4.373091 -5.061462 -5.299421 -4.815943 -5.514332 -6.798156 -8.289798 -7.640333 -7.206876 -6.626390 -6.833961 -8.101878 -8.200903 -7.521462 -7.396900 -7.341129 -6.325213 -7.046129 -7.509482 -9.505288 -8.652474 -8.543913 -7.766473 -7.021609 -8.299761 -9.332859 -8.569710 -7.130466 -6.562247 -5.551524 -7.391633 -7.580984 -6.351872 -6.181468 -6.038672 -6.463647 -5.947569 -5.617927 -5.101556 -6.236868 -5.442953 -5.666026 -4.119469 -3.373911 -4.455887 -4.906199 -4.422444 -4.589719 -3.909168 -3.478616 -3.804048 -4.331681 -3.714423 -4.005539 -4.086243 -3.333813 -2.825481 -3.948900 -4.350973 -3.218599 -3.370561 -2.328034 -2.534722 -3.116301 -3.032186 -2.478622 -2.199481 -1.760153 -2.916144 -2.932699 -3.351809 -3.594411 -3.501801 -3.137261 -3.328480 -3.664572 -3.717809 -3.823488 -5.283919 -4.923851 -3.498417 -4.551327 -5.154955 -4.768729 -5.839338 -5.223394 -4.397963 -3.900862 -3.512303 -2.751550 -3.408296 -3.533706 -3.709086 -3.759418 -2.688370 -4.273856 -4.979924 -4.330739 -5.394141 -6.006492 -5.226969 -2.647548 -3.869286 -3.418437 -4.197145 -5.455707 -3.454749 -3.067658 -3.776187 -4.696839 -3.854027 -5.955852 -5.216795 -5.386487 -5.305729 -5.413805 -5.911168 -5.954508 -6.810399 -6.675097 -6.201187 -6.134420 -5.498909 -5.659677 -5.829849 -5.089432 -5.608301 -4.309624 -3.209875 -4.902754 -3.029865 -4.025732 -5.108345 -3.609585 -2.523584 -3.555463 -2.672517 -1.999367 -4.010312 -3.068545 -2.424762 -3.088073 -1.710602 -3.103381 -3.233985 -3.262474 -3.865794 -3.417746 -4.615892 -4.001862 -2.426523 -3.553954 -4.191377 -3.814270 -5.402327 -3.568580 -3.296650 -3.691916 -4.038148 -4.245769 -3.671082 -4.310786 -2.793447 -3.415690 -2.945648 -1.986993 -2.501815 -2.734071 -2.886310 -3.484911 -3.589347 -2.735996 -2.823607 -3.146416 -4.580704 -5.326023 -5.410067 -4.630780 -3.848723 -3.635908 -4.673177 -6.257046 -5.569408 -4.710179 -2.782945 -2.764773 -4.760421 -5.827652 -5.302066 -4.527457 -4.824414 -5.554004 -5.414414 -5.248169 -4.185453 -5.005352 -6.114876 -5.340954 -3.225593 -2.853530 -3.798861 -4.072244 -5.560395 -4.721900 -4.515575 -4.431932 -4.200483 -4.379154 -5.181906 -5.553264 -5.919639 -5.136395 -2.638321 -3.293598 -3.941560 -5.390529 -5.126992 -4.741045 -4.272018 -3.426217 -2.949285 -3.590034 -5.622264 -4.807080 -3.386393 -3.753264 -2.307674 -2.055230 -3.953933 -3.460789 -3.082979 -3.452912 -2.569175 -1.945464 -1.522396 -3.054911 -2.645544 -1.602254 -2.292188 -1.780498 -2.068478 -2.187812 -2.117592 -3.100131 -3.097275 -3.576494 -3.975421 -3.430004 -2.507783 -2.163045 -3.419472 -4.522458 -4.844044 -4.160226 -3.114581 -3.624491 -3.614840 -3.593705 -4.785111 -5.657486 -5.986947 -5.916563 -4.779763 -5.059720 -4.961911 -6.018499 -7.515068 -6.401682 -6.466408 -6.405541 -5.673247 -4.687714 -5.324351 -5.242636 -6.057325 -5.645066 -4.606408 -3.392926 -3.863848 -4.810214 -5.290199 -5.946741 -5.718143 -5.113870 -5.188298 -6.108114 -5.347763 -5.862017 -5.342135 -5.259481 -4.711473 -4.323365 -5.150869 -4.594917 -5.159066 -5.377766 -4.850935 -5.034147 -5.611939 -6.510631 -6.761751 -6.750630 -4.624828 -5.031386 -6.175157 -6.024781 -6.539996 -5.453307 -5.327606 -5.285434 -5.158184 -6.192925 -5.808119 -5.643892 -6.087695 -4.754043 -4.234922 -5.655178 -4.880470 -4.987251 -5.635512 -4.780977 -4.647085 -5.612181 -5.858018 -6.667861 -7.971551 -6.449572 -6.065608 -7.726898 -7.354963 -7.399679 -7.125863 -6.730230 -6.587738 -6.243392 -4.578119 -5.480010 -5.617247 -5.075584 -6.560101 -5.151125 -3.992381 -5.468659 -5.427885 -6.507515 -7.338473 -7.242371 -7.096698 -7.664535 -7.839621 -7.619764 -8.421202 -8.440234 -8.855669 -7.508198 -6.502673 -5.510785 -5.961032 -7.013305 -6.943071 -5.791375 -4.375207 -5.935634 -5.128507 -5.718694 -5.222478 -4.367971 -4.915444 -5.171803 -4.319693 -4.138558 -3.649640 -4.078182 -4.028315 -3.212055 -2.180197 -2.926476 -3.193697 -3.525294 -2.726562 -0.633782 -2.036847 -2.584446 -3.679473 -3.988934 -2.310475 -1.145724 -1.939166 -1.905931 -1.513156 -1.565012 -0.596471 0.670614 0.340872 2.042624 0.866119 0.026677 -0.514925 -0.589629 -0.860147 1.201152 0.141183 -1.213816 -1.463869 -1.723169 -1.057041 -0.876300 0.256597 -0.484728 -0.666679 -2.463142 -2.122280 -2.412411 -0.771113 -0.889294 -3.199891 -4.124547 -4.828152 -1.314208 -1.659840 -1.805852 -2.476139 -3.488975 -3.333494 -2.629893 -2.520605 -3.736767 -3.001473 -3.412167 -4.056698 -4.813724 -5.697875 -6.357215 -6.792895 -4.456484 -4.249426 -5.565532 -5.874376 -6.775141 -6.337632 -6.172530 -4.724274 -5.280277 -5.152085 -5.235858 -6.533731 -7.564998 -6.511762 -6.443982 -5.989286 -5.836763 -6.963156 -6.604662 -6.044754 -6.260197 -6.334596 -5.757617 -6.343421 -5.851626 -5.673757 -4.785579 -5.465868 -4.906139 -5.030874 -5.548029 -4.477164 -4.740858 -5.165915 -6.308045 -5.828246 -5.946139 -6.672376 -5.765920 -6.905117 -8.259098 -6.359430 -5.628016 -5.653267 -6.264443 -7.697398 -7.742043 -7.538790 -6.577280 -6.202149 -6.642996 -6.920022 -6.811996 -7.091174 -6.187287 -4.745942 -4.294326 -4.228720 -4.299661 -6.044964 -5.600855 -4.940348 -3.158936 -4.002203 -4.489660 -4.406442 -5.436208 -4.671230 -3.964113 -1.996685 -1.943319 -1.913721 -3.443616 -3.485962 -3.136579 -1.967230 -0.450243 -2.045753 -3.475276 -3.906348 -3.772077 -3.923304 -2.057368 -1.557577 -3.348084 -3.744687 -3.087828 -2.343777 -2.970393 -1.808454 -2.679969 -3.274698 -3.122811 -3.736958 -3.280982 -3.679054 -4.251940 -3.966748 -3.648534 -4.343840 -2.488540 -2.090605 -3.024498 -4.204240 -4.737441 -3.040914 -2.570534 -2.404759 -3.849420 -4.272632 -4.955788 -3.283801 -2.073545 -2.977695 -3.853318 -3.053101 -3.166854 -4.605111 -3.462001 -3.610903 -3.348905 -2.448374 -3.394536 -4.873213 -4.212838 -3.172496 -3.176247 -3.080832 -2.329149 -3.544323 -3.193248 -2.971760 -4.475324 -2.244810 -2.386073 -3.349732 -3.627982 -2.591541 -2.629631 -1.099192 -1.863325 -4.129997 -3.003757 -2.144587 -2.945719 -1.720319 -3.159845 -3.686621 -3.195988 -3.685636 -3.905084 -2.534463 -2.541776 -2.216827 -1.299272 -2.442587 -1.177362 -0.085503 -0.779376 -0.749948 -0.617451 1.045070 1.191076 0.450038 0.259339 -0.986836 -0.571318 0.199662 0.105082 -0.526213 -1.033806 -2.234171 -1.151056 -1.743330 -1.444902 -1.748727 0.396888 1.078681 0.986734 0.694133 0.442644 1.927593 3.640341 3.473875 2.436122 1.954197 