10.08029429896294892899 15.16642650295871064259 10.08029429896294892899 10.08029429896294892899 4.99416209496718899175 4.99416209496718899175 7.53722819696506984855 7.53722819696506984855 10.08029429896294892899 7.53722819696506984855 10.08029429896294892899 10.08029429896294892899 10.08029429896294892899 20.25255870695447057983 17.70949260495659061121 17.70949260495659061121 12.62336040096083067397 15.16642650295871064259 15.16642650295871064259 17.70949260495659061121 22.79562480895235410117 20.25255870695447057983 20.25255870695447057983 22.79562480895235410117 20.25255870695447057983 10.08029429896294892899 12.62336040096083067397 12.62336040096083067397 15.16642650295871064259 12.62336040096083067397 15.16642650295871064259 12.62336040096083067397 12.62336040096083067397 12.62336040096083067397 10.08029429896294892899 4.99416209496718899175 7.53722819696506984855 10.08029429896294892899 10.08029429896294892899 17.70949260495659061121 7.53722819696506984855 10.08029429896294892899 4.99416209496718899175 12.62336040096083067397 15.16642650295871064259 10.08029429896294892899 10.08029429896294892899 10.08029429896294892899 12.62336040096083067397 7.53722819696506984855 12.62336040096083067397 10.08029429896294892899 12.62336040096083067397 10.08029429896294892899 7.53722819696506984855 2.45109599296930902312 4.99416209496718899175 10.08029429896294892899 12.62336040096083067397 10.08029429896294892899 10.08029429896294892899 10.08029429896294892899 7.53722819696506984855 7.53722819696506984855 2.45109599296930902312 15.16642650295871064259 7.53722819696506984855 7.53722819696506984855 4.99416209496718899175 10.08029429896294892899 2.45109599296930902312 2.45109599296930902312 4.99416209496718899175 7.53722819696506984855 12.62336040096083067397 7.53722819696506984855 4.99416209496718899175 4.99416209496718899175 4.99416209496718899175 4.99416209496718899175 4.99416209496718899175 10.08029429896294892899 12.62336040096083067397 10.08029429896294892899 10.08029429896294892899 2.45109599296930902312 4.99416209496718899175 4.99416209496718899175 7.53722819696506984855 10.08029429896294892899 10.08029429896294892899 2.45109599296930902312 4.99416209496718899175 -0.09197010902857183368 -2.63503621102645180230 -0.09197010902857183368 7.53722819696506984855 7.53722819696506984855 7.53722819696506984855 2.45109599296930902312 4.99416209496718899175 -0.09197010902857183368 2.45109599296930902312 -0.09197010902857183368 -0.09197010902857183368 -0.09197010902857183368 2.45109599296930902312 2.45109599296930902312 -0.09197010902857183368 -0.09197010902857183368 -0.09197010902857183368 -0.09197010902857183368 2.45109599296930902312 4.99416209496718899175 2.45109599296930902312 -5.17810231302433265910 2.45109599296930902312 -2.63503621102645180230 -2.63503621102645180230 -0.09197010902857183368 2.45109599296930902312 2.45109599296930902312 -2.63503621102645180230 -0.09197010902857183368 -0.09197010902857183368 -0.09197010902857183368 -2.63503621102645180230 -0.09197010902857183368 -0.09197010902857183368 -0.09197010902857183368 4.99416209496718899175 -0.09197010902857183368 -5.17810231302433265910 -0.09197010902857183368 2.45109599296930902312 2.45109599296930902312 4.99416209496718899175 -2.63503621102645180230 -0.09197010902857183368 -2.63503621102645180230 -0.09197010902857183368 4.99416209496718899175 2.45109599296930902312 -0.09197010902857183368 -2.63503621102645180230 2.45109599296930902312 2.45109599296930902312 2.45109599296930902312 2.45109599296930902312 2.45109599296930902312 -0.09197010902857183368 4.99416209496718899175 -0.09197010902857183368 4.99416209496718899175 -0.09197010902857183368 -0.09197010902857183368 -0.09197010902857183368 -0.09197010902857183368 2.45109599296930902312 4.99416209496718899175 2.45109599296930902312 -0.09197010902857183368 -2.63503621102645180230 2.45109599296930902312 -0.09197010902857183368 -0.09197010902857183368 -0.09197010902857183368 -0.09197010902857183368 2.45109599296930902312 -2.63503621102645180230 -2.63503621102645180230 -0.09197010902857183368 -0.09197010902857183368 2.45109599296930902312 2.45109599296930902312 2.45109599296930902312 -0.09197010902857183368 -2.63503621102645180230 -7.72116841502221351590 -0.09197010902857183368 4.99416209496718899175 -2.63503621102645180230 2.45109599296930902312 -0.09197010902857183368 2.45109599296930902312 -0.09197010902857183368 2.45109599296930902312 2.45109599296930902312 -0.09197010902857183368 7.53722819696506984855 -2.63503621102645180230 -0.09197010902857183368 4.99416209496718899175 -2.63503621102645180230 -5.17810231302433265910 -0.09197010902857183368 7.53722819696506984855 2.45109599296930902312 2.45109599296930902312 2.45109599296930902312 4.99416209496718899175 -0.09197010902857183368 -0.09197010902857183368 -0.09197010902857183368 4.99416209496718899175 2.45109599296930902312 -5.17810231302433265910 2.45109599296930902312 -0.09197010902857183368 2.45109599296930902312 4.99416209496718899175 2.45109599296930902312 2.45109599296930902312 -0.09197010902857183368 -0.09197010902857183368 2.45109599296930902312 -2.63503621102645180230 -0.09197010902857183368 2.45109599296930902312 7.53722819696506984855 4.99416209496718899175 -0.09197010902857183368 -2.63503621102645180230 2.45109599296930902312 -0.09197010902857183368 -2.63503621102645180230 -2.63503621102645180230 7.53722819696506984855 7.53722819696506984855 2.45109599296930902312 -0.09197010902857183368 2.45109599296930902312 4.99416209496718899175 -5.17810231302433265910 -0.09197010902857183368 10.08029429896294892899 2.45109599296930902312 -2.63503621102645180230 2.45109599296930902312 2.45109599296930902312 -0.09197010902857183368 4.99416209496718899175 2.45109599296930902312 2.45109599296930902312 2.45109599296930902312 2.45109599296930902312 -0.09197010902857183368 -2.63503621102645180230 -5.17810231302433265910 4.99416209496718899175 2.45109599296930902312 -0.09197010902857183368 -0.09197010902857183368 -2.63503621102645180230 -0.09197010902857183368 2.45109599296930902312 -2.63503621102645180230 2.45109599296930902312 -0.09197010902857183368 4.99416209496718899175 2.45109599296930902312 -5.17810231302433265910 -0.09197010902857183368 -2.63503621102645180230 2.45109599296930902312 2.45109599296930902312 7.53722819696506984855 4.99416209496718899175 2.45109599296930902312 -2.63503621102645180230 2.45109599296930902312 2.45109599296930902312 7.53722819696506984855 2.45109599296930902312 4.99416209496718899175 2.45109599296930902312 -0.09197010902857183368 -0.09197010902857183368 -0.09197010902857183368 2.45109599296930902312 4.99416209496718899175 4.99416209496718899175 4.99416209496718899175 -0.09197010902857183368 -2.63503621102645180230 -2.63503621102645180230 4.99416209496718899175 2.45109599296930902312 2.45109599296930902312 2.45109599296930902312 -0.09197010902857183368 2.45109599296930902312 2.45109599296930902312 2.45109599296930902312 2.45109599296930902312 2.45109599296930902312 2.45109599296930902312 4.99416209496718899175 2.45109599296930902312 -2.63503621102645180230 -2.63503621102645180230 2.45109599296930902312 -0.09197010902857183368 -0.09197010902857183368 2.45109599296930902312 -5.17810231302433265910 -2.63503621102645180230 -0.09197010902857183368 -2.63503621102645180230 -0.09197010902857183368 -2.63503621102645180230 -2.63503621102645180230 -0.09197010902857183368 -2.63503621102645180230 -2.63503621102645180230 -2.63503621102645180230 -2.63503621102645180230 -5.17810231302433265910 -2.63503621102645180230 -0.09197010902857183368 -2.63503621102645180230 -2.63503621102645180230 -2.63503621102645180230 -2.63503621102645180230 -5.17810231302433265910 -2.63503621102645180230 -0.09197010902857183368 -2.63503621102645180230 -2.63503621102645180230 -5.17810231302433265910 -5.17810231302433265910 -5.17810231302433265910 -0.09197010902857183368 -2.63503621102645180230 -7.72116841502221351590 2.45109599296930902312 -0.09197010902857183368 -0.09197010902857183368 -0.09197010902857183368 -2.63503621102645180230 -0.09197010902857183368 -5.17810231302433265910 -2.63503621102645180230 -5.17810231302433265910 -2.63503621102645180230 -0.09197010902857183368 2.45109599296930902312 -0.09197010902857183368 -0.09197010902857183368 -2.63503621102645180230 -5.17810231302433265910 -2.63503621102645180230 -0.09197010902857183368 -5.17810231302433265910 -5.17810231302433265910 -0.09197010902857183368 -2.63503621102645180230 -5.17810231302433265910 -0.09197010902857183368 2.45109599296930902312 -2.63503621102645180230 2.45109599296930902312 -0.09197010902857183368 -2.63503621102645180230 -2.63503621102645180230 -2.63503621102645180230 -0.09197010902857183368 4.99416209496718899175 2.45109599296930902312 -0.09197010902857183368 -0.09197010902857183368 2.45109599296930902312 -2.63503621102645180230 -2.63503621102645180230 -7.72116841502221351590 -5.17810231302433265910 2.45109599296930902312 -2.63503621102645180230 -0.09197010902857183368 -2.63503621102645180230 -0.09197010902857183368 -0.09197010902857183368 -2.63503621102645180230 -0.09197010902857183368 -0.09197010902857183368 -0.09197010902857183368 -7.72116841502221351590 -2.63503621102645180230 -2.63503621102645180230 -7.72116841502221351590 -5.17810231302433265910 -5.17810231302433265910 4.99416209496718899175 -0.09197010902857183368 2.45109599296930902312 -2.63503621102645180230 -2.63503621102645180230 -5.17810231302433265910 -5.17810231302433265910 -5.17810231302433265910 -2.63503621102645180230 -5.17810231302433265910 -2.63503621102645180230 -0.09197010902857183368 -5.17810231302433265910 -5.17810231302433265910 -0.09197010902857183368 -2.63503621102645180230 -0.09197010902857183368 -0.09197010902857183368 2.45109599296930902312 2.45109599296930902312 2.45109599296930902312 -0.09197010902857183368 -0.09197010902857183368 -0.09197010902857183368 -2.63503621102645180230 2.45109599296930902312 2.45109599296930902312 -2.63503621102645180230 -2.63503621102645180230 -0.09197010902857183368 2.45109599296930902312 -2.63503621102645180230 -0.09197010902857183368 -0.09197010902857183368 4.99416209496718899175 -5.17810231302433265910 -0.09197010902857183368 -0.09197010902857183368 2.45109599296930902312 -0.09197010902857183368 4.99416209496718899175 7.53722819696506984855 4.99416209496718899175 -5.17810231302433265910 -0.09197010902857183368 -0.09197010902857183368 4.99416209496718899175 7.53722819696506984855 4.99416209496718899175 4.99416209496718899175 4.99416209496718899175 2.45109599296930902312 -5.17810231302433265910 -0.09197010902857183368 -0.09197010902857183368 -0.09197010902857183368 -0.09197010902857183368 2.45109599296930902312 4.99416209496718899175 -0.09197010902857183368 -2.63503621102645180230 -2.63503621102645180230 4.99416209496718899175 2.45109599296930902312 -0.09197010902857183368 2.45109599296930902312 4.99416209496718899175 4.99416209496718899175 -0.09197010902857183368 -0.09197010902857183368 4.99416209496718899175 -0.09197010902857183368 7.53722819696506984855 10.08029429896294892899 2.45109599296930902312 2.45109599296930902312 -0.09197010902857183368 -0.09197010902857183368 7.53722819696506984855 4.99416209496718899175 4.99416209496718899175 7.53722819696506984855 7.53722819696506984855 4.99416209496718899175 -0.09197010902857183368 2.45109599296930902312 4.99416209496718899175 4.99416209496718899175 7.53722819696506984855 7.53722819696506984855 4.99416209496718899175 2.45109599296930902312 -0.09197010902857183368 7.53722819696506984855 7.53722819696506984855 7.53722819696506984855 10.08029429896294892899 4.99416209496718899175 7.53722819696506984855 -2.63503621102645180230 4.99416209496718899175 7.53722819696506984855 10.08029429896294892899 10.08029429896294892899 12.62336040096083067397 4.99416209496718899175 10.08029429896294892899 2.45109599296930902312 2.45109599296930902312 10.08029429896294892899 12.62336040096083067397 7.53722819696506984855 10.08029429896294892899 7.53722819696506984855 7.53722819696506984855 2.45109599296930902312 7.53722819696506984855 2.45109599296930902312 10.08029429896294892899 10.08029429896294892899 4.99416209496718899175 12.62336040096083067397 4.99416209496718899175 4.99416209496718899175 10.08029429896294892899 4.99416209496718899175 10.08029429896294892899 10.08029429896294892899 7.53722819696506984855 7.53722819696506984855 12.62336040096083067397 7.53722819696506984855 7.53722819696506984855 10.08029429896294892899 7.53722819696506984855 7.53722819696506984855 10.08029429896294892899 10.08029429896294892899 10.08029429896294892899 10.08029429896294892899 12.62336040096083067397 10.08029429896294892899 7.53722819696506984855 7.53722819696506984855 7.53722819696506984855 12.62336040096083067397 7.53722819696506984855 7.53722819696506984855 4.99416209496718899175 4.99416209496718899175 4.99416209496718899175 10.08029429896294892899 2.45109599296930902312 10.08029429896294892899 7.53722819696506984855 7.53722819696506984855 2.45109599296930902312 4.99416209496718899175 4.99416209496718899175 4.99416209496718899175 4.99416209496718899175 2.45109599296930902312 2.45109599296930902312 4.99416209496718899175 7.53722819696506984855 7.53722819696506984855 10.08029429896294892899 2.45109599296930902312 7.53722819696506984855 2.45109599296930902312 4.99416209496718899175 -0.09197010902857183368 -0.09197010902857183368 2.45109599296930902312 2.45109599296930902312 7.53722819696506984855 -0.09197010902857183368 -2.63503621102645180230 4.99416209496718899175 2.45109599296930902312 -0.09197010902857183368 -0.09197010902857183368 2.45109599296930902312 -0.09197010902857183368 2.45109599296930902312 -2.63503621102645180230 -2.63503621102645180230 -2.63503621102645180230 -2.63503621102645180230 2.45109599296930902312 -0.09197010902857183368 4.99416209496718899175 2.45109599296930902312 -0.09197010902857183368 2.45109599296930902312 -0.09197010902857183368 -0.09197010902857183368 -2.63503621102645180230 -2.63503621102645180230 4.99416209496718899175 4.99416209496718899175 4.99416209496718899175 -5.17810231302433265910 -0.09197010902857183368 -0.09197010902857183368 -2.63503621102645180230 -5.17810231302433265910 -2.63503621102645180230 -0.09197010902857183368 2.45109599296930902312 -5.17810231302433265910 -0.09197010902857183368 -2.63503621102645180230 -0.09197010902857183368 2.45109599296930902312 2.45109599296930902312 -0.09197010902857183368 -0.09197010902857183368 -0.09197010902857183368 -2.63503621102645180230 10.08029429896294892899 4.99416209496718899175 4.99416209496718899175 2.45109599296930902312 4.99416209496718899175 2.45109599296930902312 2.45109599296930902312 2.45109599296930902312 4.99416209496718899175 -0.09197010902857183368 4.99416209496718899175 2.45109599296930902312 2.45109599296930902312 -0.09197010902857183368 2.45109599296930902312 4.99416209496718899175 4.99416209496718899175 4.99416209496718899175 -0.09197010902857183368 2.45109599296930902312 2.45109599296930902312 7.53722819696506984855 2.45109599296930902312 7.53722819696506984855 4.99416209496718899175 4.99416209496718899175 -0.09197010902857183368 -0.09197010902857183368 -0.09197010902857183368 2.45109599296930902312 4.99416209496718899175 -0.09197010902857183368 7.53722819696506984855 4.99416209496718899175 -0.09197010902857183368 -0.09197010902857183368 -2.63503621102645180230 2.45109599296930902312 2.45109599296930902312 2.45109599296930902312 2.45109599296930902312 -0.09197010902857183368 4.99416209496718899175 -0.09197010902857183368 4.99416209496718899175 2.45109599296930902312 -0.09197010902857183368 4.99416209496718899175 2.45109599296930902312 2.45109599296930902312 7.53722819696506984855 2.45109599296930902312 2.45109599296930902312 4.99416209496718899175 4.99416209496718899175 -0.09197010902857183368 4.99416209496718899175 -0.09197010902857183368 4.99416209496718899175 7.53722819696506984855 4.99416209496718899175 -5.17810231302433265910 -5.17810231302433265910 4.99416209496718899175 4.99416209496718899175 4.99416209496718899175 2.45109599296930902312 2.45109599296930902312 -0.09197010902857183368 4.99416209496718899175 2.45109599296930902312 -2.63503621102645180230 4.99416209496718899175 -0.09197010902857183368 -0.09197010902857183368 -0.09197010902857183368 -0.09197010902857183368 4.99416209496718899175 2.45109599296930902312 -0.09197010902857183368 -0.09197010902857183368 -2.63503621102645180230 2.45109599296930902312 -0.09197010902857183368 2.45109599296930902312 2.45109599296930902312 -0.09197010902857183368 -5.17810231302433265910 -5.17810231302433265910 -2.63503621102645180230 -0.09197010902857183368 -5.17810231302433265910 -5.17810231302433265910 -2.63503621102645180230 -5.17810231302433265910 -5.17810231302433265910 -7.72116841502221351590 -2.63503621102645180230 2.45109599296930902312 -2.63503621102645180230 2.45109599296930902312 -5.17810231302433265910 -7.72116841502221351590 -5.17810231302433265910 -5.17810231302433265910 -2.63503621102645180230 -0.09197010902857183368 -2.63503621102645180230 -5.17810231302433265910 -7.72116841502221351590 -7.72116841502221351590 -5.17810231302433265910 -0.09197010902857183368 -5.17810231302433265910 -5.17810231302433265910 -7.72116841502221351590 -0.09197010902857183368 -7.72116841502221351590 -7.72116841502221351590 -7.72116841502221351590 -7.72116841502221351590 -7.72116841502221351590 -2.63503621102645180230 -5.17810231302433265910 -5.17810231302433265910 -5.17810231302433265910 -5.17810231302433265910 -7.72116841502221351590 -2.63503621102645180230 -0.09197010902857183368 -2.63503621102645180230 -2.63503621102645180230 -5.17810231302433265910 -7.72116841502221351590 -5.17810231302433265910 -2.63503621102645180230 -7.72116841502221351590 -0.09197010902857183368 -7.72116841502221351590 -7.72116841502221351590 -2.63503621102645180230 -5.17810231302433265910 -7.72116841502221351590 -2.63503621102645180230 -2.63503621102645180230 -5.17810231302433265910 -2.63503621102645180230 -5.17810231302433265910 -2.63503621102645180230 -5.17810231302433265910 -0.09197010902857183368 -2.63503621102645180230 -0.09197010902857183368 -0.09197010902857183368 -5.17810231302433265910 -5.17810231302433265910 -2.63503621102645180230 -5.17810231302433265910 -5.17810231302433265910 -2.63503621102645180230 -0.09197010902857183368 -0.09197010902857183368 -2.63503621102645180230 2.45109599296930902312 -0.09197010902857183368 2.45109599296930902312 -2.63503621102645180230 -0.09197010902857183368 -0.09197010902857183368 -0.09197010902857183368 -0.09197010902857183368 2.45109599296930902312 4.99416209496718899175 2.45109599296930902312 -0.09197010902857183368 2.45109599296930902312 -5.17810231302433265910 2.45109599296930902312 -0.09197010902857183368 4.99416209496718899175 -2.63503621102645180230 2.45109599296930902312 4.99416209496718899175 2.45109599296930902312 4.99416209496718899175 2.45109599296930902312 -2.63503621102645180230 -0.09197010902857183368 2.45109599296930902312 -2.63503621102645180230 2.45109599296930902312 2.45109599296930902312 4.99416209496718899175 -0.09197010902857183368 -0.09197010902857183368 -2.63503621102645180230 -0.09197010902857183368 -2.63503621102645180230 2.45109599296930902312 -0.09197010902857183368 -0.09197010902857183368 -2.63503621102645180230 -0.09197010902857183368 -0.09197010902857183368 2.45109599296930902312 -2.63503621102645180230 2.45109599296930902312 -5.17810231302433265910 -2.63503621102645180230 -5.17810231302433265910 2.45109599296930902312 2.45109599296930902312 -0.09197010902857183368 -0.09197010902857183368 -2.63503621102645180230 -2.63503621102645180230 -2.63503621102645180230 -5.17810231302433265910 -2.63503621102645180230 2.45109599296930902312 -5.17810231302433265910 -2.63503621102645180230 -0.09197010902857183368 -2.63503621102645180230 -7.72116841502221351590 -5.17810231302433265910 -5.17810231302433265910 2.45109599296930902312 -0.09197010902857183368 4.99416209496718899175 -2.63503621102645180230 -2.63503621102645180230 -2.63503621102645180230 -5.17810231302433265910 -0.09197010902857183368 -0.09197010902857183368 -0.09197010902857183368 -0.09197010902857183368 -0.09197010902857183368 -0.09197010902857183368 -5.17810231302433265910 -0.09197010902857183368 -0.09197010902857183368 -2.63503621102645180230 -2.63503621102645180230 -5.17810231302433265910 -5.17810231302433265910 -7.72116841502221351590 -0.09197010902857183368 -0.09197010902857183368 2.45109599296930902312 2.45109599296930902312 -0.09197010902857183368 -5.17810231302433265910 -5.17810231302433265910 -0.09197010902857183368 2.45109599296930902312 4.99416209496718899175 7.53722819696506984855 -0.09197010902857183368 2.45109599296930902312 -0.09197010902857183368 -0.09197010902857183368 -2.63503621102645180230 -2.63503621102645180230 2.45109599296930902312 -0.09197010902857183368 4.99416209496718899175 -0.09197010902857183368 2.45109599296930902312 -2.63503621102645180230 2.45109599296930902312 -0.09197010902857183368 2.45109599296930902312 2.45109599296930902312 2.45109599296930902312 -0.09197010902857183368 -0.09197010902857183368 -0.09197010902857183368 -5.17810231302433265910 -2.63503621102645180230 -0.09197010902857183368 2.45109599296930902312 -0.09197010902857183368 -2.63503621102645180230 -0.09197010902857183368 -0.09197010902857183368 2.45109599296930902312 2.45109599296930902312 4.99416209496718899175 2.45109599296930902312 4.99416209496718899175 4.99416209496718899175 2.45109599296930902312 2.45109599296930902312 2.45109599296930902312 -2.63503621102645180230 2.45109599296930902312 4.99416209496718899175 4.99416209496718899175 2.45109599296930902312 2.45109599296930902312 2.45109599296930902312 10.08029429896294892899 4.99416209496718899175 10.08029429896294892899 4.99416209496718899175 2.45109599296930902312 2.45109599296930902312 -0.09197010902857183368 -0.09197010902857183368 7.53722819696506984855 7.53722819696506984855 2.45109599296930902312 2.45109599296930902312 2.45109599296930902312 2.45109599296930902312 4.99416209496718899175 2.45109599296930902312 -0.09197010902857183368 7.53722819696506984855 7.53722819696506984855 -0.09197010902857183368 2.45109599296930902312 4.99416209496718899175 10.08029429896294892899 7.53722819696506984855 7.53722819696506984855 4.99416209496718899175 10.08029429896294892899 4.99416209496718899175 2.45109599296930902312 2.45109599296930902312 2.45109599296930902312 4.99416209496718899175 7.53722819696506984855 4.99416209496718899175 4.99416209496718899175 -2.63503621102645180230 4.99416209496718899175 2.45109599296930902312 10.08029429896294892899 10.08029429896294892899 7.53722819696506984855 7.53722819696506984855 2.45109599296930902312 -0.09197010902857183368 2.45109599296930902312 2.45109599296930902312 4.99416209496718899175 4.99416209496718899175 2.45109599296930902312 -0.09197010902857183368 2.45109599296930902312 4.99416209496718899175 2.45109599296930902312 2.45109599296930902312 7.53722819696506984855 2.45109599296930902312 4.99416209496718899175 -0.09197010902857183368 -2.63503621102645180230 2.45109599296930902312 2.45109599296930902312 -2.63503621102645180230 2.45109599296930902312 4.99416209496718899175 -0.09197010902857183368 -5.17810231302433265910 -5.17810231302433265910 -0.09197010902857183368 -2.63503621102645180230 2.45109599296930902312 -2.63503621102645180230 -0.09197010902857183368 -2.63503621102645180230 4.99416209496718899175 -0.09197010902857183368 -0.09197010902857183368 4.99416209496718899175 2.45109599296930902312 -0.09197010902857183368 4.99416209496718899175 2.45109599296930902312 -0.09197010902857183368 2.45109599296930902312 2.45109599296930902312 2.45109599296930902312 2.45109599296930902312 -0.09197010902857183368 -5.17810231302433265910 4.99416209496718899175 7.53722819696506984855 2.45109599296930902312 4.99416209496718899175 2.45109599296930902312 -0.09197010902857183368 2.45109599296930902312 4.99416209496718899175 2.45109599296930902312 2.45109599296930902312 2.45109599296930902312 7.53722819696506984855 4.99416209496718899175 4.99416209496718899175 4.99416209496718899175 7.53722819696506984855 2.45109599296930902312 2.45109599296930902312 2.45109599296930902312 7.53722819696506984855 4.99416209496718899175 7.53722819696506984855 4.99416209496718899175 2.45109599296930902312 2.45109599296930902312 7.53722819696506984855 -0.09197010902857183368 -0.09197010902857183368 10.08029429896294892899 4.99416209496718899175 2.45109599296930902312 -0.09197010902857183368 -2.63503621102645180230 -0.09197010902857183368 -0.09197010902857183368 -0.09197010902857183368 -0.09197010902857183368 7.53722819696506984855 2.45109599296930902312 2.45109599296930902312 -2.63503621102645180230 2.45109599296930902312 -5.17810231302433265910 2.45109599296930902312 -0.09197010902857183368 2.45109599296930902312 -0.09197010902857183368 -0.09197010902857183368 -5.17810231302433265910 -5.17810231302433265910 -2.63503621102645180230 -0.09197010902857183368 -0.09197010902857183368 2.45109599296930902312 2.45109599296930902312 -2.63503621102645180230 -2.63503621102645180230 -0.09197010902857183368 -5.17810231302433265910 -0.09197010902857183368 -2.63503621102645180230 -5.17810231302433265910 -0.09197010902857183368 -0.09197010902857183368 -2.63503621102645180230 -5.17810231302433265910 -0.09197010902857183368 -2.63503621102645180230 -0.09197010902857183368 -2.63503621102645180230 -7.72116841502221351590 -2.63503621102645180230 -0.09197010902857183368 -0.09197010902857183368 -0.09197010902857183368 -0.09197010902857183368 -0.09197010902857183368 -5.17810231302433265910 -0.09197010902857183368 -0.09197010902857183368 -0.09197010902857183368 -2.63503621102645180230 -5.17810231302433265910 -5.17810231302433265910 -2.63503621102645180230 -0.09197010902857183368 -2.63503621102645180230 -0.09197010902857183368 4.99416209496718899175 -7.72116841502221351590 -5.17810231302433265910 -2.63503621102645180230 -2.63503621102645180230 2.45109599296930902312 -0.09197010902857183368 -2.63503621102645180230 -5.17810231302433265910 -5.17810231302433265910 2.45109599296930902312 2.45109599296930902312 -0.09197010902857183368 -0.09197010902857183368 -0.09197010902857183368 2.45109599296930902312 -0.09197010902857183368 4.99416209496718899175 2.45109599296930902312 7.53722819696506984855 2.45109599296930902312 -0.09197010902857183368 2.45109599296930902312 -0.09197010902857183368 2.45109599296930902312 7.53722819696506984855 4.99416209496718899175 -0.09197010902857183368 2.45109599296930902312 2.45109599296930902312 -0.09197010902857183368 2.45109599296930902312 4.99416209496718899175 4.99416209496718899175 12.62336040096083067397 4.99416209496718899175 7.53722819696506984855 2.45109599296930902312 -0.09197010902857183368 -0.09197010902857183368 10.08029429896294892899 7.53722819696506984855 4.99416209496718899175 4.99416209496718899175 7.53722819696506984855 2.45109599296930902312 4.99416209496718899175 2.45109599296930902312 10.08029429896294892899 4.99416209496718899175 4.99416209496718899175 2.45109599296930902312 2.45109599296930902312 -2.63503621102645180230 2.45109599296930902312 4.99416209496718899175 2.45109599296930902312 4.99416209496718899175 2.45109599296930902312 4.99416209496718899175 -0.09197010902857183368 -5.17810231302433265910 -5.17810231302433265910 2.45109599296930902312 2.45109599296930902312 -2.63503621102645180230 -0.09197010902857183368 2.45109599296930902312 -5.17810231302433265910 -7.72116841502221351590 -2.63503621102645180230 -2.63503621102645180230 2.45109599296930902312 2.45109599296930902312 -2.63503621102645180230 -0.09197010902857183368 -0.09197010902857183368 -0.09197010902857183368 -0.09197010902857183368 2.45109599296930902312 -2.63503621102645180230 -0.09197010902857183368 -2.63503621102645180230 -2.63503621102645180230 -2.63503621102645180230 -5.17810231302433265910 -0.09197010902857183368 -2.63503621102645180230 -2.63503621102645180230 2.45109599296930902312 -2.63503621102645180230 -5.17810231302433265910 -7.72116841502221351590 -5.17810231302433265910 -5.17810231302433265910 -2.63503621102645180230 -0.09197010902857183368 -2.63503621102645180230 -5.17810231302433265910 -2.63503621102645180230 -5.17810231302433265910 -5.17810231302433265910 -7.72116841502221351590 -0.09197010902857183368 -0.09197010902857183368 -0.09197010902857183368 -0.09197010902857183368 -0.09197010902857183368 -5.17810231302433265910 -7.72116841502221351590 -5.17810231302433265910 -2.63503621102645180230 -0.09197010902857183368 -0.09197010902857183368 -2.63503621102645180230 -5.17810231302433265910 -0.09197010902857183368 -0.09197010902857183368 -0.09197010902857183368 -2.63503621102645180230 -0.09197010902857183368 -2.63503621102645180230 -2.63503621102645180230 -5.17810231302433265910 -2.63503621102645180230 -2.63503621102645180230 -0.09197010902857183368 -2.63503621102645180230 -2.63503621102645180230 2.45109599296930902312 2.45109599296930902312 2.45109599296930902312 -2.63503621102645180230 -0.09197010902857183368 2.45109599296930902312 -0.09197010902857183368 -0.09197010902857183368 2.45109599296930902312 2.45109599296930902312 2.45109599296930902312 -0.09197010902857183368 2.45109599296930902312 -5.17810231302433265910 2.45109599296930902312 4.99416209496718899175 7.53722819696506984855 7.53722819696506984855 -0.09197010902857183368 4.99416209496718899175 4.99416209496718899175 4.99416209496718899175 2.45109599296930902312 2.45109599296930902312 4.99416209496718899175 2.45109599296930902312 2.45109599296930902312 -0.09197010902857183368 -0.09197010902857183368 -5.17810231302433265910 2.45109599296930902312 2.45109599296930902312 2.45109599296930902312 2.45109599296930902312 2.45109599296930902312 -2.63503621102645180230 2.45109599296930902312 7.53722819696506984855 2.45109599296930902312 2.45109599296930902312 4.99416209496718899175 -0.09197010902857183368 2.45109599296930902312 -0.09197010902857183368 -0.09197010902857183368 -7.72116841502221351590 -0.09197010902857183368 -0.09197010902857183368 -0.09197010902857183368 -0.09197010902857183368 -2.63503621102645180230 -0.09197010902857183368 -0.09197010902857183368 -5.17810231302433265910 -5.17810231302433265910 -5.17810231302433265910 2.45109599296930902312 -0.09197010902857183368 2.45109599296930902312 -2.63503621102645180230 -5.17810231302433265910 2.45109599296930902312 -2.63503621102645180230 -0.09197010902857183368 -0.09197010902857183368 -2.63503621102645180230 -2.63503621102645180230 -2.63503621102645180230 -7.72116841502221351590 -2.63503621102645180230 -0.09197010902857183368 -0.09197010902857183368 -2.63503621102645180230 -5.17810231302433265910 -2.63503621102645180230 -5.17810231302433265910 -2.63503621102645180230 -2.63503621102645180230 -0.09197010902857183368 -2.63503621102645180230 -2.63503621102645180230 -5.17810231302433265910 -2.63503621102645180230 -5.17810231302433265910 2.45109599296930902312 -2.63503621102645180230 2.45109599296930902312 -2.63503621102645180230 -0.09197010902857183368 -2.63503621102645180230 -2.63503621102645180230 -2.63503621102645180230 -2.63503621102645180230 -2.63503621102645180230 -2.63503621102645180230 -2.63503621102645180230 -10.26423451702009437270 -5.17810231302433265910 -2.63503621102645180230 -5.17810231302433265910 -2.63503621102645180230 -0.09197010902857183368 -0.09197010902857183368 -0.09197010902857183368 -2.63503621102645180230 -0.09197010902857183368 -5.17810231302433265910 -2.63503621102645180230 -0.09197010902857183368 -2.63503621102645180230 -2.63503621102645180230 -2.63503621102645180230 -2.63503621102645180230 -0.09197010902857183368 -5.17810231302433265910 -2.63503621102645180230 -5.17810231302433265910 -2.63503621102645180230 -10.26423451702009437270 -5.17810231302433265910 -10.26423451702009437270 -2.63503621102645180230 -2.63503621102645180230 -5.17810231302433265910 -5.17810231302433265910 -5.17810231302433265910 -10.26423451702009437270 -5.17810231302433265910 -10.26423451702009437270 -10.26423451702009437270 -7.72116841502221351590 -7.72116841502221351590 -5.17810231302433265910 -10.26423451702009437270 -10.26423451702009437270 -7.72116841502221351590 -12.80730061901797611768 -5.17810231302433265910 -7.72116841502221351590 -7.72116841502221351590 -2.63503621102645180230 -10.26423451702009437270 -5.17810231302433265910 -12.80730061901797611768 -7.72116841502221351590 -7.72116841502221351590 -5.17810231302433265910 -5.17810231302433265910 -7.72116841502221351590 -5.17810231302433265910 -5.17810231302433265910 -2.63503621102645180230 -10.26423451702009437270 -7.72116841502221351590 -2.63503621102645180230 -5.17810231302433265910 -5.17810231302433265910 -5.17810231302433265910 -5.17810231302433265910 -2.63503621102645180230 -5.17810231302433265910 -0.09197010902857183368 -0.09197010902857183368 -2.63503621102645180230 -0.09197010902857183368 -0.09197010902857183368 -7.72116841502221351590 -0.09197010902857183368 -2.63503621102645180230 -0.09197010902857183368 -2.63503621102645180230 -0.09197010902857183368 -0.09197010902857183368 -0.09197010902857183368 -2.63503621102645180230 -2.63503621102645180230 2.45109599296930902312 2.45109599296930902312 -0.09197010902857183368 -0.09197010902857183368 -0.09197010902857183368 -2.63503621102645180230 2.45109599296930902312 -0.09197010902857183368 4.99416209496718899175 -2.63503621102645180230 -2.63503621102645180230 -2.63503621102645180230 -2.63503621102645180230 -5.17810231302433265910 -0.09197010902857183368 -0.09197010902857183368 2.45109599296930902312 -0.09197010902857183368 -0.09197010902857183368 -2.63503621102645180230 -0.09197010902857183368 -2.63503621102645180230 -5.17810231302433265910 -0.09197010902857183368 -0.09197010902857183368 -2.63503621102645180230 -0.09197010902857183368 -2.63503621102645180230 -2.63503621102645180230 -5.17810231302433265910 2.45109599296930902312 -2.63503621102645180230 -0.09197010902857183368 -0.09197010902857183368 2.45109599296930902312 -5.17810231302433265910 -0.09197010902857183368 -0.09197010902857183368 2.45109599296930902312 2.45109599296930902312 4.99416209496718899175 -0.09197010902857183368 4.99416209496718899175 -0.09197010902857183368 2.45109599296930902312 -0.09197010902857183368 -0.09197010902857183368 -0.09197010902857183368 2.45109599296930902312 -2.63503621102645180230 -0.09197010902857183368 -0.09197010902857183368 -5.17810231302433265910 -0.09197010902857183368 2.45109599296930902312 -0.09197010902857183368 4.99416209496718899175 -2.63503621102645180230 2.45109599296930902312 -2.63503621102645180230 -5.17810231302433265910 -0.09197010902857183368 2.45109599296930902312 4.99416209496718899175 4.99416209496718899175 4.99416209496718899175 -0.09197010902857183368 -2.63503621102645180230 -2.63503621102645180230 4.99416209496718899175 2.45109599296930902312 4.99416209496718899175 -0.09197010902857183368 -2.63503621102645180230 -0.09197010902857183368 -2.63503621102645180230 -0.09197010902857183368 -0.09197010902857183368 4.99416209496718899175 -0.09197010902857183368 -0.09197010902857183368 2.45109599296930902312 -2.63503621102645180230 -0.09197010902857183368 2.45109599296930902312 2.45109599296930902312 4.99416209496718899175 2.45109599296930902312 2.45109599296930902312 -0.09197010902857183368 -0.09197010902857183368 -2.63503621102645180230 4.99416209496718899175 2.45109599296930902312 2.45109599296930902312 2.45109599296930902312 2.45109599296930902312 -2.63503621102645180230 -2.63503621102645180230 -2.63503621102645180230 4.99416209496718899175 2.45109599296930902312 -0.09197010902857183368 2.45109599296930902312 -2.63503621102645180230 -2.63503621102645180230 -0.09197010902857183368 2.45109599296930902312 4.99416209496718899175 4.99416209496718899175 4.99416209496718899175 2.45109599296930902312 -2.63503621102645180230 2.45109599296930902312 2.45109599296930902312 4.99416209496718899175 2.45109599296930902312 -0.09197010902857183368 -2.63503621102645180230 -2.63503621102645180230 -2.63503621102645180230 -2.63503621102645180230 -0.09197010902857183368 -0.09197010902857183368 -0.09197010902857183368 -0.09197010902857183368 -0.09197010902857183368 2.45109599296930902312 2.45109599296930902312 2.45109599296930902312 2.45109599296930902312 2.45109599296930902312 -2.63503621102645180230 2.45109599296930902312 2.45109599296930902312 2.45109599296930902312 -0.09197010902857183368 2.45109599296930902312 4.99416209496718899175 2.45109599296930902312 -0.09197010902857183368 2.45109599296930902312 -0.09197010902857183368 7.53722819696506984855 2.45109599296930902312 4.99416209496718899175 2.45109599296930902312 -0.09197010902857183368 2.45109599296930902312 4.99416209496718899175 4.99416209496718899175 2.45109599296930902312 4.99416209496718899175 -0.09197010902857183368 4.99416209496718899175 -2.63503621102645180230 7.53722819696506984855 4.99416209496718899175 2.45109599296930902312 -0.09197010902857183368 4.99416209496718899175 -0.09197010902857183368 -2.63503621102645180230 -2.63503621102645180230 -0.09197010902857183368 2.45109599296930902312 2.45109599296930902312 2.45109599296930902312 -2.63503621102645180230 -2.63503621102645180230 2.45109599296930902312 2.45109599296930902312 2.45109599296930902312 2.45109599296930902312 2.45109599296930902312 -2.63503621102645180230 -2.63503621102645180230 -2.63503621102645180230 2.45109599296930902312 -0.09197010902857183368 -0.09197010902857183368 -0.09197010902857183368 -2.63503621102645180230 -2.63503621102645180230 2.45109599296930902312 4.99416209496718899175 -2.63503621102645180230 -0.09197010902857183368 2.45109599296930902312 -0.09197010902857183368 -2.63503621102645180230 -0.09197010902857183368 -5.17810231302433265910 -0.09197010902857183368 2.45109599296930902312 -2.63503621102645180230 -2.63503621102645180230 -2.63503621102645180230 2.45109599296930902312 2.45109599296930902312 -0.09197010902857183368 -2.63503621102645180230 -2.63503621102645180230 2.45109599296930902312 -7.72116841502221351590 -2.63503621102645180230 2.45109599296930902312 -0.09197010902857183368 -0.09197010902857183368 -5.17810231302433265910 -7.72116841502221351590 -5.17810231302433265910 -5.17810231302433265910 -5.17810231302433265910 -7.72116841502221351590 -5.17810231302433265910 -5.17810231302433265910 -7.72116841502221351590 -10.26423451702009437270 -7.72116841502221351590 -7.72116841502221351590 -5.17810231302433265910 -5.17810231302433265910 -2.63503621102645180230 -5.17810231302433265910 -5.17810231302433265910 -2.63503621102645180230 -7.72116841502221351590 -2.63503621102645180230 -5.17810231302433265910 -0.09197010902857183368 -2.63503621102645180230 -7.72116841502221351590 -5.17810231302433265910 -7.72116841502221351590 -7.72116841502221351590 -5.17810231302433265910 -2.63503621102645180230 -5.17810231302433265910 -2.63503621102645180230 -5.17810231302433265910 -5.17810231302433265910 -7.72116841502221351590 -5.17810231302433265910 -7.72116841502221351590 -0.09197010902857183368 -7.72116841502221351590 -7.72116841502221351590 -2.63503621102645180230 -5.17810231302433265910 -7.72116841502221351590 -5.17810231302433265910 -7.72116841502221351590 -0.09197010902857183368 -2.63503621102645180230 -5.17810231302433265910 -5.17810231302433265910 -2.63503621102645180230 -7.72116841502221351590 -5.17810231302433265910 -2.63503621102645180230 -5.17810231302433265910 -2.63503621102645180230 -5.17810231302433265910 -5.17810231302433265910 -5.17810231302433265910 -0.09197010902857183368 -5.17810231302433265910 -5.17810231302433265910 -0.09197010902857183368 2.45109599296930902312 -2.63503621102645180230 -5.17810231302433265910 -2.63503621102645180230 -2.63503621102645180230 -7.72116841502221351590 -10.26423451702009437270 -0.09197010902857183368 2.45109599296930902312 -2.63503621102645180230 -2.63503621102645180230 -5.17810231302433265910 -5.17810231302433265910 -7.72116841502221351590 -2.63503621102645180230 -2.63503621102645180230 -7.72116841502221351590 -0.09197010902857183368 -2.63503621102645180230 -2.63503621102645180230 -5.17810231302433265910 -5.17810231302433265910 -5.17810231302433265910 -0.09197010902857183368 -5.17810231302433265910 -0.09197010902857183368 -2.63503621102645180230 -5.17810231302433265910 -7.72116841502221351590 -2.63503621102645180230 -5.17810231302433265910 2.45109599296930902312 -0.09197010902857183368 -2.63503621102645180230 -2.63503621102645180230 -0.09197010902857183368 -2.63503621102645180230 -5.17810231302433265910 -0.09197010902857183368 -0.09197010902857183368 2.45109599296930902312 -2.63503621102645180230 -2.63503621102645180230 -2.63503621102645180230 -0.09197010902857183368 -0.09197010902857183368 2.45109599296930902312 4.99416209496718899175 -0.09197010902857183368 4.99416209496718899175 -2.63503621102645180230 2.45109599296930902312 2.45109599296930902312 4.99416209496718899175 2.45109599296930902312 -0.09197010902857183368 2.45109599296930902312 -0.09197010902857183368 -0.09197010902857183368 -0.09197010902857183368 -0.09197010902857183368 10.08029429896294892899 4.99416209496718899175 7.53722819696506984855 2.45109599296930902312 4.99416209496718899175 -5.17810231302433265910 2.45109599296930902312 4.99416209496718899175 7.53722819696506984855 4.99416209496718899175 4.99416209496718899175 2.45109599296930902312 -2.63503621102645180230 2.45109599296930902312 2.45109599296930902312 7.53722819696506984855 4.99416209496718899175 2.45109599296930902312 2.45109599296930902312 2.45109599296930902312 4.99416209496718899175 4.99416209496718899175 -0.09197010902857183368 2.45109599296930902312 4.99416209496718899175 -2.63503621102645180230 -0.09197010902857183368 -0.09197010902857183368 2.45109599296930902312 2.45109599296930902312 -0.09197010902857183368 2.45109599296930902312 4.99416209496718899175 -0.09197010902857183368 -0.09197010902857183368 -2.63503621102645180230 4.99416209496718899175 2.45109599296930902312 4.99416209496718899175 4.99416209496718899175 -0.09197010902857183368 2.45109599296930902312 7.53722819696506984855 2.45109599296930902312 7.53722819696506984855 4.99416209496718899175 -0.09197010902857183368 4.99416209496718899175 2.45109599296930902312 2.45109599296930902312 2.45109599296930902312 10.08029429896294892899 7.53722819696506984855 7.53722819696506984855 4.99416209496718899175 2.45109599296930902312 2.45109599296930902312 2.45109599296930902312 4.99416209496718899175 2.45109599296930902312 4.99416209496718899175 2.45109599296930902312 4.99416209496718899175 2.45109599296930902312 4.99416209496718899175 7.53722819696506984855 4.99416209496718899175 4.99416209496718899175 7.53722819696506984855 7.53722819696506984855 4.99416209496718899175 4.99416209496718899175 7.53722819696506984855 10.08029429896294892899 10.08029429896294892899 7.53722819696506984855 7.53722819696506984855 7.53722819696506984855 2.45109599296930902312 7.53722819696506984855 4.99416209496718899175 7.53722819696506984855 7.53722819696506984855 7.53722819696506984855 10.08029429896294892899 7.53722819696506984855 7.53722819696506984855 10.08029429896294892899 10.08029429896294892899 10.08029429896294892899 12.62336040096083067397 7.53722819696506984855 4.99416209496718899175 4.99416209496718899175 4.99416209496718899175 10.08029429896294892899 7.53722819696506984855 12.62336040096083067397 10.08029429896294892899 7.53722819696506984855 4.99416209496718899175 4.99416209496718899175 15.16642650295871064259 20.25255870695447057983 17.70949260495659061121 20.25255870695447057983 25.33869091095023406979 20.25255870695447057983 22.79562480895235410117 20.25255870695447057983 22.79562480895235410117 22.79562480895235410117 20.25255870695447057983 25.33869091095023406979 17.70949260495659061121 17.70949260495659061121 15.16642650295871064259 20.25255870695447057983 27.88175701294811403841 20.25255870695447057983 20.25255870695447057983 17.70949260495659061121 12.62336040096083067397 22.79562480895235410117 17.70949260495659061121 15.16642650295871064259 12.62336040096083067397 17.70949260495659061121 15.16642650295871064259 17.70949260495659061121 17.70949260495659061121 17.70949260495659061121 20.25255870695447057983 17.70949260495659061121 17.70949260495659061121 15.16642650295871064259 12.62336040096083067397 17.70949260495659061121 20.25255870695447057983 15.16642650295871064259 17.70949260495659061121 17.70949260495659061121 17.70949260495659061121 12.62336040096083067397 15.16642650295871064259 17.70949260495659061121 12.62336040096083067397 15.16642650295871064259 20.25255870695447057983 20.25255870695447057983 10.08029429896294892899 20.25255870695447057983 20.25255870695447057983 15.16642650295871064259 15.16642650295871064259 15.16642650295871064259 12.62336040096083067397 17.70949260495659061121 15.16642650295871064259 22.79562480895235410117 20.25255870695447057983 22.79562480895235410117 15.16642650295871064259 15.16642650295871064259 22.79562480895235410117 20.25255870695447057983 17.70949260495659061121 17.70949260495659061121 17.70949260495659061121 17.70949260495659061121 17.70949260495659061121 20.25255870695447057983 20.25255870695447057983 20.25255870695447057983 25.33869091095023406979 22.79562480895235410117 22.79562480895235410117 20.25255870695447057983 20.25255870695447057983 20.25255870695447057983 10.08029429896294892899 15.16642650295871064259 17.70949260495659061121 17.70949260495659061121 12.62336040096083067397 17.70949260495659061121 22.79562480895235410117 15.16642650295871064259 10.08029429896294892899 15.16642650295871064259 15.16642650295871064259 17.70949260495659061121 12.62336040096083067397 15.16642650295871064259 15.16642650295871064259 15.16642650295871064259 17.70949260495659061121 15.16642650295871064259 15.16642650295871064259 15.16642650295871064259 20.25255870695447057983 15.16642650295871064259 7.53722819696506984855 12.62336040096083067397 15.16642650295871064259 15.16642650295871064259 15.16642650295871064259 15.16642650295871064259 10.08029429896294892899 15.16642650295871064259 17.70949260495659061121 15.16642650295871064259 12.62336040096083067397 10.08029429896294892899 10.08029429896294892899 12.62336040096083067397 7.53722819696506984855 15.16642650295871064259 10.08029429896294892899 12.62336040096083067397 12.62336040096083067397 12.62336040096083067397 10.08029429896294892899 17.70949260495659061121 17.70949260495659061121 10.08029429896294892899 7.53722819696506984855 10.08029429896294892899 12.62336040096083067397 12.62336040096083067397 12.62336040096083067397 15.16642650295871064259 12.62336040096083067397 10.08029429896294892899 10.08029429896294892899 7.53722819696506984855 10.08029429896294892899 12.62336040096083067397 10.08029429896294892899 4.99416209496718899175 4.99416209496718899175 10.08029429896294892899 4.99416209496718899175 12.62336040096083067397 10.08029429896294892899 12.62336040096083067397 7.53722819696506984855 4.99416209496718899175 17.70949260495659061121 10.08029429896294892899 7.53722819696506984855 7.53722819696506984855 10.08029429896294892899 10.08029429896294892899 12.62336040096083067397 12.62336040096083067397 12.62336040096083067397 7.53722819696506984855 12.62336040096083067397 7.53722819696506984855 12.62336040096083067397 10.08029429896294892899 10.08029429896294892899 10.08029429896294892899 7.53722819696506984855 12.62336040096083067397 12.62336040096083067397 12.62336040096083067397 7.53722819696506984855 10.08029429896294892899 10.08029429896294892899 7.53722819696506984855 4.99416209496718899175 7.53722819696506984855 7.53722819696506984855 10.08029429896294892899 7.53722819696506984855 7.53722819696506984855 15.16642650295871064259 4.99416209496718899175 10.08029429896294892899 4.99416209496718899175 10.08029429896294892899 4.99416209496718899175 2.45109599296930902312 7.53722819696506984855 15.16642650295871064259 7.53722819696506984855 10.08029429896294892899 7.53722819696506984855 4.99416209496718899175 4.99416209496718899175 12.62336040096083067397 12.62336040096083067397 4.99416209496718899175 2.45109599296930902312 4.99416209496718899175 4.99416209496718899175 7.53722819696506984855 7.53722819696506984855 10.08029429896294892899 7.53722819696506984855 2.45109599296930902312 4.99416209496718899175 4.99416209496718899175 10.08029429896294892899 4.99416209496718899175 4.99416209496718899175 4.99416209496718899175 4.99416209496718899175 4.99416209496718899175 4.99416209496718899175 7.53722819696506984855 2.45109599296930902312 2.45109599296930902312 4.99416209496718899175 4.99416209496718899175 10.08029429896294892899 4.99416209496718899175 4.99416209496718899175 2.45109599296930902312 7.53722819696506984855 7.53722819696506984855 7.53722819696506984855 7.53722819696506984855 7.53722819696506984855 4.99416209496718899175 4.99416209496718899175 10.08029429896294892899 10.08029429896294892899 4.99416209496718899175 4.99416209496718899175 7.53722819696506984855 12.62336040096083067397 10.08029429896294892899 10.08029429896294892899 4.99416209496718899175 7.53722819696506984855 4.99416209496718899175 7.53722819696506984855 10.08029429896294892899 2.45109599296930902312 4.99416209496718899175 4.99416209496718899175 4.99416209496718899175 -0.09197010902857183368 2.45109599296930902312 2.45109599296930902312 4.99416209496718899175 4.99416209496718899175 -0.09197010902857183368 2.45109599296930902312 -0.09197010902857183368 2.45109599296930902312 2.45109599296930902312 4.99416209496718899175 2.45109599296930902312 4.99416209496718899175 4.99416209496718899175 7.53722819696506984855 -0.09197010902857183368 -2.63503621102645180230 4.99416209496718899175 -0.09197010902857183368 -0.09197010902857183368 2.45109599296930902312 7.53722819696506984855 -0.09197010902857183368 4.99416209496718899175 -2.63503621102645180230 -2.63503621102645180230 2.45109599296930902312 -0.09197010902857183368 -2.63503621102645180230 -0.09197010902857183368 -2.63503621102645180230 -5.17810231302433265910 -5.17810231302433265910 -0.09197010902857183368 -0.09197010902857183368 2.45109599296930902312 -2.63503621102645180230 -5.17810231302433265910 -5.17810231302433265910 -0.09197010902857183368 -2.63503621102645180230 -2.63503621102645180230 -0.09197010902857183368 -0.09197010902857183368 -2.63503621102645180230 4.99416209496718899175 -2.63503621102645180230 -5.17810231302433265910 -0.09197010902857183368 -2.63503621102645180230 -5.17810231302433265910 -2.63503621102645180230 2.45109599296930902312 -0.09197010902857183368 -2.63503621102645180230 -0.09197010902857183368 -5.17810231302433265910 -2.63503621102645180230 -0.09197010902857183368 -0.09197010902857183368 -5.17810231302433265910 -0.09197010902857183368 -5.17810231302433265910 -0.09197010902857183368 -2.63503621102645180230 -2.63503621102645180230 -2.63503621102645180230 -0.09197010902857183368 -0.09197010902857183368 -0.09197010902857183368 -0.09197010902857183368 2.45109599296930902312 -0.09197010902857183368 -2.63503621102645180230 -2.63503621102645180230 2.45109599296930902312 -0.09197010902857183368 7.53722819696506984855 4.99416209496718899175 4.99416209496718899175 2.45109599296930902312 -0.09197010902857183368 4.99416209496718899175 7.53722819696506984855 2.45109599296930902312 2.45109599296930902312 -0.09197010902857183368 -0.09197010902857183368 4.99416209496718899175 2.45109599296930902312 4.99416209496718899175 7.53722819696506984855 4.99416209496718899175 2.45109599296930902312 7.53722819696506984855 2.45109599296930902312 2.45109599296930902312 2.45109599296930902312 7.53722819696506984855 2.45109599296930902312 10.08029429896294892899 4.99416209496718899175 2.45109599296930902312 4.99416209496718899175 -0.09197010902857183368 -2.63503621102645180230 2.45109599296930902312 7.53722819696506984855 2.45109599296930902312 4.99416209496718899175 4.99416209496718899175 2.45109599296930902312 7.53722819696506984855 -0.09197010902857183368 2.45109599296930902312 2.45109599296930902312 7.53722819696506984855 2.45109599296930902312 -0.09197010902857183368 4.99416209496718899175 7.53722819696506984855 2.45109599296930902312 2.45109599296930902312 4.99416209496718899175 2.45109599296930902312 2.45109599296930902312 2.45109599296930902312 4.99416209496718899175 4.99416209496718899175 2.45109599296930902312 -0.09197010902857183368 -2.63503621102645180230 2.45109599296930902312 4.99416209496718899175 2.45109599296930902312 2.45109599296930902312 2.45109599296930902312 -0.09197010902857183368 -0.09197010902857183368 2.45109599296930902312 -0.09197010902857183368 -0.09197010902857183368 2.45109599296930902312 -2.63503621102645180230 2.45109599296930902312 2.45109599296930902312 2.45109599296930902312 -0.09197010902857183368 -0.09197010902857183368 -5.17810231302433265910 -0.09197010902857183368 -0.09197010902857183368 4.99416209496718899175 -0.09197010902857183368 4.99416209496718899175 -2.63503621102645180230 -0.09197010902857183368 -0.09197010902857183368 2.45109599296930902312 7.53722819696506984855 4.99416209496718899175 2.45109599296930902312 -0.09197010902857183368 2.45109599296930902312 4.99416209496718899175 4.99416209496718899175 4.99416209496718899175 7.53722819696506984855 -0.09197010902857183368 -5.17810231302433265910 4.99416209496718899175 4.99416209496718899175 2.45109599296930902312 4.99416209496718899175 2.45109599296930902312 2.45109599296930902312 2.45109599296930902312 2.45109599296930902312 7.53722819696506984855 4.99416209496718899175 4.99416209496718899175 -0.09197010902857183368 -2.63503621102645180230 4.99416209496718899175 2.45109599296930902312 4.99416209496718899175 2.45109599296930902312 -2.63503621102645180230 4.99416209496718899175 7.53722819696506984855 7.53722819696506984855 4.99416209496718899175 4.99416209496718899175 4.99416209496718899175 2.45109599296930902312 2.45109599296930902312 7.53722819696506984855 2.45109599296930902312 -0.09197010902857183368 7.53722819696506984855 2.45109599296930902312 2.45109599296930902312 7.53722819696506984855 4.99416209496718899175 2.45109599296930902312 -0.09197010902857183368 -0.09197010902857183368 -0.09197010902857183368 -2.63503621102645180230 2.45109599296930902312 2.45109599296930902312 2.45109599296930902312 4.99416209496718899175 -5.17810231302433265910 -2.63503621102645180230 -0.09197010902857183368 -0.09197010902857183368 -0.09197010902857183368 -2.63503621102645180230 2.45109599296930902312 -2.63503621102645180230 -0.09197010902857183368 -2.63503621102645180230 2.45109599296930902312 -2.63503621102645180230 -5.17810231302433265910 -0.09197010902857183368 -2.63503621102645180230 -2.63503621102645180230 2.45109599296930902312 -5.17810231302433265910 -7.72116841502221351590 -2.63503621102645180230 -7.72116841502221351590 -2.63503621102645180230 -2.63503621102645180230 -2.63503621102645180230 -5.17810231302433265910 -2.63503621102645180230 -5.17810231302433265910 -2.63503621102645180230 -0.09197010902857183368 -0.09197010902857183368 -0.09197010902857183368 -0.09197010902857183368 -5.17810231302433265910 -2.63503621102645180230 -2.63503621102645180230 2.45109599296930902312 -5.17810231302433265910 -0.09197010902857183368 -2.63503621102645180230 -0.09197010902857183368 2.45109599296930902312 2.45109599296930902312 -0.09197010902857183368 -5.17810231302433265910 -2.63503621102645180230 -0.09197010902857183368 2.45109599296930902312 4.99416209496718899175 -2.63503621102645180230 2.45109599296930902312 -0.09197010902857183368 -5.17810231302433265910 -2.63503621102645180230 2.45109599296930902312 -0.09197010902857183368 2.45109599296930902312 2.45109599296930902312 -0.09197010902857183368 -2.63503621102645180230 4.99416209496718899175 -0.09197010902857183368 -2.63503621102645180230 2.45109599296930902312 2.45109599296930902312 2.45109599296930902312 -0.09197010902857183368 2.45109599296930902312 2.45109599296930902312 -0.09197010902857183368 -0.09197010902857183368 2.45109599296930902312 -2.63503621102645180230 2.45109599296930902312 -0.09197010902857183368 -0.09197010902857183368 -2.63503621102645180230 -5.17810231302433265910 -2.63503621102645180230 -0.09197010902857183368 2.45109599296930902312 -0.09197010902857183368 2.45109599296930902312 2.45109599296930902312 4.99416209496718899175 -2.63503621102645180230 -5.17810231302433265910 2.45109599296930902312 2.45109599296930902312 2.45109599296930902312 2.45109599296930902312 -2.63503621102645180230 -5.17810231302433265910 -0.09197010902857183368 7.53722819696506984855 2.45109599296930902312 2.45109599296930902312 -0.09197010902857183368 2.45109599296930902312 -0.09197010902857183368 -2.63503621102645180230 -0.09197010902857183368 2.45109599296930902312 2.45109599296930902312 2.45109599296930902312 -0.09197010902857183368 -0.09197010902857183368 2.45109599296930902312 -2.63503621102645180230 2.45109599296930902312 2.45109599296930902312 2.45109599296930902312 2.45109599296930902312 2.45109599296930902312 -0.09197010902857183368 2.45109599296930902312 -0.09197010902857183368 2.45109599296930902312 -2.63503621102645180230 -0.09197010902857183368 2.45109599296930902312 2.45109599296930902312 7.53722819696506984855 -0.09197010902857183368 4.99416209496718899175 4.99416209496718899175 2.45109599296930902312 4.99416209496718899175 2.45109599296930902312 7.53722819696506984855 -0.09197010902857183368 2.45109599296930902312 -0.09197010902857183368 -0.09197010902857183368 2.45109599296930902312 7.53722819696506984855 2.45109599296930902312 2.45109599296930902312 -0.09197010902857183368 -0.09197010902857183368 2.45109599296930902312 7.53722819696506984855 -0.09197010902857183368 2.45109599296930902312 2.45109599296930902312 4.99416209496718899175 4.99416209496718899175 4.99416209496718899175 4.99416209496718899175 4.99416209496718899175 4.99416209496718899175 7.53722819696506984855 4.99416209496718899175 2.45109599296930902312 2.45109599296930902312 2.45109599296930902312 4.99416209496718899175 2.45109599296930902312 4.99416209496718899175 4.99416209496718899175 2.45109599296930902312 4.99416209496718899175 2.45109599296930902312 10.08029429896294892899 4.99416209496718899175 7.53722819696506984855 4.99416209496718899175 -0.09197010902857183368 -0.09197010902857183368 4.99416209496718899175 2.45109599296930902312 4.99416209496718899175 4.99416209496718899175 4.99416209496718899175 2.45109599296930902312 2.45109599296930902312 4.99416209496718899175 2.45109599296930902312 4.99416209496718899175 2.45109599296930902312 4.99416209496718899175 4.99416209496718899175 2.45109599296930902312 -0.09197010902857183368 -2.63503621102645180230 2.45109599296930902312 2.45109599296930902312 2.45109599296930902312 2.45109599296930902312 -0.09197010902857183368 2.45109599296930902312 -2.63503621102645180230 -0.09197010902857183368 2.45109599296930902312 2.45109599296930902312 -2.63503621102645180230 -0.09197010902857183368 -2.63503621102645180230 -2.63503621102645180230 -0.09197010902857183368 2.45109599296930902312 2.45109599296930902312 -0.09197010902857183368 7.53722819696506984855 2.45109599296930902312 -2.63503621102645180230 7.53722819696506984855 -0.09197010902857183368 2.45109599296930902312 -0.09197010902857183368 -2.63503621102645180230 -2.63503621102645180230 -2.63503621102645180230 7.53722819696506984855 -0.09197010902857183368 -5.17810231302433265910 -5.17810231302433265910 -0.09197010902857183368 -0.09197010902857183368 -2.63503621102645180230 2.45109599296930902312 -0.09197010902857183368 -2.63503621102645180230 -2.63503621102645180230 4.99416209496718899175 -0.09197010902857183368 -5.17810231302433265910 2.45109599296930902312 4.99416209496718899175 2.45109599296930902312 -2.63503621102645180230 -0.09197010902857183368 -2.63503621102645180230 -0.09197010902857183368 -2.63503621102645180230 4.99416209496718899175 2.45109599296930902312 -0.09197010902857183368 2.45109599296930902312 -2.63503621102645180230 4.99416209496718899175 -0.09197010902857183368 2.45109599296930902312 -2.63503621102645180230 -0.09197010902857183368 -2.63503621102645180230 2.45109599296930902312 2.45109599296930902312 -2.63503621102645180230 4.99416209496718899175 -2.63503621102645180230 -2.63503621102645180230 4.99416209496718899175 4.99416209496718899175 -2.63503621102645180230 -0.09197010902857183368 -5.17810231302433265910 -5.17810231302433265910 -2.63503621102645180230 -0.09197010902857183368 -5.17810231302433265910 -5.17810231302433265910 -0.09197010902857183368 -2.63503621102645180230 -0.09197010902857183368 -2.63503621102645180230 -2.63503621102645180230 2.45109599296930902312 2.45109599296930902312 -0.09197010902857183368 -0.09197010902857183368 -7.72116841502221351590 2.45109599296930902312 -7.72116841502221351590 -0.09197010902857183368 -2.63503621102645180230 -2.63503621102645180230 -2.63503621102645180230 -7.72116841502221351590 -2.63503621102645180230 -0.09197010902857183368 -0.09197010902857183368 -2.63503621102645180230 -5.17810231302433265910 -7.72116841502221351590 -0.09197010902857183368 2.45109599296930902312 -2.63503621102645180230 -5.17810231302433265910 -2.63503621102645180230 -0.09197010902857183368 -2.63503621102645180230 -0.09197010902857183368 -0.09197010902857183368 -0.09197010902857183368 2.45109599296930902312 -2.63503621102645180230 -2.63503621102645180230 -2.63503621102645180230 2.45109599296930902312 -0.09197010902857183368 2.45109599296930902312 -0.09197010902857183368 -7.72116841502221351590 -2.63503621102645180230 -0.09197010902857183368 -2.63503621102645180230 2.45109599296930902312 -0.09197010902857183368 -5.17810231302433265910 -0.09197010902857183368 -2.63503621102645180230 4.99416209496718899175 -0.09197010902857183368 -5.17810231302433265910 2.45109599296930902312 -2.63503621102645180230 -0.09197010902857183368 -0.09197010902857183368 4.99416209496718899175 2.45109599296930902312 -0.09197010902857183368 -0.09197010902857183368 -0.09197010902857183368 -0.09197010902857183368 -0.09197010902857183368 2.45109599296930902312 -0.09197010902857183368 -2.63503621102645180230 -0.09197010902857183368 -5.17810231302433265910 -0.09197010902857183368 4.99416209496718899175 -5.17810231302433265910 -2.63503621102645180230 -5.17810231302433265910 -5.17810231302433265910 -2.63503621102645180230 -5.17810231302433265910 -2.63503621102645180230 -5.17810231302433265910 -5.17810231302433265910 -5.17810231302433265910 -12.80730061901797611768 -0.09197010902857183368 -5.17810231302433265910 -2.63503621102645180230 -7.72116841502221351590 -5.17810231302433265910 -5.17810231302433265910 -5.17810231302433265910 -5.17810231302433265910 -5.17810231302433265910 -2.63503621102645180230 -5.17810231302433265910 -10.26423451702009437270 -5.17810231302433265910 -10.26423451702009437270 -7.72116841502221351590 -10.26423451702009437270 -5.17810231302433265910 -0.09197010902857183368 -10.26423451702009437270 -10.26423451702009437270 -7.72116841502221351590 -7.72116841502221351590 -2.63503621102645180230 -10.26423451702009437270 -2.63503621102645180230 -7.72116841502221351590 -10.26423451702009437270 -7.72116841502221351590 -7.72116841502221351590 -5.17810231302433265910 -5.17810231302433265910 -5.17810231302433265910 -10.26423451702009437270 -7.72116841502221351590 -7.72116841502221351590 -5.17810231302433265910 -7.72116841502221351590 -5.17810231302433265910 -7.72116841502221351590 -5.17810231302433265910 -7.72116841502221351590 -7.72116841502221351590 -7.72116841502221351590 -0.09197010902857183368 -5.17810231302433265910 -2.63503621102645180230 -15.35036672101585608630 -10.26423451702009437270 -5.17810231302433265910 -5.17810231302433265910 -7.72116841502221351590 -5.17810231302433265910 -2.63503621102645180230 -2.63503621102645180230 -0.09197010902857183368 -2.63503621102645180230 -2.63503621102645180230 -0.09197010902857183368 -2.63503621102645180230 -2.63503621102645180230 -5.17810231302433265910 2.45109599296930902312 -0.09197010902857183368 -0.09197010902857183368 -0.09197010902857183368 -2.63503621102645180230 -0.09197010902857183368 -0.09197010902857183368 2.45109599296930902312 2.45109599296930902312 -0.09197010902857183368 -2.63503621102645180230 -0.09197010902857183368 2.45109599296930902312 7.53722819696506984855 2.45109599296930902312 -0.09197010902857183368 -2.63503621102645180230 -2.63503621102645180230 -2.63503621102645180230 -0.09197010902857183368 -0.09197010902857183368 -5.17810231302433265910 -0.09197010902857183368 -2.63503621102645180230 -2.63503621102645180230 -5.17810231302433265910 -0.09197010902857183368 -2.63503621102645180230 -5.17810231302433265910 2.45109599296930902312 -2.63503621102645180230 -10.26423451702009437270 -2.63503621102645180230 -5.17810231302433265910 -5.17810231302433265910 -2.63503621102645180230 -2.63503621102645180230 -5.17810231302433265910 -2.63503621102645180230 -7.72116841502221351590 -5.17810231302433265910 -5.17810231302433265910 -5.17810231302433265910 -7.72116841502221351590 -2.63503621102645180230 -2.63503621102645180230 -5.17810231302433265910 -5.17810231302433265910 -5.17810231302433265910 -2.63503621102645180230 -5.17810231302433265910 -5.17810231302433265910 -2.63503621102645180230 -7.72116841502221351590 -7.72116841502221351590 -5.17810231302433265910 -5.17810231302433265910 -0.09197010902857183368 -5.17810231302433265910 -7.72116841502221351590 -7.72116841502221351590 -5.17810231302433265910 -7.72116841502221351590 -2.63503621102645180230 -5.17810231302433265910 -5.17810231302433265910 -12.80730061901797611768 -7.72116841502221351590 -7.72116841502221351590 -7.72116841502221351590 -5.17810231302433265910 -7.72116841502221351590 -7.72116841502221351590 -7.72116841502221351590 -7.72116841502221351590 -5.17810231302433265910 -5.17810231302433265910 -7.72116841502221351590 -10.26423451702009437270 -5.17810231302433265910 -10.26423451702009437270 -2.63503621102645180230 -2.63503621102645180230 -7.72116841502221351590 -7.72116841502221351590 -7.72116841502221351590 -7.72116841502221351590 -5.17810231302433265910 -5.17810231302433265910 -2.63503621102645180230 -2.63503621102645180230 -2.63503621102645180230 -7.72116841502221351590 -2.63503621102645180230 -10.26423451702009437270 -7.72116841502221351590 -2.63503621102645180230 -2.63503621102645180230 -5.17810231302433265910 -5.17810231302433265910 -10.26423451702009437270 -5.17810231302433265910 -5.17810231302433265910 -2.63503621102645180230 -2.63503621102645180230 -2.63503621102645180230 -7.72116841502221351590 -10.26423451702009437270 -5.17810231302433265910 -5.17810231302433265910 -2.63503621102645180230 -2.63503621102645180230 -0.09197010902857183368 -7.72116841502221351590 -5.17810231302433265910 -0.09197010902857183368 -2.63503621102645180230 -2.63503621102645180230 -0.09197010902857183368 -5.17810231302433265910 -2.63503621102645180230 -5.17810231302433265910 -5.17810231302433265910 -0.09197010902857183368 -7.72116841502221351590 -0.09197010902857183368 -2.63503621102645180230 -0.09197010902857183368 -2.63503621102645180230 -2.63503621102645180230 2.45109599296930902312 -2.63503621102645180230 -2.63503621102645180230 -0.09197010902857183368 -0.09197010902857183368 -0.09197010902857183368 -5.17810231302433265910 4.99416209496718899175 -2.63503621102645180230 -0.09197010902857183368 -0.09197010902857183368 2.45109599296930902312 2.45109599296930902312 2.45109599296930902312 4.99416209496718899175 -0.09197010902857183368 -2.63503621102645180230 4.99416209496718899175 -2.63503621102645180230 -5.17810231302433265910 -2.63503621102645180230 -2.63503621102645180230 -0.09197010902857183368 4.99416209496718899175 -0.09197010902857183368 -2.63503621102645180230 -5.17810231302433265910 -0.09197010902857183368 2.45109599296930902312 -0.09197010902857183368 -2.63503621102645180230 -0.09197010902857183368 -2.63503621102645180230 -0.09197010902857183368 2.45109599296930902312 2.45109599296930902312 -0.09197010902857183368 -0.09197010902857183368 -0.09197010902857183368 -0.09197010902857183368 -5.17810231302433265910 2.45109599296930902312 -2.63503621102645180230 -0.09197010902857183368 -0.09197010902857183368 -0.09197010902857183368 -5.17810231302433265910 -2.63503621102645180230 -0.09197010902857183368 -0.09197010902857183368 -5.17810231302433265910 -2.63503621102645180230 -2.63503621102645180230 -5.17810231302433265910 -2.63503621102645180230 -2.63503621102645180230 -0.09197010902857183368 -5.17810231302433265910 -2.63503621102645180230 -0.09197010902857183368 -5.17810231302433265910 -2.63503621102645180230 -0.09197010902857183368 -0.09197010902857183368 -5.17810231302433265910 -0.09197010902857183368 -5.17810231302433265910 -5.17810231302433265910 -0.09197010902857183368 -5.17810231302433265910 -5.17810231302433265910 -0.09197010902857183368 -7.72116841502221351590 -2.63503621102645180230 -2.63503621102645180230 2.45109599296930902312 -0.09197010902857183368 -2.63503621102645180230 -2.63503621102645180230 -5.17810231302433265910 -5.17810231302433265910 -0.09197010902857183368 -0.09197010902857183368 -0.09197010902857183368 -0.09197010902857183368 -5.17810231302433265910 -2.63503621102645180230 -5.17810231302433265910 -5.17810231302433265910 -2.63503621102645180230 2.45109599296930902312 -5.17810231302433265910 -0.09197010902857183368 -7.72116841502221351590 -10.26423451702009437270 -2.63503621102645180230 -0.09197010902857183368 -0.09197010902857183368 -2.63503621102645180230 -0.09197010902857183368 -7.72116841502221351590 -7.72116841502221351590 -2.63503621102645180230 -2.63503621102645180230 -5.17810231302433265910 -2.63503621102645180230 -2.63503621102645180230 -5.17810231302433265910 -10.26423451702009437270 -5.17810231302433265910 -5.17810231302433265910 -2.63503621102645180230 -5.17810231302433265910 -2.63503621102645180230 -2.63503621102645180230 -5.17810231302433265910 -7.72116841502221351590 -5.17810231302433265910 -0.09197010902857183368 -0.09197010902857183368 -2.63503621102645180230 -0.09197010902857183368 -5.17810231302433265910 -5.17810231302433265910 -5.17810231302433265910 -5.17810231302433265910 -2.63503621102645180230 -7.72116841502221351590 -7.72116841502221351590 -5.17810231302433265910 -7.72116841502221351590 -5.17810231302433265910 -7.72116841502221351590 -5.17810231302433265910 -5.17810231302433265910 -5.17810231302433265910 -7.72116841502221351590 -10.26423451702009437270 -5.17810231302433265910 -2.63503621102645180230 -5.17810231302433265910 -0.09197010902857183368 -2.63503621102645180230 -5.17810231302433265910 -5.17810231302433265910 -5.17810231302433265910 -5.17810231302433265910 -5.17810231302433265910 -10.26423451702009437270 -2.63503621102645180230 -5.17810231302433265910 -5.17810231302433265910 -5.17810231302433265910 -5.17810231302433265910 -2.63503621102645180230 -2.63503621102645180230 -2.63503621102645180230 -7.72116841502221351590 -7.72116841502221351590 -5.17810231302433265910 -2.63503621102645180230 -2.63503621102645180230 -0.09197010902857183368 -2.63503621102645180230 -2.63503621102645180230 -2.63503621102645180230 -5.17810231302433265910 -2.63503621102645180230 -2.63503621102645180230 7.53722819696506984855 -2.63503621102645180230 2.45109599296930902312 -0.09197010902857183368 -0.09197010902857183368 -0.09197010902857183368 -0.09197010902857183368 -2.63503621102645180230 -0.09197010902857183368 -0.09197010902857183368 -0.09197010902857183368 -0.09197010902857183368 2.45109599296930902312 -0.09197010902857183368 -0.09197010902857183368 -0.09197010902857183368 -0.09197010902857183368 2.45109599296930902312 4.99416209496718899175 2.45109599296930902312 -0.09197010902857183368 2.45109599296930902312 -0.09197010902857183368 -2.63503621102645180230 -0.09197010902857183368 4.99416209496718899175 2.45109599296930902312 2.45109599296930902312 2.45109599296930902312 4.99416209496718899175 -0.09197010902857183368 -0.09197010902857183368 2.45109599296930902312 -0.09197010902857183368 2.45109599296930902312 -0.09197010902857183368 2.45109599296930902312 2.45109599296930902312 -2.63503621102645180230 -2.63503621102645180230 -2.63503621102645180230 2.45109599296930902312 -2.63503621102645180230 2.45109599296930902312 -2.63503621102645180230 -7.72116841502221351590 -5.17810231302433265910 -2.63503621102645180230 -2.63503621102645180230 -2.63503621102645180230 -2.63503621102645180230 -0.09197010902857183368 -7.72116841502221351590 -0.09197010902857183368 2.45109599296930902312 -0.09197010902857183368 -5.17810231302433265910 -0.09197010902857183368 -2.63503621102645180230 -5.17810231302433265910 -2.63503621102645180230 -2.63503621102645180230 -2.63503621102645180230 -0.09197010902857183368 2.45109599296930902312 -2.63503621102645180230 4.99416209496718899175 2.45109599296930902312 -2.63503621102645180230 -0.09197010902857183368 2.45109599296930902312 -2.63503621102645180230 -2.63503621102645180230 -2.63503621102645180230 -2.63503621102645180230 -0.09197010902857183368 2.45109599296930902312 2.45109599296930902312 -0.09197010902857183368 -0.09197010902857183368 -0.09197010902857183368 -0.09197010902857183368 -2.63503621102645180230 2.45109599296930902312 2.45109599296930902312 2.45109599296930902312 -2.63503621102645180230 2.45109599296930902312 -0.09197010902857183368 4.99416209496718899175 4.99416209496718899175 4.99416209496718899175 2.45109599296930902312 -2.63503621102645180230 -0.09197010902857183368 -2.63503621102645180230 -2.63503621102645180230 2.45109599296930902312 -0.09197010902857183368 2.45109599296930902312 -0.09197010902857183368 -2.63503621102645180230 -0.09197010902857183368 -2.63503621102645180230 7.53722819696506984855 -0.09197010902857183368 -0.09197010902857183368 -2.63503621102645180230 -2.63503621102645180230 -2.63503621102645180230 -5.17810231302433265910 -2.63503621102645180230 -2.63503621102645180230 -2.63503621102645180230 -0.09197010902857183368 2.45109599296930902312 -2.63503621102645180230 -5.17810231302433265910 -0.09197010902857183368 -5.17810231302433265910 4.99416209496718899175 2.45109599296930902312 -2.63503621102645180230 -5.17810231302433265910 -5.17810231302433265910 -0.09197010902857183368 -7.72116841502221351590 -2.63503621102645180230 -0.09197010902857183368 4.99416209496718899175 -0.09197010902857183368 -2.63503621102645180230 -0.09197010902857183368 -2.63503621102645180230 2.45109599296930902312 2.45109599296930902312 -0.09197010902857183368 -5.17810231302433265910 -0.09197010902857183368 -2.63503621102645180230 2.45109599296930902312 -2.63503621102645180230 -2.63503621102645180230 -0.09197010902857183368 -2.63503621102645180230 -0.09197010902857183368 -0.09197010902857183368 -0.09197010902857183368 4.99416209496718899175 -0.09197010902857183368 2.45109599296930902312 -2.63503621102645180230 -2.63503621102645180230 -2.63503621102645180230 2.45109599296930902312 -0.09197010902857183368 4.99416209496718899175 -2.63503621102645180230 -0.09197010902857183368 -5.17810231302433265910 -2.63503621102645180230 -0.09197010902857183368 2.45109599296930902312 -5.17810231302433265910 2.45109599296930902312 -2.63503621102645180230 -7.72116841502221351590 -0.09197010902857183368 -5.17810231302433265910 -0.09197010902857183368 -2.63503621102645180230 -2.63503621102645180230 -2.63503621102645180230 -0.09197010902857183368 -2.63503621102645180230 -2.63503621102645180230 -2.63503621102645180230 -5.17810231302433265910 -5.17810231302433265910 -7.72116841502221351590 -2.63503621102645180230 -5.17810231302433265910 -2.63503621102645180230 -7.72116841502221351590 -5.17810231302433265910 -2.63503621102645180230 -0.09197010902857183368 -2.63503621102645180230 -5.17810231302433265910 -2.63503621102645180230 -7.72116841502221351590 -7.72116841502221351590 -7.72116841502221351590 -2.63503621102645180230 -2.63503621102645180230 -5.17810231302433265910 -5.17810231302433265910 -5.17810231302433265910 -5.17810231302433265910 -5.17810231302433265910 -7.72116841502221351590 -12.80730061901797611768 -7.72116841502221351590 -5.17810231302433265910 -7.72116841502221351590 -2.63503621102645180230 -7.72116841502221351590 -5.17810231302433265910 -5.17810231302433265910 -5.17810231302433265910 -7.72116841502221351590 -7.72116841502221351590 -2.63503621102645180230 -5.17810231302433265910 -5.17810231302433265910 -7.72116841502221351590 -7.72116841502221351590 -7.72116841502221351590 -10.26423451702009437270 -7.72116841502221351590 -7.72116841502221351590 -7.72116841502221351590 -7.72116841502221351590 -5.17810231302433265910 -5.17810231302433265910 -2.63503621102645180230 -10.26423451702009437270 -5.17810231302433265910 -5.17810231302433265910 -10.26423451702009437270 -7.72116841502221351590 -2.63503621102645180230 -0.09197010902857183368 -5.17810231302433265910 -2.63503621102645180230 -5.17810231302433265910 -7.72116841502221351590 -7.72116841502221351590 -10.26423451702009437270 -2.63503621102645180230 -0.09197010902857183368 -5.17810231302433265910 -0.09197010902857183368 -2.63503621102645180230 -5.17810231302433265910 -7.72116841502221351590 -5.17810231302433265910 -2.63503621102645180230 -0.09197010902857183368 -5.17810231302433265910 -5.17810231302433265910 -5.17810231302433265910 -2.63503621102645180230 -0.09197010902857183368 -2.63503621102645180230 2.45109599296930902312 -5.17810231302433265910 -2.63503621102645180230 -5.17810231302433265910 -2.63503621102645180230 -5.17810231302433265910 -2.63503621102645180230 -0.09197010902857183368 -2.63503621102645180230 -0.09197010902857183368 -5.17810231302433265910 2.45109599296930902312 2.45109599296930902312 2.45109599296930902312 -2.63503621102645180230 -5.17810231302433265910 -5.17810231302433265910 -5.17810231302433265910 -0.09197010902857183368 -0.09197010902857183368 -0.09197010902857183368 -2.63503621102645180230 -2.63503621102645180230 -2.63503621102645180230 -5.17810231302433265910 -2.63503621102645180230 -0.09197010902857183368 -5.17810231302433265910 -2.63503621102645180230 -0.09197010902857183368 -5.17810231302433265910 -5.17810231302433265910 -0.09197010902857183368 -2.63503621102645180230 -0.09197010902857183368 -5.17810231302433265910 -2.63503621102645180230 -5.17810231302433265910 -0.09197010902857183368 -0.09197010902857183368 -2.63503621102645180230 4.99416209496718899175 -2.63503621102645180230 -2.63503621102645180230 -2.63503621102645180230 -0.09197010902857183368 2.45109599296930902312 -0.09197010902857183368 -2.63503621102645180230 -0.09197010902857183368 -5.17810231302433265910 2.45109599296930902312 -2.63503621102645180230 2.45109599296930902312 -2.63503621102645180230 -0.09197010902857183368 -2.63503621102645180230 -2.63503621102645180230 -2.63503621102645180230 -2.63503621102645180230 -2.63503621102645180230 -0.09197010902857183368 -7.72116841502221351590 -2.63503621102645180230 -5.17810231302433265910 2.45109599296930902312 -2.63503621102645180230 -0.09197010902857183368 -2.63503621102645180230 -0.09197010902857183368 -5.17810231302433265910 -2.63503621102645180230 2.45109599296930902312 -0.09197010902857183368 -5.17810231302433265910 -5.17810231302433265910 -5.17810231302433265910 -2.63503621102645180230 -2.63503621102645180230 2.45109599296930902312 -2.63503621102645180230 -0.09197010902857183368 -2.63503621102645180230 -5.17810231302433265910 -7.72116841502221351590 -2.63503621102645180230 -2.63503621102645180230 2.45109599296930902312 -0.09197010902857183368 -2.63503621102645180230 -2.63503621102645180230 -7.72116841502221351590 -0.09197010902857183368 2.45109599296930902312 -2.63503621102645180230 -0.09197010902857183368 -5.17810231302433265910 -0.09197010902857183368 -5.17810231302433265910 -0.09197010902857183368 -2.63503621102645180230 -2.63503621102645180230 2.45109599296930902312 -7.72116841502221351590 -7.72116841502221351590 -2.63503621102645180230 -2.63503621102645180230 -0.09197010902857183368 -7.72116841502221351590 -7.72116841502221351590 -10.26423451702009437270 -2.63503621102645180230 -5.17810231302433265910 -0.09197010902857183368 -5.17810231302433265910 -5.17810231302433265910 -10.26423451702009437270 -2.63503621102645180230 -7.72116841502221351590 -2.63503621102645180230 -2.63503621102645180230 -2.63503621102645180230 -5.17810231302433265910 -7.72116841502221351590 -7.72116841502221351590 -7.72116841502221351590 -5.17810231302433265910 -2.63503621102645180230 2.45109599296930902312 -2.63503621102645180230 -5.17810231302433265910 -5.17810231302433265910 -5.17810231302433265910 -5.17810231302433265910 -0.09197010902857183368 -5.17810231302433265910 -5.17810231302433265910 -5.17810231302433265910 -2.63503621102645180230 -5.17810231302433265910 -5.17810231302433265910 -5.17810231302433265910 -2.63503621102645180230 -5.17810231302433265910 -2.63503621102645180230 -2.63503621102645180230 -10.26423451702009437270 -2.63503621102645180230 -0.09197010902857183368 -5.17810231302433265910 -2.63503621102645180230 -2.63503621102645180230 -2.63503621102645180230 -12.80730061901797611768 -5.17810231302433265910 -5.17810231302433265910 -5.17810231302433265910 -7.72116841502221351590 -5.17810231302433265910 -5.17810231302433265910 -7.72116841502221351590 -7.72116841502221351590 -7.72116841502221351590 -7.72116841502221351590 -5.17810231302433265910 -5.17810231302433265910 -2.63503621102645180230 -10.26423451702009437270 -5.17810231302433265910 -10.26423451702009437270 -2.63503621102645180230 -7.72116841502221351590 -7.72116841502221351590 -5.17810231302433265910 -7.72116841502221351590 -5.17810231302433265910 -2.63503621102645180230 -2.63503621102645180230 -2.63503621102645180230 -2.63503621102645180230 -7.72116841502221351590 -0.09197010902857183368 -12.80730061901797611768 -5.17810231302433265910 -2.63503621102645180230 -2.63503621102645180230 -5.17810231302433265910 -7.72116841502221351590 -5.17810231302433265910 -10.26423451702009437270 -5.17810231302433265910 -0.09197010902857183368 -2.63503621102645180230 -5.17810231302433265910 -5.17810231302433265910 -0.09197010902857183368 -7.72116841502221351590 -7.72116841502221351590 -7.72116841502221351590 -5.17810231302433265910 -2.63503621102645180230 -2.63503621102645180230 -2.63503621102645180230 -2.63503621102645180230 -7.72116841502221351590 -5.17810231302433265910 -2.63503621102645180230 2.45109599296930902312 -0.09197010902857183368 -7.72116841502221351590 -7.72116841502221351590 -7.72116841502221351590 -2.63503621102645180230 -0.09197010902857183368 -2.63503621102645180230 -0.09197010902857183368 -5.17810231302433265910 -7.72116841502221351590 -2.63503621102645180230 -0.09197010902857183368 -7.72116841502221351590 -2.63503621102645180230 -2.63503621102645180230 -2.63503621102645180230 -2.63503621102645180230 -0.09197010902857183368 -2.63503621102645180230 -2.63503621102645180230 -2.63503621102645180230 -0.09197010902857183368 -2.63503621102645180230 -0.09197010902857183368 -0.09197010902857183368 -5.17810231302433265910 -2.63503621102645180230 -0.09197010902857183368 -0.09197010902857183368 -7.72116841502221351590 -5.17810231302433265910 -0.09197010902857183368 -5.17810231302433265910 -2.63503621102645180230 -0.09197010902857183368 -5.17810231302433265910 -2.63503621102645180230 -2.63503621102645180230 -5.17810231302433265910 -7.72116841502221351590 -0.09197010902857183368 -2.63503621102645180230 -5.17810231302433265910 -2.63503621102645180230 -5.17810231302433265910 -2.63503621102645180230 -5.17810231302433265910 -7.72116841502221351590 -7.72116841502221351590 -7.72116841502221351590 -5.17810231302433265910 -7.72116841502221351590 -10.26423451702009437270 -12.80730061901797611768 -7.72116841502221351590 -7.72116841502221351590 -5.17810231302433265910 -5.17810231302433265910 -7.72116841502221351590 -7.72116841502221351590 -7.72116841502221351590 -10.26423451702009437270 -10.26423451702009437270 -5.17810231302433265910 -7.72116841502221351590 -7.72116841502221351590 -15.35036672101585608630 -7.72116841502221351590 -10.26423451702009437270 -7.72116841502221351590 -5.17810231302433265910 -7.72116841502221351590 -10.26423451702009437270 -7.72116841502221351590 -5.17810231302433265910 -5.17810231302433265910 -2.63503621102645180230 -10.26423451702009437270 -7.72116841502221351590 -5.17810231302433265910 -7.72116841502221351590 -7.72116841502221351590 -7.72116841502221351590 -2.63503621102645180230 -2.63503621102645180230 -2.63503621102645180230 -7.72116841502221351590 -2.63503621102645180230 -7.72116841502221351590 -2.63503621102645180230 -2.63503621102645180230 -5.17810231302433265910 -5.17810231302433265910 -2.63503621102645180230 -5.17810231302433265910 -2.63503621102645180230 -2.63503621102645180230 -2.63503621102645180230 -5.17810231302433265910 -2.63503621102645180230 -5.17810231302433265910 -5.17810231302433265910 -2.63503621102645180230 -0.09197010902857183368 -5.17810231302433265910 -5.17810231302433265910 -0.09197010902857183368 -2.63503621102645180230 -0.09197010902857183368 -2.63503621102645180230 -2.63503621102645180230 -2.63503621102645180230 -2.63503621102645180230 -2.63503621102645180230 -0.09197010902857183368 -5.17810231302433265910 -2.63503621102645180230 -5.17810231302433265910 -5.17810231302433265910 -5.17810231302433265910 -2.63503621102645180230 -2.63503621102645180230 -2.63503621102645180230 -2.63503621102645180230 -2.63503621102645180230 -10.26423451702009437270 -7.72116841502221351590 -2.63503621102645180230 -7.72116841502221351590 -7.72116841502221351590 -2.63503621102645180230 -5.17810231302433265910 -2.63503621102645180230 -2.63503621102645180230 -0.09197010902857183368 -0.09197010902857183368 -0.09197010902857183368 -5.17810231302433265910 -5.17810231302433265910 -7.72116841502221351590 -7.72116841502221351590 -2.63503621102645180230 -7.72116841502221351590 -5.17810231302433265910 -0.09197010902857183368 -5.17810231302433265910 -7.72116841502221351590 -5.17810231302433265910 4.99416209496718899175 -5.17810231302433265910 -2.63503621102645180230 -5.17810231302433265910 -7.72116841502221351590 -2.63503621102645180230 -5.17810231302433265910 -5.17810231302433265910 -5.17810231302433265910 -0.09197010902857183368 -10.26423451702009437270 -5.17810231302433265910 -7.72116841502221351590 -5.17810231302433265910 -7.72116841502221351590 -7.72116841502221351590 -5.17810231302433265910 -7.72116841502221351590 -7.72116841502221351590 -5.17810231302433265910 -5.17810231302433265910 -2.63503621102645180230 -5.17810231302433265910 -5.17810231302433265910 -2.63503621102645180230 -7.72116841502221351590 -2.63503621102645180230 -0.09197010902857183368 -7.72116841502221351590 2.45109599296930902312 -5.17810231302433265910 -7.72116841502221351590 -2.63503621102645180230 -0.09197010902857183368 -5.17810231302433265910 -0.09197010902857183368 2.45109599296930902312 -5.17810231302433265910 -2.63503621102645180230 -2.63503621102645180230 -5.17810231302433265910 -0.09197010902857183368 -7.72116841502221351590 -2.63503621102645180230 -2.63503621102645180230 -5.17810231302433265910 -2.63503621102645180230 -7.72116841502221351590 -2.63503621102645180230 2.45109599296930902312 -5.17810231302433265910 -5.17810231302433265910 -2.63503621102645180230 -10.26423451702009437270 -2.63503621102645180230 -5.17810231302433265910 -2.63503621102645180230 -2.63503621102645180230 -2.63503621102645180230 -0.09197010902857183368 -5.17810231302433265910 -0.09197010902857183368 -5.17810231302433265910 -2.63503621102645180230 -0.09197010902857183368 -2.63503621102645180230 -2.63503621102645180230 -2.63503621102645180230 -5.17810231302433265910 -5.17810231302433265910 -2.63503621102645180230 -2.63503621102645180230 -2.63503621102645180230 -7.72116841502221351590 -7.72116841502221351590 -7.72116841502221351590 -5.17810231302433265910 -2.63503621102645180230 -0.09197010902857183368 -2.63503621102645180230 -7.72116841502221351590 -5.17810231302433265910 -5.17810231302433265910 -0.09197010902857183368 -2.63503621102645180230 -7.72116841502221351590 -7.72116841502221351590 -5.17810231302433265910 -5.17810231302433265910 -7.72116841502221351590 -7.72116841502221351590 -2.63503621102645180230 -2.63503621102645180230 -0.09197010902857183368 -5.17810231302433265910 -7.72116841502221351590 -5.17810231302433265910 -0.09197010902857183368 -2.63503621102645180230 -5.17810231302433265910 -2.63503621102645180230 -7.72116841502221351590 -5.17810231302433265910 -7.72116841502221351590 -5.17810231302433265910 -2.63503621102645180230 -2.63503621102645180230 -5.17810231302433265910 -5.17810231302433265910 -7.72116841502221351590 -5.17810231302433265910 2.45109599296930902312 -2.63503621102645180230 -2.63503621102645180230 -7.72116841502221351590 -5.17810231302433265910 -7.72116841502221351590 -7.72116841502221351590 -2.63503621102645180230 2.45109599296930902312 -0.09197010902857183368 -7.72116841502221351590 -2.63503621102645180230 -0.09197010902857183368 -7.72116841502221351590 -2.63503621102645180230 -0.09197010902857183368 -5.17810231302433265910 -2.63503621102645180230 -2.63503621102645180230 -2.63503621102645180230 -0.09197010902857183368 -0.09197010902857183368 2.45109599296930902312 -5.17810231302433265910 -2.63503621102645180230 -0.09197010902857183368 -5.17810231302433265910 -2.63503621102645180230 -2.63503621102645180230 -0.09197010902857183368 -0.09197010902857183368 -5.17810231302433265910 -2.63503621102645180230 -5.17810231302433265910 -7.72116841502221351590 -5.17810231302433265910 -0.09197010902857183368 2.45109599296930902312 -2.63503621102645180230 -5.17810231302433265910 -5.17810231302433265910 -5.17810231302433265910 -5.17810231302433265910 -7.72116841502221351590 -2.63503621102645180230 -0.09197010902857183368 -5.17810231302433265910 -7.72116841502221351590 -7.72116841502221351590 -7.72116841502221351590 -5.17810231302433265910 -7.72116841502221351590 -2.63503621102645180230 -5.17810231302433265910 -10.26423451702009437270 -5.17810231302433265910 -7.72116841502221351590 -7.72116841502221351590 -5.17810231302433265910 -0.09197010902857183368 -2.63503621102645180230 -2.63503621102645180230 -7.72116841502221351590 -5.17810231302433265910 -5.17810231302433265910 -2.63503621102645180230 -5.17810231302433265910 -5.17810231302433265910 -5.17810231302433265910 -7.72116841502221351590 -7.72116841502221351590 -5.17810231302433265910 -5.17810231302433265910 -7.72116841502221351590 -2.63503621102645180230 -5.17810231302433265910 -2.63503621102645180230 -5.17810231302433265910 -2.63503621102645180230 -2.63503621102645180230 -7.72116841502221351590 -5.17810231302433265910 -7.72116841502221351590 -7.72116841502221351590 -5.17810231302433265910 -5.17810231302433265910 -5.17810231302433265910 -7.72116841502221351590 -7.72116841502221351590 -7.72116841502221351590 -0.09197010902857183368 -5.17810231302433265910 -7.72116841502221351590 -5.17810231302433265910 -7.72116841502221351590 -5.17810231302433265910 -7.72116841502221351590 -5.17810231302433265910 -2.63503621102645180230 -7.72116841502221351590 -5.17810231302433265910 -5.17810231302433265910 -7.72116841502221351590 -2.63503621102645180230 -2.63503621102645180230 -7.72116841502221351590 -2.63503621102645180230 -5.17810231302433265910 -7.72116841502221351590 -5.17810231302433265910 -5.17810231302433265910 -7.72116841502221351590 -7.72116841502221351590 -10.26423451702009437270 -12.80730061901797611768 -5.17810231302433265910 -5.17810231302433265910 -10.26423451702009437270 -5.17810231302433265910 -5.17810231302433265910 -5.17810231302433265910 -7.72116841502221351590 -7.72116841502221351590 -5.17810231302433265910 -0.09197010902857183368 -7.72116841502221351590 -5.17810231302433265910 -2.63503621102645180230 -10.26423451702009437270 -5.17810231302433265910 -2.63503621102645180230 -7.72116841502221351590 -5.17810231302433265910 -10.26423451702009437270 -10.26423451702009437270 -10.26423451702009437270 -10.26423451702009437270 -10.26423451702009437270 -7.72116841502221351590 -5.17810231302433265910 -7.72116841502221351590 -7.72116841502221351590 -10.26423451702009437270 -5.17810231302433265910 -5.17810231302433265910 -2.63503621102645180230 -5.17810231302433265910 -7.72116841502221351590 -7.72116841502221351590 -5.17810231302433265910 -2.63503621102645180230 -10.26423451702009437270 -2.63503621102645180230 -5.17810231302433265910 -2.63503621102645180230 -2.63503621102645180230 -5.17810231302433265910 -5.17810231302433265910 -2.63503621102645180230 -5.17810231302433265910 -2.63503621102645180230 -5.17810231302433265910 -2.63503621102645180230 -0.09197010902857183368 2.45109599296930902312 -2.63503621102645180230 -2.63503621102645180230 -5.17810231302433265910 -2.63503621102645180230 2.45109599296930902312 -5.17810231302433265910 -2.63503621102645180230 -5.17810231302433265910 -5.17810231302433265910 -0.09197010902857183368 2.45109599296930902312 -0.09197010902857183368 2.45109599296930902312 2.45109599296930902312 -0.09197010902857183368 -0.09197010902857183368 2.45109599296930902312 -0.09197010902857183368 7.53722819696506984855 -0.09197010902857183368 -0.09197010902857183368 -2.63503621102645180230 -2.63503621102645180230 -5.17810231302433265910 4.99416209496718899175 -0.09197010902857183368 -0.09197010902857183368 -0.09197010902857183368 -0.09197010902857183368 -0.09197010902857183368 -2.63503621102645180230 2.45109599296930902312 -0.09197010902857183368 -0.09197010902857183368 -7.72116841502221351590 -2.63503621102645180230 -5.17810231302433265910 2.45109599296930902312 -0.09197010902857183368 -5.17810231302433265910 -5.17810231302433265910 -7.72116841502221351590 4.99416209496718899175 -2.63503621102645180230 -0.09197010902857183368 -0.09197010902857183368 -2.63503621102645180230 -5.17810231302433265910 -5.17810231302433265910 -5.17810231302433265910 -7.72116841502221351590 -2.63503621102645180230 -2.63503621102645180230 -2.63503621102645180230 -5.17810231302433265910 -7.72116841502221351590 -10.26423451702009437270 -12.80730061901797611768 -2.63503621102645180230 -2.63503621102645180230 -5.17810231302433265910 -2.63503621102645180230 -5.17810231302433265910 -5.17810231302433265910 -10.26423451702009437270 -5.17810231302433265910 -7.72116841502221351590 -5.17810231302433265910 -5.17810231302433265910 -7.72116841502221351590 -10.26423451702009437270 -5.17810231302433265910 -7.72116841502221351590 -5.17810231302433265910 -5.17810231302433265910 -7.72116841502221351590 -5.17810231302433265910 -5.17810231302433265910 -7.72116841502221351590 -7.72116841502221351590 -5.17810231302433265910 -7.72116841502221351590 -5.17810231302433265910 -5.17810231302433265910 -0.09197010902857183368 -5.17810231302433265910 -2.63503621102645180230 -5.17810231302433265910 -7.72116841502221351590 -5.17810231302433265910 -7.72116841502221351590 -7.72116841502221351590 -10.26423451702009437270 -5.17810231302433265910 -5.17810231302433265910 -7.72116841502221351590 -2.63503621102645180230 -7.72116841502221351590 -12.80730061901797611768 -5.17810231302433265910 -5.17810231302433265910 -5.17810231302433265910 -7.72116841502221351590 -10.26423451702009437270 -7.72116841502221351590 -10.26423451702009437270 -7.72116841502221351590 -5.17810231302433265910 -5.17810231302433265910 -5.17810231302433265910 -5.17810231302433265910 -7.72116841502221351590 -5.17810231302433265910 -2.63503621102645180230 -2.63503621102645180230 -2.63503621102645180230 -2.63503621102645180230 -10.26423451702009437270 -7.72116841502221351590 -7.72116841502221351590 -0.09197010902857183368 -5.17810231302433265910 -2.63503621102645180230 -0.09197010902857183368 -5.17810231302433265910 -5.17810231302433265910 -5.17810231302433265910 2.45109599296930902312 -0.09197010902857183368 -0.09197010902857183368 -5.17810231302433265910 -2.63503621102645180230 -5.17810231302433265910 -2.63503621102645180230 2.45109599296930902312 -2.63503621102645180230 -5.17810231302433265910 -5.17810231302433265910 -5.17810231302433265910 -7.72116841502221351590 -0.09197010902857183368 2.45109599296930902312 -2.63503621102645180230 -2.63503621102645180230 -0.09197010902857183368 -0.09197010902857183368 -7.72116841502221351590 -2.63503621102645180230 -5.17810231302433265910 -5.17810231302433265910 -5.17810231302433265910 -5.17810231302433265910 -0.09197010902857183368 -2.63503621102645180230 -5.17810231302433265910 -2.63503621102645180230 -2.63503621102645180230 -7.72116841502221351590 -0.09197010902857183368 -0.09197010902857183368 -2.63503621102645180230 -7.72116841502221351590 -7.72116841502221351590 -0.09197010902857183368 -2.63503621102645180230 -2.63503621102645180230 -5.17810231302433265910 -2.63503621102645180230 -7.72116841502221351590 -2.63503621102645180230 -0.09197010902857183368 -2.63503621102645180230 -5.17810231302433265910 -0.09197010902857183368 -2.63503621102645180230 -10.26423451702009437270 -5.17810231302433265910 -5.17810231302433265910 -2.63503621102645180230 -0.09197010902857183368 -2.63503621102645180230 -5.17810231302433265910 -2.63503621102645180230 -2.63503621102645180230 -5.17810231302433265910 -5.17810231302433265910 -0.09197010902857183368 -5.17810231302433265910 -2.63503621102645180230 -2.63503621102645180230 -7.72116841502221351590 2.45109599296930902312 -2.63503621102645180230 -5.17810231302433265910 -5.17810231302433265910 -0.09197010902857183368 -2.63503621102645180230 2.45109599296930902312 -2.63503621102645180230 -7.72116841502221351590 -2.63503621102645180230 -2.63503621102645180230 -7.72116841502221351590 -0.09197010902857183368 -5.17810231302433265910 -2.63503621102645180230 -2.63503621102645180230 -5.17810231302433265910 -5.17810231302433265910 -0.09197010902857183368 -2.63503621102645180230 -0.09197010902857183368 2.45109599296930902312 -2.63503621102645180230 2.45109599296930902312 2.45109599296930902312 -2.63503621102645180230 -2.63503621102645180230 -2.63503621102645180230 4.99416209496718899175 2.45109599296930902312 -0.09197010902857183368 2.45109599296930902312 -2.63503621102645180230 -2.63503621102645180230 -2.63503621102645180230 -2.63503621102645180230 -2.63503621102645180230 -2.63503621102645180230 -5.17810231302433265910 2.45109599296930902312 -2.63503621102645180230 -0.09197010902857183368 -2.63503621102645180230 7.53722819696506984855 4.99416209496718899175 2.45109599296930902312 -0.09197010902857183368 -0.09197010902857183368 2.45109599296930902312 4.99416209496718899175 2.45109599296930902312 2.45109599296930902312 2.45109599296930902312 -0.09197010902857183368 