8.109643 8.209169 8.304150 8.394646 8.480718 8.562427 8.639832 8.712995 8.781975 8.846833 8.907630 8.964427 9.017283 9.066258 9.111415 9.152812 9.190511 9.224572 9.255055 9.282021 9.305530 9.325644 9.342421 9.355923 9.366211 9.373343 9.377383 9.378388 9.376421 9.371541 9.363809 9.353286 9.340032 9.324107 9.305572 9.284487 9.260913 9.234910 9.206539 9.175860 9.142934 9.107820 9.070581 9.031275 8.989964 8.946708 8.901568 8.854603 8.805874 8.755443 8.703369 8.649712 8.594534 8.537895 8.479854 8.420474 8.359813 8.297933 8.234894 8.170757 8.105581 8.039428 7.972358 7.904432 7.835709 7.766250 7.696116 7.625368 7.554065 7.482268 7.410038 7.337435 7.264519 7.191352 7.117993 7.044503 6.970942 6.897372 6.823851 6.750442 6.677204 6.604189 6.531423 6.458923 6.386709 6.314797 6.243208 6.171959 6.101068 6.030550 5.960409 5.890643 5.821253 5.752238 5.683598 5.615333 5.547443 5.479927 5.412786 5.346019 5.279625 5.213606 5.147960 5.082687 5.017788 4.953262 4.889108 4.825327 4.761919 4.698883 4.636218 4.573926 4.512005 4.450456 4.389278 4.328471 4.268035 4.207970 4.148275 4.088951 4.029996 3.971412 3.913197 3.855352 3.797876 3.740769 3.684032 3.627663 3.571662 3.516030 3.460767 3.405871 3.351343 3.297183 3.243390 3.189964 3.136905 3.084213 3.031888 2.979930 2.928337 2.877111 2.826250 2.775756 2.725627 2.675863 2.626464 2.577430 2.528761 2.480456 2.432516 2.384940 2.337728 2.290879 2.244395 2.198273 2.152515 2.107120 2.062088 2.017418 1.973111 1.929166 1.885583 1.842361 1.799502 1.757004 1.714867 1.673091 1.631677 1.590623 1.549929 1.509596 1.469623 1.430009 1.390756 1.351862 1.313328 1.275152 1.237336 1.199878 1.162779 1.126038 1.089656 1.053631 1.017965 0.982656 0.947704 0.913110 0.878873 0.844992 0.811468 0.778301 0.745490 0.713035 0.680936 0.649193 0.617805 0.586772 0.556095 0.525773 0.495805 0.466192 0.436933 0.408028 0.379478 0.351281 0.323438 0.295948 0.268811 0.242027 0.215597 0.189518 0.163793 0.138419 0.113398 0.088728 0.064410 0.040443 0.016828 -0.006436 -0.029349 -0.051912 -0.074124 -0.095985 -0.117497 -0.138658 -0.159470 -0.179932 -0.200045 -0.219809 -0.239224 -0.258290 -0.277007 -0.295376 -0.313397 -0.331070 -0.348395 -0.365372 -0.382002 -0.398285 -0.414220 -0.429809 -0.445051 -0.459947 -0.474496 -0.488699 -0.502557 -0.516068 -0.529234 -0.542055 -0.554531 -0.566661 -0.578447 -0.589888 -0.600985 -0.611738 -0.622147 -0.632212 -0.641934 -0.651312 -0.660347 -0.669038 -0.677387 -0.685394 -0.693058 -0.700379 -0.707359 -0.713997 -0.720293 -0.726247 -0.731861 -0.737133 -0.742064 -0.746655 -0.750905 -0.754815 -0.758384 -0.761614 -0.764504 -0.767054 -0.769265 -0.771137 -0.772670 -0.773864 -0.774719 -0.775236 -0.775415 -0.775256 -0.774759 -0.773924 -0.772753 -0.771247 -0.769406 -0.767231 -0.764723 -0.761882 -0.758711 -0.755209 -0.751377 -0.747217 -0.742729 -0.737914 -0.732773 -0.727307 -0.721516 -0.715402 -0.708965 -0.702207 -0.695128 -0.687728 -0.680010 -0.671973 -0.663619 -0.654948 -0.645962 -0.636661 -0.627046 -0.617117 -0.606877 -0.596325 -0.585463 -0.574291 -0.562810 -0.551022 -0.538926 -0.526523 -0.513814 -0.500800 -0.487482 -0.473859 -0.459934 -0.445707 -0.431177 -0.416347 -0.401217 -0.385788 -0.370059 -0.354033 -0.337710 -0.321093 -0.304185 -0.286989 -0.269509 -0.251748 -0.233709 -0.215395 -0.196810 -0.177956 -0.158836 -0.139455 -0.119815 -0.099919 -0.079770 -0.059372 -0.038728 -0.017842 0.003285 0.024648 0.046245 0.068071 0.090125 0.112403 0.134901 0.157621 0.180560 0.203717 0.227093 0.250685 0.274494 0.298519 0.322758 0.347211 0.371877 0.396756 0.421845 0.447146 0.472656 0.498376 0.524303 0.550438 0.576780 0.603327 0.630079 0.657035 0.684195 0.711557 0.739121 0.766886 0.794851 0.823015 0.851378 0.879938 0.908695 0.937648 0.966797 0.996139 1.025676 1.055405 1.085326 1.115438 1.145741 1.176233 1.206913 1.237782 1.268838 1.300080 1.331507 1.363119 1.394915 1.426894 1.459056 1.491398 1.523921 1.556624 1.589506 1.622566 1.655804 1.689218 1.722808 1.756572 1.790511 1.824623 1.858907 1.893363 1.927990 1.962787 1.997753 2.032887 2.068189 2.103657 2.139291 2.175090 2.211052 2.247178 2.283467 2.319916 2.356527 2.393297 2.430226 2.467313 2.504558 2.541958 2.579515 2.617226 2.655090 2.693108 2.731278 2.769599 2.808071 2.846692 2.885462 2.924380 2.963445 3.002657 3.042013 3.081514 3.121159 3.160946 3.200876 3.240946 3.281157 3.321508 3.361996 3.402623 3.443386 3.484286 3.525321 3.566490 3.607792 3.649227 3.690794 3.732492 3.774320 3.816277 3.858362 3.900575 3.942915 3.985381 4.027971 4.070686 4.113524 4.156484 4.199566 4.242769 4.286092 4.329534 4.373094 4.416771 4.460565 4.504475 4.548499 4.592637 4.636889 4.681252 4.725728 4.770313 4.815009 4.859813 4.904725 4.949745 4.994871 5.040102 5.085438 5.130878 5.176420 5.222065 5.267811 5.313658 5.359590 5.405254 5.449939 5.492919 5.533469 5.570920 5.605060 5.635891 5.663413 5.687629 5.708540 5.726149 5.740456 5.751464 5.759174 5.763588 5.764708 5.762536 5.757073 5.748321 5.736281 5.720957 5.702349 5.680458 5.655288 5.626839 5.595114 5.560113 5.521840 5.480295 5.435480 5.387398 5.336049 5.281436 5.223560 5.162458 5.098298 5.031275 4.961590 4.889438 4.815018 4.738528 4.660166 4.580128 4.498613 4.415819 4.331943 4.247183 4.161736 4.075801 3.989575 3.903256 3.817042 3.731130 3.645718 3.560985 3.477018 3.393874 3.311609 3.230281 3.149947 3.070663 2.992487 2.915476 2.839686 2.765175 2.691999 2.620216 2.549882 2.481055 2.413792 2.348149 2.284183 2.221952 2.161513 2.102922 2.046236 1.991513 1.938810 1.888182 1.839689 1.793386 1.749329 1.707528 1.667932 1.630487 1.595139 1.561832 1.530511 1.501123 1.473613 1.447925 1.424005 1.401799 1.381251 1.362308 1.344914 1.329016 1.314564 1.301505 1.289790 1.279368 1.270188 1.262199 1.255351 1.249592 1.244873 1.241143 1.238349 1.236443 1.235373 1.235089 1.235539 1.236673 1.238440 1.240790 1.243672 1.247035 1.250828 1.255000 1.259502 1.264281 1.269288 1.274472 1.279781 1.285166 1.290575 1.295967 1.301327 1.306647 1.311918 1.317131 1.322277 1.327348 1.332334 1.337228 1.342020 1.346701 1.351263 1.355696 1.359993 1.364144 1.368141 1.371974 1.375635 1.379116 1.382406 1.385499 1.388384 1.391056 1.393519 1.395777 1.397838 1.399705 1.401386 1.402886 1.404209 1.405363 1.406351 1.407181 1.407858 1.408387 1.408774 1.409024 1.409144 1.409138 1.409013 1.408773 1.408426 1.407975 1.407428 1.406789 1.406064 1.405258 1.404379 1.403430 1.402417 1.401347 1.400225 1.399056 1.397846 1.396601 1.395326 1.394027 1.392709 1.391379 1.390041 1.388702 1.387367 1.386040 1.384728 1.383435 1.382165 1.380923 1.379714 1.378543 1.377415 1.376335 1.375306 1.374335 1.373425 1.372581 1.371801 1.371085 1.370433 1.369844 1.369319 1.368855 1.368453 1.368113 1.367834 1.367615 1.367456 1.367356 1.367313 1.367328 1.367399 1.367525 1.367706 1.367940 1.368227 1.368566 1.368956 1.369396 1.369885 1.370423 1.371008 1.371640 1.372318 1.373040 1.373807 1.374617 1.375469 1.376362 1.377296 1.378270 1.379282 1.380333 1.381420 1.382544 1.383703 1.384897 1.386124 1.387384 1.388675 1.389998 1.391351 1.392733 1.394143 1.395581 1.397046 1.398536 1.400051 1.401590 1.403153 1.404737 1.406344 1.407970 1.409616 1.411282 1.412965 1.414665 1.416381 1.418113 1.419859 1.421618 1.423391 1.425175 1.426970 1.428775 1.430590 1.432413 1.434243 1.436080 1.437923 1.439770 1.441622 1.443477 1.445334 1.447192 1.449051 1.450910 1.452767 1.454622 1.456475 1.458324 1.460169 1.462011 1.463848 1.465681 1.467509 1.469332 1.471150 1.472963 1.474770 1.476570 1.478365 1.480152 1.481933 1.483707 1.485474 1.487233 1.488984 1.490726 1.492461 1.494186 1.495903 1.497611 1.499309 1.500997 1.502678 1.504351 1.506018 1.507681 1.509340 1.510996 1.512652 1.514307 1.515964 1.517622 1.519285 1.520952 1.522625 1.524305 1.525994 1.527692 1.529400 1.531120 1.532854 1.534601 1.536364 1.538144 1.539941 1.541757 1.543593 1.545451 1.547331 1.549235 1.551164 1.553120 1.555103 1.557115 1.559158 1.561231 1.563338 1.565479 1.567655 1.569868 1.572118 1.574408 1.576738 1.579110 1.581525 1.583985 1.586490 1.589041 1.591641 1.594290 1.596990 1.599742 1.602547 1.605406 1.608321 1.611294 1.614324 1.617415 1.620566 1.623779 1.627056 1.630397 1.633805 1.637279 1.640823 1.644436 1.648120 1.651876 1.655707 1.659612 1.663593 1.667652 1.671789 1.676007 1.680306 1.684687 1.689153 1.693703 1.698340 1.703065 1.707878 1.712782 1.717778 1.722866 1.728048 1.733326 1.738700 1.744172 1.749744 1.755415 1.761181 1.767034 1.772964 1.778964 1.785025 1.791139 1.797296 1.803489 1.809709 1.815948 1.822196 1.828446 1.834689 1.840917 1.847121 1.853293 1.859423 1.865504 1.871528 1.877485 1.883367 1.889166 1.894873 1.900480 1.905978 1.911359 1.916614 1.921741 1.926740 1.931611 1.936356 1.940976 1.945470 1.949840 1.954086 1.958210 1.962211 1.966091 1.969851 1.973490 1.977011 1.980413 1.983698 1.986866 1.989917 1.992853 1.995675 1.998382 2.000977 2.003459 2.005829 2.008088 2.010237 2.012277 2.014208 2.016030 2.017746 2.019355 2.020858 2.022256 2.023550 2.024741 2.025828 2.026814 2.027698 2.028481 2.029165 2.029749 2.030235 2.030624 2.030915 2.031111 2.031211 2.031216 2.031128 2.030946 2.030672 2.030306 2.029849 2.029301 2.028665 2.027939 2.027126 2.026225 2.025238 2.024165 2.023007 2.021764 2.020438 2.019029 2.017538 2.015966 2.014313 2.012580 2.010769 2.008878 2.006910 2.004865 2.002744 2.000548 1.998277 1.995932 1.993513 1.991023 1.988460 1.985827 1.983123 1.980350 1.977508 1.974598 1.971620 1.968577 1.965467 1.962292 1.959053 1.955750 1.952385 1.948957 1.945468 1.941919 1.938309 1.934641 1.930914 1.927129 1.923287 1.919390 1.915436 1.911428 1.907367 1.903251 1.899084 1.894865 1.890594 1.886274 1.881904 1.877485 1.873018 1.868504 1.863943 1.859336 1.854684 1.849988 1.845249 1.840466 1.835640 1.830771 1.825858 1.820902 1.815901 1.810857 1.805768 1.800635 1.795457 1.790235 1.784968 1.779655 1.774297 1.768894 1.763445 1.757951 1.752410 1.746824 1.741191 1.735511 1.729785 1.724012 1.718192 1.712325 1.706410 1.700448 1.694438 1.688380 1.682275 1.676121 1.669918 1.663667 1.657367 1.651019 1.644621 1.638174 1.631678 1.625131 1.618536 1.611890 1.605194 1.598447 1.591651 1.584803 1.577905 1.570956 1.563955 1.556903 1.549800 1.542645 1.535438 1.528179 1.520868 1.513504 1.506088 1.498619 1.491097 1.483522 1.475894 1.468212 1.460477 1.452688 1.444845 1.436948 1.428996 1.420990 1.412930 1.404814 1.396644 1.388418 1.380137 1.371800 1.363408 1.354960 1.346456 1.337896 1.329279 1.320605 1.311875 1.303088 1.294244 1.285343 1.276384 1.267368 1.258293 1.249161 1.239971 1.230722 1.221415 1.212050 1.202625 1.193141 1.183599 1.173997 1.164335 1.154614 1.144832 1.134991 1.125090 1.115128 1.105105 1.095022 1.084878 1.074670 1.064398 1.054059 1.043652 1.033176 1.022628 1.012007 1.001312 0.990540 0.979690 0.968760 0.957749 0.946656 0.935477 0.924212 0.912859 0.901417 0.889883 0.878257 0.866536 0.854720 0.842808 0.830797 0.818688 0.806478 0.794166 0.781751 0.769232 0.756608 0.743876 0.731037 0.718088 0.705028 0.691856 0.678571 0.665172 0.651656 0.638023 0.624272 0.610402 0.596410 0.582296 0.568058 0.553696 0.539207 0.524592 0.509849 0.494979 0.479984 0.464865 0.449622 0.434256 0.418769 0.403161 0.387433 0.371586 0.355621 0.339538 0.323340 0.307026 0.290598 0.274056 0.257401 0.240635 0.223759 0.206772 0.189677 0.172473 0.155163 0.137746 0.120224 0.102598 0.084869 0.067037 0.049103 0.031069 0.012935 -0.005298 -0.023628 -0.042056 -0.060579 -0.079198 -0.097911 -0.116717 -0.135616 -0.154606 -0.173686 -0.192856 -0.212115 -0.231462 -0.250895 -0.270415 -0.290019 -0.309708 -0.329480 -0.349334 -0.369269 -0.389285 -0.409380 -0.429554 -0.449806 -0.470134 -0.490538 -0.511017 -0.531570 -0.552197 -0.572895 -0.593665 -0.614505 -0.635414 -0.656392 -0.677433 -0.698532 -0.719683 -0.740879 -0.762115 -0.783385 -0.804681 -0.825999 -0.847332 -0.868674 -0.890018 -0.911360 -0.932692 -0.954010 -0.975305 -0.996574 -1.017810 -1.039007 -1.060161 -1.081266 -1.102316 -1.123306 -1.144231 -1.165084 -1.185860 -1.206555 -1.227162 -1.247676 -1.268091 -1.288403 -1.308605 -1.328692 -1.348658 -1.368498 -1.388207 -1.407779 -1.427208 -1.446490 -1.465618 -1.484587 -1.503392 -1.522027 -1.540486 -1.558765 -1.576857 -1.594758 -1.612461 -1.629961 -1.647253 -1.664331 -1.681190 -1.697824 -1.714228 -1.730396 -1.746323 -1.762003 -1.777431 -1.792602 -1.807509 -1.822147 -1.836512 -1.850596 -1.864396 -1.877905 -1.891117 -1.904028 -1.916633 -1.928924 -1.940898 -1.952547 -1.963868 -1.974855 -1.985501 -1.995802 -2.005752 -2.015345 -2.024576 -2.033440 -2.041931 -2.050044 -2.057773 -2.065112 -2.072056 -2.078600 -2.084738 -2.090465 -2.095775 -2.100663 -2.105122 -2.109149 -2.112737 -2.115880 -2.118574 -2.120812 -2.122590 -2.123901 -2.124741 -2.125103 -2.124983 -2.124375 -2.123273 -2.121671 -2.119565 -2.116949 -2.113818 -2.110165 -2.105986 -2.101274 -2.096025 -2.090233 -2.083893 -2.076998 -2.069544 -2.061525 -2.052935 -2.043769 -2.034022 -2.023688 -2.012762 -2.001237 -1.989109 -1.976372 -1.963021 -1.949050 -1.934457 -1.919252 -1.903447 -1.887055 -1.870088 -1.852558 -1.834477 -1.815859 -1.796714 -1.777055 -1.756896 -1.736247 -1.715122 -1.693533 -1.671504 -1.649062 -1.626234 -1.603046 -1.579524 -1.555697 -1.531590 -1.507231 -1.482646 -1.457862 -1.432906 -1.407805 -1.382585 -1.357274 -1.331897 -1.306482 -1.281041 -1.255576 -1.230089 -1.204581 -1.179054 -1.153510 -1.127949 -1.102374 -1.076786 -1.051187 -1.025578 -0.999960 -0.974336 -0.948707 -0.923074 -0.897439 -0.871803 -0.846169 -0.820537 -0.794910 -0.769288 -0.743673 -0.718068 -0.692473 -0.666889 -0.641319 -0.615765 -0.590227 -0.564713 -0.539234 -0.513801 -0.488426 -0.463120 -0.437895 -0.412761 -0.387730 -0.362814 -0.338024 -0.313371 -0.288867 -0.264522 -0.240349 -0.216358 -0.192562 -0.168971 -0.145596 -0.122449 -0.099542 -0.076886 -0.054492 -0.032371 -0.010535 0.011005 0.032238 0.053151 0.073734 0.093975 0.113861 0.133381 0.152523 0.171275 0.189625 0.207560 0.225071 0.242143 0.258765 0.274926 0.290614 0.305815 0.320520 0.334715 0.348389 0.361529 0.374125 0.386163 0.397633 0.408521 0.418817 0.428508 0.437583 0.446028 0.453834 0.460987 0.467475 0.473287 0.478411 0.482835 0.486546 0.489534 0.491786 0.493290 0.494034 0.494006 0.493195 0.491588 0.489175 0.485944 0.481886 0.476989 0.471244 0.464640 0.457166 0.448813 0.439585 0.429501 0.418583 0.406850 0.394323 0.381021 0.366966 0.352177 0.336675 0.320480 0.303612 0.286092 0.267940 0.249176 0.229820 0.209893 0.189416 0.168408 0.146889 0.124880 0.102402 0.079474 0.056117 0.032351 0.008197 -0.016326 -0.041197 -0.066395 -0.091901 -0.117694 -0.143754 -0.170061 -0.196593 -0.223332 -0.250256 -0.277346 -0.304581 -0.331941 -0.359405 -0.386954 -0.414566 -0.442222 -0.469901 -0.497584 -0.525249 -0.552877 -0.580447 -0.607945 -0.635366 -0.662700 -0.689942 -0.717085 -0.744121 -0.771044 -0.797846 -0.824521 -0.851061 -0.877460 -0.903710 -0.929804 -0.955736 -0.981498 -1.007084 -1.032486 -1.057698 -1.082712 -1.107521 -1.132119 -1.156498 -1.180652 -1.204573 -1.228254 -1.251688 -1.274869 -1.297789 -1.320442 -1.342820 -1.364916 -1.386723 -1.408235 -1.429444 -1.450343 -1.470926 -1.491185 -1.511113 -1.530703 -1.549949 -1.568842 -1.587377 -1.605546 -1.623343 -1.640759 -1.657789 -1.674425 -1.690660 -1.706487 -1.721899 -1.736890 -1.751451 -1.765577 -1.779260 -1.792493 -1.805269 -1.817581 -1.829422 -1.840785 -1.851664 -1.862050 -1.871937 -1.881319 -1.890187 -1.898536 -1.906358 -1.913645 -1.920392 -1.926590 -1.932234 -1.937315 -1.941828 -1.945764 -1.949118 -1.951881 -1.954047 -1.955610 -1.956564 -1.956906 -1.956633 -1.955739 -1.954222 -1.952078 -1.949302 -1.945892 -1.941842 -1.937150 -1.931811 -1.925821 -1.919178 -1.911876 -1.903912 -1.895283 -1.885984 -1.876012 -1.865363 -1.854032 -1.842017 -1.829313 -1.815916 -1.801823 -1.787030 -1.771532 -1.755327 -1.738410 -1.720778 -1.702426 -1.683351 -1.663549 -1.643016 -1.621749 -1.599743 -1.576994 -1.553500 -1.529255 -1.504256 -1.478500 -1.451982 -1.424699 -1.396647 -1.367822 -1.338220 -1.307837 -1.276670 -1.244714 -1.211966 -1.178423 -1.144079 -1.108932 -1.072977 -1.036211 -0.998630 -0.960229 -0.921006 -0.880957 -0.840076 -0.798362 -0.755809 -0.712415 -0.668174 -0.623084 -0.577141 -0.530340 -0.482678 -0.434151 -0.384755 -0.334487 -0.283342 -0.231317 -0.178407 -0.124610 -0.069921 -0.014337 0.042147 0.099535 0.157829 0.217035 0.277155 0.338194 0.400155 0.463042 0.526860 0.591612 0.657301 0.723932 0.791508 0.860034 0.929512 0.999948 1.071344 1.143705 1.217035 1.291336 1.366614 1.442872 1.520113 1.598342 1.677562 1.757778 1.838993 1.921210 2.004434 2.088667 2.173902 2.260128 2.347337 2.435518 2.524661 2.614757 2.705796 2.797768 2.890664 2.984473 3.079184 3.174786 3.271268 3.368619 3.466827 3.565880 3.665768 3.766479 3.868002 3.970325 4.073438 4.177328 4.281988 4.387415 4.493608 4.600566 4.708286 4.816768 4.926010 5.036010 5.146768 5.258281 5.370549 5.483569 5.597341 5.711862 5.827132 5.943149 6.059912 6.177418 6.295667 6.414658 6.534388 6.654856 6.776061 6.898001 7.020675 7.144082 7.268219 7.393086 7.518682 7.645003 7.772050 7.899821 8.028314 8.157528 8.287461 8.418112 8.549479 8.681561 8.814357 8.947865 9.082084 9.217008 9.352578 9.488681 9.625204 9.762034 9.899057 10.036159 10.173228 10.310150 10.446811 10.583098 10.718898 10.854097 10.988581 11.122238 11.254954 11.386616 11.517110 11.646318 11.774008 11.899826 12.023411 12.144402 12.262438 12.377159 12.488204 12.595212 12.697823 12.795675 12.888407 12.975661 13.057073 13.132284 13.200933 13.262665 13.317375 13.365308 13.406732 13.441917 13.471132 13.494645 13.512727 13.525646 13.533671 13.537072 13.536118 13.531077 13.522220 13.509815 13.494131 13.475438 13.454005 13.430101 13.403990 13.375887 13.345982 13.314462 13.281516 13.247331 13.212096 13.175998 13.139227 13.101969 13.064413 13.026747 12.989120 12.951557 12.914057 12.876620 12.839246 12.801935 12.764688 12.727503 12.690382 12.653323 12.616328 12.579395 12.542525 12.505718 12.468973 12.432291 12.395671 12.359114 12.322619 12.286187 12.249817 12.213509 12.177264 12.141080 12.104959 12.068899 12.032902 11.996966 11.961093 11.925281 11.889531 11.853842 11.818215 11.782650 11.747146 11.711704 11.676323 11.641004 11.605745 11.570548 11.535412 11.500338 11.465324 11.430371 11.395479 11.360648 11.325878 11.291169 11.256520 11.221932 11.187405 11.152938 11.118532 11.084186 11.049900 11.015675 10.981510 10.947405 10.913361 10.879376 10.845452 10.811587 10.777782 10.744038 10.710353 10.676727 10.643162 10.609656 10.576210 10.542823 10.509496 10.476228 10.443019 10.409870 10.376780 10.343749 10.310777 10.277864 10.245011 10.212216 10.179480 10.146803 10.114185 10.081625 10.049124 10.016682 9.984298 9.951973 9.919706 9.887498 9.855348 9.823256 9.791222 9.759247 9.727330 9.695470 9.663669 9.631926 9.600240 9.568612 9.537042 9.505530 9.474076 9.442679 9.411339 9.380057 9.348832 9.317665 9.286555 9.255502 9.224507 9.193568 9.162687 9.131863 9.101095 9.070385 9.039731 9.009135 8.978595 8.948111 8.917684 8.887314 8.857000 8.826743 8.796542 8.766398 8.736309 8.706277 8.676301 8.646382 8.616518 8.586710 8.556958 8.527262 8.497622 8.468038 8.438509 8.409036 8.379619 8.350257 8.320951 8.291700 8.262504 8.233364 8.204279 8.175249 8.146274 8.117355 8.088490 8.059681 8.030926 8.002226 7.973581 7.944991 7.916455 7.887974 7.859548 7.831176 7.802858 7.774595 7.746387 7.718232 7.690132 7.662086 7.634094 7.606156 7.578273 7.550443 7.522667 7.494944 7.467276 7.439661 7.412100 7.384593 7.357139 7.329739 7.302392 7.275098 7.247858 7.220671 7.193537 7.166457 7.139429 7.112455 7.085533 7.058665 7.031849 7.005086 6.978376 6.951719 6.925114 6.898561 6.872062 6.845615 6.819220 6.792877 6.766587 6.740349 6.714163 6.688030 6.661948 6.635919 6.609941 6.584015 6.558141 6.532319 6.506549 6.480830 6.455163 6.429548 6.403984 6.378471 6.353010 6.327600 6.302242 6.276934 6.251678 6.226473 6.201319 6.176216 6.151164 6.126163 6.101212 6.076313 6.051464 6.026665 6.001918 5.977220 5.952574 5.927977 5.903432 5.878936 5.854491 5.830095 5.805750 5.781455 5.757211 5.733016 5.708871 5.684775 5.660730 5.636734 5.612788 5.588892 5.565045 5.541248 5.517500 5.493802 5.470153 5.446553 5.423002 5.399501 5.376048 5.352645 5.329291 5.305986 5.282729 5.259522 5.236363 5.213253 5.190191 5.167178 5.144214 5.121298 5.098431 5.075612 5.052841 5.030119 5.007445 4.984819 4.962241 4.939711 4.917229 4.894795 4.872408 4.850070 4.827779 4.805537 4.783341 4.761193 4.739093 4.717040 4.695035 4.673077 4.651166 4.629303 4.607487 4.585718 4.563995 4.542320 4.520692 4.499111 4.477577 4.456089 4.434648 4.413254 4.391906 4.370605 4.349351 4.328143 4.306981 4.285865 4.264796 4.243773 4.222797 4.201866 4.180981 4.160143 4.139350 4.118603 4.097902 4.077247 4.056637 4.036073 4.015555 3.995082 3.974655 3.954273 3.933937 3.913645 3.893399 3.873198 3.853043 3.832932 3.812867 3.792846 3.772870 3.752939 3.733053 3.713212 3.693415 3.673663 3.653956 3.634293 3.614674 3.595100 3.575571 3.556085 3.536644 3.517247 3.497894 3.478585 3.459320 3.440099 3.420922 3.401788 3.382699 3.363653 3.344651 3.325692 3.306777 3.287906 3.269078 3.250293 3.231551 3.212853 3.194198 3.175586 3.157018 3.138492 3.120009 3.101569 3.083172 3.064818 3.046507 3.028238 3.010012 2.991829 2.973687 2.955589 2.937533 2.919519 2.901547 2.883618 2.865731 2.847886 2.830083 2.812322 2.794603 2.776926 2.759291 2.741698 2.724146 2.706636 2.689167 2.671740 2.654355 2.637011 2.619708 2.602447 2.585227 2.568048 2.550911 2.533814 2.516759 2.499744 2.482771 2.465838 2.448946 2.432095 2.415284 2.398514 2.381785 2.365097 2.348448 2.331840 2.315273 2.298746 2.282259 2.265812 2.249406 2.233039 2.216713 2.200426 2.184179 2.167972 2.151805 2.135678 2.119591 2.103543 2.087534 2.071565 2.055636 2.039746 2.023895 2.008083 1.992311 1.976578 1.960884 1.945229 1.929613 1.914036 1.898498 1.882999 1.867538 1.852116 1.836733 1.821388 1.806082 1.790815 1.775586 1.760395 1.745242 1.730128 1.715052 1.700014 1.685014 1.670053 1.655129 1.640243 1.625395 1.610585 1.595812 1.581077 1.566380 1.551721 1.537098 1.522514 1.507967 1.493457 1.478984 1.464549 1.450150 1.435789 1.421465 1.407178 1.392928 1.378715 1.364539 1.350399 1.336296 1.322230 1.308200 1.294207 1.280251 1.266331 1.252447 1.238599 1.224788 1.211013 1.197274 1.183572 1.169905 1.156274 1.142680 1.129121 1.115598 1.102110 1.088659 1.075243 1.061862 1.048517 1.035208 1.021934 1.008695 0.995492 0.982323 0.969190 0.956093 0.943030 0.930002 0.917009 0.904051 0.891128 0.878240 0.865386 0.852568 0.839783 0.827034 0.814318 0.801638 0.788991 0.776379 0.763801 0.751258 0.738749 0.726273 0.713832 0.701425 0.689051 0.676712 0.664406 0.652134 0.639896 0.627692 0.615521 0.603384 0.591280 0.579209 0.567172 0.555168 0.543198 0.531260 0.519356 0.507485 0.495647 0.483842 0.472069 0.460330 0.448623 0.436949 0.425308 0.413700 0.402124 0.390580 0.379069 0.367590 0.356144 0.344730 0.333348 0.321999 0.310681 0.299396 0.288142 0.276921 0.265731 0.254573 0.243447 0.232353 0.221290 0.210259 0.199260 0.188292 0.177355 0.166450 0.155576 0.144734 0.133922 0.123142 0.112393 0.101674 0.090987 0.080331 0.069706 0.059111 0.048547 0.038014 0.027511 0.017039 0.006598 -0.003813 -0.014193 -0.024544 -0.034864 -0.045153 -0.055413 -0.065642 -0.075841 -0.086011 -0.096150 -0.106259 -0.116339 -0.126389 -0.136409 -0.146399 -0.156360 -0.166292 -0.176193 -0.186066 -0.195909 -0.205722 -0.215507 -0.225262 -0.234988 -0.244685 -0.254352 -0.263991 -0.273601 -0.283182 -0.292734 -0.302258 -0.311753 -0.321219 -0.330656 -0.340065 -0.349446 -0.358798 -0.368122 -0.377417 -0.386684 -0.395923 -0.405134 -0.414317 -0.423472 -0.432599 -0.441698 -0.450769 -0.459812 -0.468828 -0.477816 -0.486776 -0.495708 -0.504614 -0.513491 -0.522342 -0.531165 -0.539960 -0.548729 -0.557470 -0.566184 -0.574872 -0.583532 -0.592165 -0.600771 -0.609351 -0.617904 -0.626430 -0.634929 -0.643402 -0.651848 -0.660268 -0.668661 -0.677028 -0.685369 -0.693683 -0.701971 -0.710233 -0.718469 -0.726679 -0.734863 -0.743021 -0.751153 -0.759260 -0.767340 -0.775395 -0.783425 -0.791428 -0.799407 -0.807359 -0.815287 -0.823189 -0.831066 -0.838917 -0.846743 -0.854545 -0.862321 -0.870072 -0.877798 -0.885499 -0.893176 -0.900827 -0.908454 -0.916057 -0.923634 -0.931187 -0.938716 -0.946220 -0.953700 -0.961156 -0.968587 -0.975994 -0.983377 -0.990735 -0.998070 -1.005381 -1.012668 -1.019931 -1.027170 -1.034385 -1.041577 -1.048745 -1.055889 -1.063010 -1.070108 -1.077182 -1.084233 -1.091260 -1.098264 -1.105245 -1.112203 -1.119138 -1.126049 -1.132938 -1.139804 -1.146647 -1.153467 -1.160265 -1.167040 -1.173792 -1.180522 -1.187229 -1.193913 -1.200576 -1.207216 -1.213833 -1.220429 -1.227002 -1.233553 -1.240083 -1.246590 -1.253075 -1.259538 -1.265980 -1.272400 -1.278798 -1.285174 -1.291529 -1.297862 -1.304174 -1.310464 -1.316733 -1.322981 -1.329208 -1.335413 -1.341597 -1.347760 -1.353902 -1.360023 -1.366123 -1.372202 -1.378261 -1.384299 -1.390316 -1.396312 -1.402288 -1.408243 -1.414178 -1.420092 -1.425985 -1.431859 -1.437711 -1.443544 -1.449356 -1.455148 -1.460920 -1.466671 -1.472402 -1.478113 -1.483804 -1.489475 -1.495126 -1.500757 -1.506368 -1.511959 -1.517531 -1.523082 -1.528614 -1.534126 -1.539618 -1.545090 -1.550543 -1.555976 -1.561390 -1.566784 -1.572158 -1.577514 -1.582849 -1.588166 -1.593463 -1.598740 -1.603999 -1.609238 -1.614458 -1.619659 -1.624840 -1.630003 -1.635146 -1.640271 -1.645377 -1.650463 -1.655531 -1.660580 -1.665610 -1.670621 -1.675614 -1.680587 -1.685543 -1.690479 -1.695397 -1.700296 -1.705177 -1.710040 -1.714883 -1.719709 -1.724516 -1.729305 -1.734075 -1.738827 -1.743561 -1.748277 -1.752975 -1.757654 -1.762316 -1.766959 -1.771585 -1.776192 -1.780782 -1.785353 -1.789907 -1.794443 -1.798961 -1.803462 -1.807944 -1.812409 -1.816857 -1.821287 -1.825699 -1.830094 -1.834471 -1.838831 -1.843174 -1.847499 -1.851807 -1.856097 -1.860370 -1.864626 -1.868865 -1.873087 -1.877292 -1.881479 -1.885650 -1.889803 -1.893940 -1.898060 -1.902162 -1.906248 -1.910318 -1.914370 -1.918406 -1.922425 -1.926427 -1.930413 -1.934382 -1.938334 -1.942270 -1.946190 -1.950093 -1.953980 -1.957850 -1.961704 -1.965542 -1.969364 -1.973169 -1.976959 -1.980732 -1.984489 -1.988230 -1.991954 -1.995663 -1.999356 -2.003034 -2.006695 -2.010340 -2.013970 -2.017584 -2.021182 -2.024764 -2.028331 -2.031882 -2.035418 -2.038938 -2.042443 -2.045932 -2.049405 -2.052864 -2.056307 -2.059735 -2.063147 -2.066544 -2.069926 -2.073293 -2.076645 -2.079981 -2.083303 -2.086610 -2.089901 -2.093178 -2.096440 -2.099687 -2.102919 -2.106136 -2.109339 -2.112526 -2.115700 -2.118858 -2.122002 -2.125132 -2.128246 -2.131347 -2.134433 -2.137504 -2.140562 -2.143604 -2.146633 -2.149647 -2.152647 -2.155633 -2.158605 -2.161563 -2.164506 -2.167436 -2.170351 -2.173253 -2.176140 -2.179014 -2.181874 -2.184720 -2.187552 -2.190371 -2.193176 -2.195967 -2.198745 -2.201509 -2.204259 -2.206996 -2.209720 -2.212430 -2.215126 -2.217809 -2.220479 -2.223136 -2.225779 -2.228410 -2.231027 -2.233631 -2.236221 -2.238799 -2.241364 -2.243916 -2.246454 -2.248980 -2.251493 -2.253993 -2.256481 -2.258955 -2.261417 -2.263866 -2.266303 -2.268727 -2.271138 -2.273537 -2.275923 -2.278297 -2.280658 -2.283007 -2.285344 -2.287668 -2.289980 -2.292280 -2.294567 -2.296843 -2.299106 -2.301357 -2.303597 -2.305824 -2.308039 -2.310242 -2.312433 -2.314613 -2.316781 -2.318936 -2.321081 -2.323213 -2.325334 -2.327443 -2.329540 -2.331626 -2.333700 -2.335763 -2.337815 -2.339855 -2.341883 -2.343900 -2.345906 -2.347901 -2.349885 -2.351857 -2.353818 -2.355768 -2.357707 -2.359635 -2.361552 -2.363458 -2.365353 -2.367237 -2.369110 -2.370972 -2.372824 -2.374665 -2.376495 -2.378314 -2.380123 -2.381922 -2.383709 -2.385487 -2.387253 -2.389010 -2.390755 -2.392491 -2.394216 -2.395931 -2.397636 -2.399330 -2.401014 -2.402688 -2.404352 -2.406006 -2.407650 -2.409284 -2.410908 -2.412522 -2.414126 -2.415720 -2.417304 -2.418879 -2.420444 -2.421999 -2.423545 -2.425081 -2.426607 -2.428124 -2.429631 -2.431129 -2.432618 -2.434097 -2.435566 -2.437027 -2.438478 -2.439920 -2.441352 -2.442776 -2.444190 -2.445595 -2.446991 -2.448378 -2.449756 -2.451126 -2.452486 -2.453837 -2.455180 -2.456513 -2.457838 -2.459155 -2.460462 -2.461761 -2.463052 -2.464333 -2.465607 -2.466871 -2.468127 -2.469375 -2.470615 -2.471846 -2.473069 -2.474283 -2.475489 -2.476687 -2.477877 -2.479059 -2.480233 -2.481398 -2.482556 -2.483706 -2.484847 -2.485981 -2.487107 -2.488225 -2.489335 -2.490438 -2.491533 -2.492620 -2.493700 -2.494772 -2.495836 -2.496893 -2.497942 -2.498984 -2.500019 -2.501046 -2.502065 -2.503078 -2.504083 -2.505081 -2.506072 -2.507056 -2.508032 -2.509002 -2.509964 -2.510919 -2.511868 -2.512809 -2.513744 -2.514672 -2.515593 -2.516507 -2.517414 -2.518315 -2.519209 -2.520096 -2.520977 -2.521851 -2.522719 -2.523580 -2.524435 -2.525284 -2.526126 -2.526962 -2.527791 -2.528614 -2.529431 -2.530242 -2.531047 -2.531845 -2.532638 -2.533424 -2.534205 -2.534979 -2.535748 -2.536510 -2.537267 -2.538018 -2.538763 -2.539503 -2.540237 -2.540965 -2.541688 -2.542405 -2.543116 -2.543822 -2.544522 -2.545217 -2.545907 -2.546591 -2.547270 -2.547944 -2.548612 -2.549276 -2.549934 -2.550587 -2.551235 -2.551877 -2.552515 -2.553148 -2.553776 -2.554399 -2.555017 -2.555630 -2.556238 -2.556842 -2.557441 -2.558035 -2.558625 -2.559210 -2.559790 -2.560366 -2.560937 -2.561504 -2.562067 -2.562625 -2.563179 -2.563728 -2.564273 -2.564814 -2.565351 -2.565884 -2.566412 -2.566936 -2.567457 -2.567973 -2.568485 -2.568994 -2.569498 -2.569999 -2.570496 -2.570989 -2.571478 -2.571964 -2.572446 -2.572924 -2.573399 -2.573870 -2.574337 -2.574801 -2.575262 -2.575719 -2.576173 -2.576624 -2.577071 -2.577515 -2.577956 -2.578393 -2.578828 -2.579259 -2.579687 -2.580112 -2.580534 -2.580954 -2.581370 -2.581783 -2.582194 -2.582601 -2.583006 -2.583409 -2.583808 -2.584205 -2.584599 -2.584991 -2.585380 -2.585766 -2.586151 -2.586532 -2.586911 -2.587288 -2.587663 -2.588035 -2.588405 -2.588773 -2.589138 -2.589502 -2.589863 -2.590223 -2.590580 -2.590935 -2.591288 -2.591640 -2.591989 -2.592337 -2.592683 -2.593027 -2.593369 -2.593710 -2.594049 -2.594387 -2.594722 -2.595057 -2.595390 -2.595721 -2.596051 -2.596379 -2.596706 -2.597032 -2.597357 -2.597680 -2.598002 -2.598323 -2.598643 -2.598962 -2.599279 -2.599596 -2.599912 -2.600226 -2.600540 -2.600853 -2.601165 -2.601477 -2.601787 -2.602097 -2.602406 -2.602715 -2.603022 -2.603330 -2.603637 -2.603943 -2.604249 -2.604554 -2.604859 -2.605164 -2.605468 -2.605772 -2.606076 -2.606380 -2.606684 -2.606987 -2.607290 -2.607594 -2.607897 -2.608200 -2.608504 -2.608807 -2.609111 -2.609414 -2.609718 -2.610023 -2.610327 -2.610632 -2.610937 -2.611243 -2.611549 -2.611856 -2.612163 -2.612470 -2.612779 -2.613087 -2.613397 -2.613707 -2.614018 -2.614330 -2.614642 -2.614956 -2.615270 -2.615585 -2.615901 -2.616219 -2.616537 -2.616856 -2.617177 -2.617498 -2.617821 -2.618145 -2.618470 -2.618797 -2.619124 -2.619454 -2.619784 -2.620116 -2.620450 -2.620785 -2.621122 -2.621460 -2.621800 -2.622142 -2.622485 -2.622830 -2.623177 -2.623526 -2.623876 -2.624229 -2.624583 -2.624939 -2.625298 -2.625658 -2.626020 -2.626385 -2.626752 -2.627121 -2.627492 -2.627865 -2.628241 -2.628619 -2.629000 -2.629383 -2.629768 -2.630156 -2.630547 -2.630940 -2.631335 -2.631733 -2.632134 -2.632538 -2.632945 -2.633354 -2.633766 -2.634181 -2.634599 -2.635019 -2.635443 -2.635870 -2.636300 -2.636733 -2.637169 -2.637608 -2.638050 -2.638496 -2.638945 -2.639397 -2.639853 -2.640312 -2.640775 -2.641241 -2.641710 -2.642183 -2.642660 -2.643140 -2.643624 -2.644111 -2.644603 -2.645098 -2.645597 -2.646099 -2.646606 -2.647116 -2.647631 -2.648149 -2.648672 -2.649198 -2.649729 -2.650264 -2.650802 -2.651343 -2.651888 -2.652435 -2.652984 -2.653536 -2.654090 -2.654645 -2.655201 -2.655759 -2.656317 -2.656875 -2.657433 -2.657992 -2.658549 -2.659106 -2.659662 -2.660216 -2.660769 -2.661320 -2.661868 -2.662414 -2.662957 -2.663497 -2.664034 -2.664567 -2.665097 -2.665625 -2.666149 -2.666671 -2.667190 -2.667706 -2.668220 -2.668732 -2.669241 -2.669748 -2.670254 -2.670757 -2.671258 -2.671758 -2.672255 -2.672752 -2.673247 -2.673740 -2.674232 -2.674723 -2.675213 -2.675702 -2.676191 -2.676678 -2.677165 -2.677651 -2.678137 -2.678622 -2.679107 -2.679592 -2.680077 -2.680562 -2.681047 -2.681533 -2.682018 -2.682505 -2.682991 -2.683479 -2.683967 -2.684456 -2.684946 -2.685437 -2.685929 -2.686422 -2.686917 -2.687413 -2.687911 -2.688411 -2.688912 -2.689415 -2.689920 -2.690427 -2.690936 -2.691448 -2.691962 -2.692478 -2.692997 -2.693518 -2.694043 -2.694570 -2.695100 -2.695633 -2.696170 -2.696709 -2.697253 -2.697799 -2.698349 -2.698903 -2.699460 -2.700022 -2.700587 -2.701157 -2.701730 -2.702308 -2.702890 -2.703477 -2.704069 -2.704665 -2.705265 -2.705871 -2.706482 -2.707097 -2.707718 -2.708345 -2.708976 -2.709613 -2.710256 -2.710904 -2.711558 -2.712218 -2.712884 -2.713556 -2.714235 -2.714919 -2.715610 -2.716308 -2.717012 -2.717723 -2.718440 -2.719164 -2.719896 -2.720634 -2.721380 -2.722133 -2.722894 -2.723661 -2.724437 -2.725220 -2.726011 -2.726810 -2.727617 -2.728432 -2.729255 -2.730087 -2.730927 -2.731775 -2.732632 -2.733498 -2.734372 -2.735256 -2.736148 -2.737050 -2.737960 -2.738880 -2.739810 -2.740749 -2.741698 -2.742656 -2.743624 -2.744602 -2.745590 -2.746588 -2.747597 -2.748615 -2.749645 -2.750684 -2.751734 -2.752795 -2.753867 -2.754950 -2.756044 -2.757149 -2.758265 -2.759392 -2.760531 -2.761681 -2.762843 -2.764017 -2.765203 -2.766400 -2.767610 -2.768831 -2.770065 -2.771311 -2.772570 -2.773841 -2.775125 -2.776421 -2.777731 -2.779053 -2.780388 -2.781737 -2.783098 -2.784473 -2.785862 -2.787264 -2.788680 -2.790109 -2.791552 -2.793009 -2.794481 -2.795966 -2.797466 -2.798979 -2.800508 -2.802051 -2.803608 -2.805181 -2.806768 -2.808370 -2.809987 -2.811619 -2.813267 -2.814930 -2.816608 -2.818302 -2.820012 -2.821737 -2.823478 -2.825235 -2.827009 -2.828798 -2.830604 -2.832426 -2.834264 -2.836119 -2.837991 -2.839879 -2.841784 -2.843706 -2.845646 -2.847602 -2.849576 -2.851567 -2.853575 -2.855602 -2.857645 -2.859707 -2.861786 -2.863884 -2.865999 -2.868133 -2.870285 -2.872455 -2.874644 -2.876851 -2.879077 -2.881322 -2.883585 -2.885868 -2.888169 -2.890490 -2.892830 -2.895190 -2.897569 -2.899967 -2.902386 -2.904824 -2.907281 -2.909759 -2.912257 -2.914775 -2.917314 -2.919873 -2.922452 -2.925052 -2.927672 -2.930314 -2.932976 -2.935659 -2.938364 -2.941089 -2.943836 -2.946604 -2.949394 -2.952205 -2.955038 -2.957893 -2.960769 -2.963668 -2.966589 -2.969532 -2.972497 -2.975485 -2.978495 -2.981528 -2.984583 -2.987661 -2.990762 -2.993886 -2.997034 -3.000204 -3.003398 -3.006615 -3.009856 -3.013120 -3.016408 -3.019720 -3.023055 -3.026415 -3.029799 -3.033207 -3.036639 -3.040096 -3.043577 -3.047083 -3.050614 -3.054169 -3.057750 -3.061355 -3.064985 -3.068641 -3.072322 -3.076028 -3.079760 -3.083517 -3.087299 -3.091106 -3.094939 -3.098797 -3.102681 -3.106589 -3.110523 -3.114483 -3.118468 -3.122478 -3.126513 -3.130574 -3.134660 -3.138772 -3.142909 -3.147071 -3.151259 -3.155472 -3.159710 -3.163974 -3.168263 -3.172578 -3.176918 -3.181283 -3.185674 -3.190090 -3.194531 -3.198997 -3.203489 -3.208005 -3.212547 -3.217113 -3.221704 -3.226321 -3.230962 -3.235628 -3.240319 -3.245034 -3.249774 -3.254539 -3.259328 -3.264142 -3.268980 -3.273842 -3.278729 -3.283641 -3.288576 -3.293536 -3.298520 -3.303528 -3.308560 -3.313617 -3.318697 -3.323801 -3.328929 -3.334081 -3.339257 -3.344456 -3.349679 -3.354926 -3.360197 -3.365491 -3.370808 -3.376149 -3.381514 -3.386902 -3.392313 -3.397747 -3.403205 -3.408686 -3.414190 -3.419716 -3.425266 -3.430838 -3.436432 -3.442049 -3.447687 -3.453347 -3.459028 -3.464731 -3.470455 -3.476200 -3.481966 -3.487753 -3.493559 -3.499386 -3.505233 -3.511100 -3.516987 -3.522893 -3.528818 -3.534762 -3.540725 -3.546707 -3.552707 -3.558726 -3.564763 -3.570817 -3.576890 -3.582980 -3.589087 -3.595211 -3.601353 -3.607511 -3.613686 -3.619877 -3.626085 -3.632308 -3.638547 -3.644802 -3.651073 -3.657358 -3.663659 -3.669975 -3.676305 -3.682650 -3.689009 -3.695382 -3.701769 -3.708170 -3.714585 -3.721012 -3.727453 -3.733907 -3.740374 -3.746853 -3.753345 -3.759849 -3.766365 -3.772893 -3.779432 -3.785982 -3.792542 -3.799111 -3.805690 -3.812278 -3.818874 -3.825478 -3.832089 -3.838706 -3.845330 -3.851960 -3.858595 -3.865234 -3.871878 -3.878526 -3.885177 -3.891831 -3.898487 -3.905144 -3.911803 -3.918463 -3.925123 -3.931783 -3.938442 -3.945099 -3.951755 -3.958409 -3.965060 -3.971708 -3.978352 -3.984992 -3.991627 -3.998257 -4.004881 -4.011499 -4.018110 -4.024714 -4.031311 -4.037899 -4.044478 -4.051048 -4.057608 -4.064159 -4.070698 -4.077226 -4.083743 -4.090247 -4.096739 -4.103217 -4.109682 -4.116132 -4.122568 -4.128988 -4.135393 -4.141781 -4.148153 -4.154508 -4.160845 -4.167164 -4.173464 -4.179745 -4.186006 -4.192247 -4.198467 -4.204666 -4.210843 -4.216998 -4.223131 -4.229239 -4.235323 -4.241381 -4.247412 -4.253417 -4.259393 -4.265339 -4.271256 -4.277142 -4.282996 -4.288818 -4.294605 -4.300359 -4.306077 -4.311758 -4.317403 -4.323010 -4.328577 -4.334105 -4.339592 -4.345038 -4.350441 -4.355801 -4.361116 -4.366387 -4.371611 -4.376788 -4.381918 -4.386999 -4.392030 -4.397011 -4.401941 -4.406818 -4.411642 -4.416412 -4.421128 -4.425787 -4.430390 -4.434935 -4.439422 -4.443849 -4.448216 -4.452522 -4.456767 -4.460948 -4.465065 -4.469118 -4.473105 -4.477025 -4.480879 -4.484664 -4.488380 -4.492026 -4.495601 -4.499104 -4.502535 -4.505892 -4.509174 -4.512381 -4.515512 -4.518566 -4.521542 -4.524439 -4.527256 -4.529993 -4.532648 -4.535220 -4.537710 -4.540115 -4.542434 -4.544668 -4.546815 -4.548875 -4.550845 -4.552726 -4.554517 -4.556216 -4.557823 -4.559337 -4.560757 -4.562082 -4.563311 -4.564443 -4.565479 -4.566415 -4.567252 -4.567989 -4.568625 -4.569159 -4.569591 -4.569918 -4.570141 -4.570258 -4.570268 -4.570172 -4.569967 -4.569653 -4.569229 -4.568694 -4.568048 -4.567289 -4.566416 -4.565429 -4.564326 -4.563107 -4.561772 -4.560318 -4.558745 -4.557053 -4.555240 -4.553305 -4.551248 -4.549068 -4.546763 -4.544334 -4.541778 -4.539096 -4.536286 -4.533347 -4.530278 -4.527080 -4.523750 -4.520287 -4.516692 -4.512963 -4.509098 -4.505099 -4.500962 -4.496688 -4.492275 -4.487723 -4.483031 -4.478198 -4.473223 -4.468105 -4.462844 -4.457437 -4.451886 -4.446187 -4.440342 -4.434348 -4.428205 -4.421913 -4.415469 -4.408874 -4.402126 -4.395224 -4.388168 -4.380957 -4.373590 -4.366065 -4.358382 -4.350538 -4.342534 -4.334367 -4.326039 -4.317548 -4.308894 -4.300076 -4.291095 -4.281949 -4.272638 -4.263162 -4.253519 -4.243711 -4.233735 -4.223592 -4.213282 -4.202803 -4.192155 -4.181338 -4.170351 -4.159195 -4.147867 -4.136369 -4.124699 -4.112856 -4.100842 -4.088654 -4.076293 -4.063758 -4.051048 -4.038163 -4.025103 -4.011868 -3.998455 -3.984866 -3.971100 -3.957156 -3.943034 -3.928733 -3.914253 -3.899593 -3.884753 -3.869732 -3.854531 -3.839148 -3.823582 -3.807835 -3.791904 -3.775790 -3.759492 -3.743009 -3.726342 -3.709489 -3.692450 -3.675225 -3.657814 -3.640215 -3.622428 -3.604453 -3.586290 -3.567937 -3.549395 -3.530662 -3.511740 -3.492626 -3.473320 -3.453821 -3.434124 -3.414225 -3.394122 -3.373808 -3.353282 -3.332538 -3.311574 -3.290384 -3.268965 -3.247314 -3.225425 -3.203296 -3.180923 -3.158300 -3.135425 -3.112294 -3.088903 -3.065247 -3.041323 -3.017126 -2.992654 -2.967902 -2.942866 -2.917542 -2.891926 -2.866015 -2.839804 -2.813290 -2.786468 -2.759335 -2.731886 -2.704118 -2.676028 -2.647610 -2.618861 -2.589777 -2.560355 -2.530589 -2.500477 -2.470015 -2.439198 -2.408022 -2.376483 -2.344553 -2.312186 -2.279337 -2.245961 -2.212012 -2.177444 -2.142211 -2.106269 -2.069570 -2.032071 -1.993725 -1.954486 -1.914309 -1.873148 -1.830958 -1.787693 -1.743308 -1.697756 -1.650992 -1.602971 -1.553647 -1.502974 -1.450906 -1.397399 -1.342406 -1.285882 -1.227782 -1.168058 -1.106667 -1.043562 -0.978698 -0.912029 -0.843509 -0.773093 -0.700735 -0.626390 -0.550012 -0.471556 -0.390975 -0.308224 -0.223257 -0.136030 -0.046496 0.045391 0.139676 0.236404 0.335621 0.437373 0.541706 0.648665 0.758295 