0.592333 2.091194 0.533869 0.506668 -1.047980 -1.072539 -0.331418 -0.353409 0.068463 -0.821078 0.591044 0.638114 0.636878 3.854916 1.983933 1.805348 -0.023818 1.110545 0.775126 1.195370 2.278261 0.797219 1.095225 2.107857 0.995460 -2.597061 -1.175113 -1.308642 -0.473855 -1.414792 -0.254963 -0.788719 -0.119573 0.138180 -0.875492 -2.423114 -1.077295 -0.156600 -0.301897 2.379459 -1.504670 0.241678 -1.249364 1.623394 1.711864 -0.654106 -0.343252 -0.018527 1.178629 -0.915620 0.896316 -0.417213 0.715431 -0.140182 -0.912746 -2.347797 -0.981588 0.730897 1.081802 0.014949 0.330513 0.739558 0.027235 0.019080 -2.053409 2.488482 -0.887033 -0.454000 -1.029149 1.075340 -1.672663 -1.329926 -0.411289 0.274247 2.094317 -0.074524 -0.563105 -0.104736 0.068630 -0.200310 -0.524370 1.111447 1.769564 0.876065 1.044081 -1.545589 -0.181177 -0.411327 0.111514 0.632919 0.527291 -1.753417 -0.028363 -1.668012 -2.365391 -1.318417 1.074671 0.683752 0.878327 -0.527246 0.892162 -0.825148 0.021405 -1.360736 -1.376281 -1.066193 0.059097 0.117227 -0.687860 -0.343146 -0.251993 -0.181606 0.596275 1.156129 0.040840 -2.284960 1.020006 -1.152535 -1.007913 -0.179760 0.461138 0.498757 -1.053056 0.252995 0.109496 0.109561 -0.964750 -0.061010 -0.100021 0.018605 1.791284 -0.420972 -1.800654 0.448454 0.977634 0.551396 1.217393 -1.603917 -0.003814 -0.693947 0.133801 1.421964 0.006071 -0.615387 -1.023944 1.143067 0.688687 0.367172 0.148391 0.201348 -0.407508 1.510687 -0.732036 1.091386 -0.909339 -0.607609 -0.419326 -0.431290 0.454274 1.062739 0.067014 -0.595337 -1.045911 0.900151 -0.411242 -0.494924 -0.495045 -0.317945 0.829715 -1.057955 -0.778403 0.164149 0.065840 0.873438 0.621586 0.610193 -0.144432 -0.768000 -2.392756 0.499498 1.670579 -1.508650 0.856589 0.011164 1.249094 0.217463 0.844086 0.417955 -0.481425 2.382359 -1.759085 -0.242440 1.459163 -1.614669 -2.007102 0.058320 2.402768 0.095124 0.410668 0.451729 1.508108 -0.333967 -0.436851 -0.671879 1.071689 -0.000260 -2.536355 0.797355 -0.319717 0.716492 1.290685 0.051616 0.357374 -0.285272 -0.169354 0.501509 -1.516866 -0.387120 0.496251 2.154473 0.937742 -0.715579 -1.126288 0.926579 -0.366984 -1.487025 -1.360179 2.359595 1.975943 0.118981 -0.450584 0.699573 1.504613 -2.511427 -0.481065 2.720776 -0.435117 -1.587685 0.643997 0.443435 -0.371982 1.344661 -0.227205 0.050406 0.435986 0.330963 -0.658600 -1.353696 -2.002740 1.725245 0.258575 -0.589554 -0.193076 -0.795887 0.487307 1.069385 -1.234328 0.748429 -0.156253 1.789505 0.585226 -2.073642 0.248233 -0.840208 0.964860 0.468459 2.060434 0.976887 0.422318 -1.067872 0.825686 0.327001 1.618285 -0.615116 0.612169 0.014050 -0.605048 -0.470936 -0.721641 0.104343 0.837083 0.757118 0.822708 -0.733669 -1.178670 -0.980251 1.471615 -0.144975 -0.119045 0.171637 -0.379961 0.898040 0.556212 0.189380 0.074921 0.177228 0.242509 1.129543 0.003150 -1.679349 -1.205384 0.660872 -0.581436 -0.511724 0.455688 -2.108621 -0.380858 0.483770 -0.802655 0.195497 -0.730704 -0.461006 0.664995 -0.356047 -0.357199 -0.315485 -0.266055 -1.090079 0.010999 0.715774 -0.359786 -0.122822 -0.056436 -0.009351 -0.860160 0.098119 0.710801 -0.366376 -0.129272 -0.924515 -0.668133 -0.575196 1.059993 -0.302969 -1.872139 2.238496 0.779004 0.742584 0.619801 -0.445128 0.644888 -1.247765 -0.295490 -1.416920 -0.265905 0.584840 1.278832 0.264790 0.461742 -0.288367 -1.079155 -0.108357 0.350912 -1.720409 -1.256905 0.827715 -0.243175 -0.911609 0.998407 1.459105 -0.489171 1.576617 0.226624 -0.615689 -0.345324 -0.526446 0.197507 1.772994 0.476442 -0.290141 0.145304 1.067104 -1.033175 -0.974613 -2.774382 -1.409707 1.399044 -0.907375 0.282061 -0.440776 0.838190 0.772607 -0.388572 0.354209 0.130430 0.175204 -2.467119 -0.145499 -0.355545 -2.147605 -0.838189 -0.897942 2.767532 0.451203 1.468695 -0.414868 -0.020848 -0.845362 -1.080030 -1.314568 -0.515960 -1.276343 -0.031503 0.980502 -0.916129 -0.520950 1.240711 -0.122948 0.752540 0.511727 1.232040 1.123142 1.004377 -0.114069 -0.103352 -0.131517 -1.182805 0.652032 0.270978 -1.478911 -0.920828 0.167116 0.874229 -1.153136 -0.060502 -0.130367 1.759727 -2.052573 0.165439 -0.042674 0.754196 -0.276692 1.393161 1.954784 0.861734 -2.450571 -0.154706 -0.409835 1.058342 1.358050 0.045266 0.531734 0.945394 0.027098 -2.786499 -0.701761 -1.067810 -1.063749 -0.842444 0.220693 1.256286 -0.467635 -1.033686 -0.913318 1.707871 0.148939 -0.856490 0.272449 1.220643 1.156953 -0.835718 -0.748919 1.026633 -1.006379 1.753486 1.973158 -0.962762 -0.228287 -0.938296 -0.922441 1.572870 -0.097059 -0.162468 1.107310 1.188121 0.262109 -1.482400 -0.482211 0.170211 -0.056813 0.692491 0.552680 -0.111418 -0.580789 -1.275008 1.333484 0.640320 0.372549 1.284038 -0.461027 0.924934 -2.716264 0.295607 0.576593 1.035929 0.869766 1.806137 -0.725895 1.590069 -1.445360 -1.481768 1.132377 1.308941 -0.651406 0.753714 0.021880 0.241754 -1.476679 0.211062 -1.979764 1.057694 0.774391 -1.067603 2.173318 -0.853150 -0.446612 1.290883 -1.053271 0.862565 0.657568 -0.299863 0.000387 1.877421 -0.409420 -0.229238 0.697408 -0.474457 -0.219021 0.671009 0.392432 0.411368 0.511841 1.310551 0.240147 -0.513328 -0.386609 -0.409441 1.335234 -0.824226 -0.529993 -1.105269 -0.687008 -0.531836 1.099079 -1.914670 1.314272 0.316583 0.427890 -1.172043 -0.060622 -0.157733 -0.229561 -0.204152 -1.126115 -0.635551 0.483777 1.204435 0.870452 1.687416 -1.056627 1.272138 -0.734667 0.161903 -1.820887 -1.561626 -0.370971 -0.360346 1.544560 -1.394079 -1.550460 1.584445 0.225504 -0.762892 -0.668432 0.291989 -0.506134 0.650563 -1.400048 -1.087772 -0.726611 -0.691807 1.040779 -0.201158 1.759996 0.702965 0.011212 1.050012 -0.189241 -0.268290 -1.256133 -1.090065 1.648354 1.209603 1.078667 -2.345916 0.301755 0.181157 -1.009771 -1.973202 -0.968046 0.155995 1.136959 -1.600059 0.600325 -0.308713 0.702237 1.289288 0.739697 -0.174509 0.125038 0.209956 -0.841961 3.564932 0.673273 0.748419 0.104408 1.156983 0.098483 -0.087898 -0.387557 0.343548 -1.307784 0.846141 -0.244331 -0.132007 -0.844458 0.158678 0.920479 0.669261 0.619677 -1.166128 0.235062 0.155126 1.685046 -0.643744 1.322993 0.325135 0.514525 -1.170806 -1.031632 -0.991791 -0.150397 0.603291 -1.352077 1.893327 0.774159 -0.848507 -0.506994 -1.477362 0.401456 0.043646 -0.119422 -0.018771 -0.536836 1.603716 -0.563408 1.257875 -0.061583 -0.861672 1.213516 -0.043865 0.006988 1.739993 -0.416462 -0.135098 0.895234 0.564164 -1.305440 0.787235 -1.308432 0.792412 1.498862 0.184476 -3.073504 -2.103688 1.686542 0.801216 0.486823 -0.477400 0.086835 -0.241341 1.621778 -0.125772 -2.098513 1.118749 -0.955378 -0.571104 -0.441035 -0.493676 1.367299 0.208465 -0.617725 -0.363910 -1.029575 0.879357 -0.473086 0.355251 0.296333 -0.422028 -1.821186 -1.402327 -0.483312 0.108341 -1.829958 -1.376095 -0.034304 -0.777854 -0.546059 -1.517063 0.413438 1.993436 -0.182610 1.787765 -1.111830 -1.437192 -0.279499 -0.756057 -0.153950 0.549760 -0.348216 -0.790118 -1.133781 -0.968294 -0.217356 1.164145 -1.095851 -0.628512 -1.072870 1.886862 -1.318922 -1.175384 -1.109208 -1.005946 -0.732461 0.948255 -0.330088 -0.114296 0.189618 0.126215 -0.802419 0.955885 1.305662 0.056061 0.273484 -0.573718 -1.234401 -0.178634 0.312084 -1.852706 1.217202 -1.663859 -1.050189 1.000287 -0.418277 -1.256127 0.717776 0.413031 -0.486066 0.673136 -0.534334 0.467121 -0.514765 1.181819 -0.123365 0.852873 0.728726 -1.161763 -0.759064 0.090264 -1.072618 -1.007834 -0.037774 0.745473 0.738788 -0.118466 1.728760 0.478892 1.340605 -0.794342 0.165005 0.058620 -0.057715 -0.127225 0.643865 1.431447 0.357148 -0.368209 0.630106 -2.172467 0.881850 -0.575990 1.098633 -1.659905 0.712429 1.538780 0.330551 1.262696 -0.056535 -1.622104 -0.263865 0.442056 -1.744156 0.388359 0.223047 1.182551 -0.508461 -0.234341 -1.067014 -0.017110 -1.089034 0.607430 -0.489851 -0.199485 -0.741911 0.353474 0.227824 0.911938 -1.098643 0.955786 -1.777861 -0.399962 -1.307746 1.308761 0.851928 -0.155595 0.221588 -0.509685 -0.180646 -0.358898 -1.500644 -0.527410 1.275664 -1.597184 -0.084722 0.856867 -0.249362 -1.819325 -0.658016 -0.808983 1.901583 0.518128 2.168624 -0.614317 0.017053 0.131188 -1.152594 0.510030 -0.047517 -0.026267 0.226763 0.457509 0.473462 -1.359537 0.598898 0.148899 -0.830089 -0.580216 -1.361840 -0.989334 -1.682703 1.102228 0.525949 1.380540 1.344796 0.455447 -1.042680 -0.799740 0.722459 0.871907 1.366997 2.025049 -0.609898 1.027177 0.000739 -0.297644 -1.479799 -1.491301 0.444798 -0.543404 1.545647 -0.487195 0.797039 -0.961888 0.990749 -0.357117 0.402896 0.295358 0.246325 -0.431885 -0.250337 -0.213498 -2.082488 -0.797504 -0.019926 0.733214 -0.215877 -0.830861 0.447292 0.418102 1.147154 0.648871 1.327687 0.343769 1.419939 1.153951 -0.024657 0.009080 -0.117871 -1.909368 0.237360 0.835967 0.548944 -0.214559 0.070928 0.242395 2.883103 0.320577 1.970246 -0.087106 -0.628800 -0.282929 -1.371386 -1.342584 1.271502 0.842229 -0.859315 -0.137885 0.093415 0.139878 0.829586 -0.590508 -1.362380 1.801440 1.406681 -1.420006 -0.021302 0.759624 2.310429 0.923578 0.704322 -0.147448 2.002538 -0.126818 -1.135492 -1.036098 -0.981735 0.116281 0.823271 -0.245575 0.089282 -2.181453 1.079521 -0.307275 2.134876 1.523710 0.510005 0.990722 -0.676425 -1.289671 -0.492504 -0.865696 -0.111328 -0.056686 -0.667476 -0.987487 0.335475 0.995770 -0.303378 -0.246986 1.580931 -0.381818 0.863205 -1.103797 -1.783097 0.347289 -0.038376 -1.916353 0.327083 1.171842 -0.664643 -1.935682 -1.568567 0.298784 -0.851503 0.901954 -1.218054 0.294268 -0.261602 2.431911 -0.067694 -0.081484 1.776703 0.438841 -0.280611 1.488757 0.107977 -0.718713 0.422965 0.107039 0.085014 0.146606 -0.798277 -2.292648 1.804012 1.960463 -0.302619 0.943456 0.029713 -0.512736 0.558677 0.852320 -0.552858 -0.274048 -0.062015 1.784906 0.599921 0.525135 0.434746 1.292869 -0.623451 -0.474302 -0.511762 1.200325 0.038105 0.939241 -0.019428 -0.622432 -0.230136 1.378674 -1.803038 -1.387692 2.395376 -0.026107 -0.515072 -1.123256 -1.757490 -0.421043 -0.592993 -0.886688 -0.767114 2.297045 0.229922 0.531407 -1.185371 0.805501 -2.126635 0.753837 -0.669089 0.286202 -0.335066 -0.114221 -1.652067 -1.304031 -0.321916 0.196694 0.064718 0.985490 1.034195 -0.590318 -0.184722 0.533000 -1.650980 0.316515 -0.890629 -1.548538 0.766081 0.516757 -0.442383 -1.101587 0.900230 -0.300162 0.692057 -0.471227 -2.157520 0.274886 0.906376 0.508358 0.360288 0.403952 0.555618 -1.099556 0.833341 0.240933 0.046803 -0.788174 -1.444448 -1.011534 0.014427 0.635577 -0.611628 0.533674 2.336438 -2.358012 -0.653014 0.081171 -0.330655 1.373986 -0.049423 -0.740773 -0.999379 -0.594681 1.839020 0.993030 -0.193653 0.070807 0.367172 1.353114 0.037885 1.524719 0.131009 2.056620 -0.003706 -0.750214 0.358166 -0.820575 0.122066 1.579036 0.272098 -1.217434 0.311445 0.207795 -0.806870 0.092709 0.625017 0.522150 3.344554 0.096066 1.302072 -0.525065 -1.288167 -1.191190 2.087590 0.360835 -0.420178 0.176052 1.296211 -0.460419 0.460341 -0.911072 1.763306 -0.287741 -0.051489 -0.756679 -0.495447 -2.065637 -0.070808 0.477143 -0.635660 0.712303 -0.168743 1.053161 -0.806540 -2.416446 -2.067702 0.711299 0.238105 -1.617788 -0.114291 1.014261 -1.521812 -1.956080 -0.171507 -0.557258 1.327060 0.955938 -0.868612 0.750301 0.779191 0.449446 0.094366 0.729768 -1.220490 0.175770 -0.748068 -0.695228 -0.600374 -1.513116 0.541304 -0.543882 -0.309035 1.571198 -0.529203 -1.071797 -1.672993 -0.626800 -0.771937 0.047719 0.727044 -0.198562 -0.571451 0.638762 -0.496636 -0.550200 -1.543599 1.210901 0.826880 0.782486 0.809183 0.780144 -0.912867 -1.577517 -0.682472 -0.153047 0.551295 0.380745 -0.354836 -0.726129 1.426047 0.878854 0.436218 -0.633069 0.445691 -0.396185 -0.239716 -1.220714 -0.278064 -0.294101 0.608215 -0.397060 -0.200681 1.764551 1.347586 1.125849 -0.839029 0.344927 1.124219 -0.141064 -0.236221 0.570573 0.529767 0.620035 -0.318977 0.608125 -2.145597 1.038889 1.388147 1.810069 1.645822 -1.047047 1.422344 1.128635 0.706889 -0.621262 -0.582132 0.544164 -0.317029 -0.160719 -1.111958 -0.796619 -2.326013 0.777652 0.319306 0.244277 0.467734 0.579672 -0.995548 1.115881 2.342567 -0.210406 0.094659 1.086993 -0.776746 0.487480 -0.721607 -0.812124 -3.233994 0.177096 -0.130389 -0.152560 0.059127 -0.744566 0.643754 0.590172 -1.385193 -1.212823 -1.047786 1.707572 0.312319 1.210927 -0.607276 -0.955397 2.093950 -0.520280 0.291383 0.058367 -0.743080 -0.296225 -0.192197 -2.079307 0.048448 0.747246 0.461123 -0.310802 -0.900375 0.361867 -0.618469 0.232434 -0.157755 0.703300 -0.150711 0.105392 -0.706022 0.301945 -0.769504 1.864916 -0.456188 1.575934 -0.322342 0.817429 -0.166105 -0.272428 -0.339074 -0.474445 -0.349277 -0.305913 -0.149889 -2.726545 -0.240876 0.449831 -0.714539 0.379295 1.156675 1.106944 1.194400 0.150988 0.936552 -1.068529 0.007416 0.611975 -0.588302 -0.320542 -0.186412 -0.070787 0.884631 -1.119143 -0.011541 -0.915954 0.196646 -2.557691 -0.277811 -2.158060 0.911204 0.616577 -0.446728 -0.024424 0.128640 -1.531458 0.444245 -1.783966 -1.614592 -0.395965 -0.452435 0.573783 -1.265934 -0.837922 0.230898 -1.665700 1.203394 -0.290022 -0.212541 1.778549 -1.225210 0.993283 -1.987949 0.098403 -0.235367 0.477554 0.309165 -0.566275 0.731047 0.570626 1.321262 -1.807089 -0.512920 1.216656 -0.101584 -0.047805 -0.126980 -0.028810 1.020333 -0.134991 1.486940 1.077845 0.112762 1.140450 0.846050 -1.969021 1.133793 -0.341373 0.478368 -0.451114 0.545984 0.545395 0.577687 -0.383704 -0.411221 1.434395 0.970104 -0.079350 0.038742 0.145581 -0.661937 1.200201 -0.268038 1.506705 -1.337547 -0.780146 -0.533625 -0.586774 -1.514244 0.332741 0.143123 1.147839 0.316779 0.408510 -0.400819 0.576912 -0.645846 -1.614864 0.424966 0.167280 -0.638850 0.519048 -0.469539 -0.235566 -1.021010 1.654559 -0.727945 0.438688 0.412027 1.233459 -1.493007 0.661024 0.285798 0.940523 0.791351 1.437230 -0.447428 1.715697 -0.408821 0.440446 -0.653252 -0.667704 -0.532293 0.389029 -1.455653 -0.190702 -0.117792 -1.886834 0.395232 0.940210 -0.210735 1.794578 -1.168627 1.096716 -0.854715 -1.658725 0.240406 0.701560 1.382736 1.200155 1.270173 -0.425462 -0.888851 -0.893883 1.424534 -0.212591 0.696684 -0.982471 -1.207500 0.237157 -0.988998 -0.230891 -0.488882 1.406600 -0.483021 -0.004347 0.991330 -1.078258 0.077331 0.643908 0.308580 1.233938 0.231380 0.363297 -0.430032 -0.323890 -1.365574 1.350492 -0.067402 0.043105 0.297465 0.387331 -1.265041 -1.004195 -1.075175 1.493638 0.159910 -0.643133 0.687579 -1.015094 -0.568635 0.177064 0.582960 1.207092 1.107355 1.139733 0.341991 -1.239333 0.704914 0.108938 0.691083 -0.402385 -1.014197 -1.340123 -0.918654 -0.929977 -1.105440 -0.154859 -0.135842 0.145561 0.358198 0.404806 1.233307 0.901108 0.674665 0.558074 0.513554 -1.293612 0.769723 0.358047 0.164226 -0.675961 0.428444 1.315310 0.226702 -0.614858 0.355528 -0.603539 2.216756 -0.206751 0.775276 -0.064376 -0.723718 0.423565 0.950253 0.569255 -0.414023 0.810593 -0.997401 1.202341 -1.860899 1.958262 0.486078 -0.378197 -0.853137 1.159963 -0.826085 -1.533543 -1.318218 -0.436065 0.610494 0.464475 0.445820 -1.149012 -0.490422 1.347875 0.709575 0.404533 0.362021 0.513394 -1.049412 -0.685605 -0.821173 0.812120 -0.396869 -0.241108 0.027238 -0.619145 -0.280996 1.365197 1.673388 -1.320254 0.202338 1.109883 0.023031 -0.814972 0.018045 -1.905311 0.453862 1.139685 -1.045115 -0.534504 -0.275468 1.574205 1.155931 -0.017969 -0.824856 -0.419132 1.524442 -2.583350 -0.335547 1.256018 0.081096 0.399465 -1.373127 -1.807217 -0.440531 -0.645116 -0.959905 -1.748435 -0.319613 -0.083855 -0.807673 -1.514548 -0.428218 -0.461800 0.436862 0.235675 1.069493 0.170920 0.372655 1.191377 -1.003229 0.939842 -0.387410 1.399961 0.224466 -1.473272 -0.110394 -1.086121 -0.953360 -0.153131 0.508977 -0.452120 0.843930 -0.087581 0.033089 -0.829054 0.022526 -1.107627 1.670914 -1.434847 -0.948904 1.167595 -0.111012 -0.890914 0.071837 -0.994981 1.917327 0.578307 -0.472154 -0.177486 0.837292 -1.149744 -0.135903 0.476978 -0.682505 0.576794 -0.436412 -0.281993 -0.148468 1.546870 -0.756433 -0.504335 1.416629 1.891110 -0.159812 -0.889714 0.184815 0.078197 -1.754595 -2.508597 1.292337 1.734952 -0.231202 0.088686 -0.635245 -0.199775 -1.115556 0.350115 -0.213830 -1.845018 1.501935 0.254161 0.386536 -0.496440 -0.505186 -0.468454 1.296624 -0.987790 0.961350 -0.025993 -0.743633 -1.305242 0.533355 -0.774450 1.908242 0.515699 -0.315367 0.197796 1.088826 -0.171810 -1.217238 0.614194 0.252619 1.228121 -0.733528 -0.461305 -0.250628 0.629144 0.244621 0.841645 1.571280 -0.317745 1.879774 -1.215264 0.820222 0.410844 0.944638 -0.163663 -0.884730 0.396364 -0.606724 -0.489823 -0.642761 -0.642802 3.045205 0.604674 1.641362 -0.217328 0.960493 -2.748707 0.277194 0.492709 0.899767 0.046701 0.303675 -0.211490 -1.682992 0.355406 -0.374001 1.200034 0.042695 -0.568024 -0.043669 0.113783 0.835951 0.296102 -1.672697 -0.309518 0.705452 -2.134047 -0.761290 -0.856820 0.072035 0.093896 -0.855054 0.276013 1.212205 -0.750582 -0.602765 -1.496423 1.333283 -0.036872 0.754535 0.585332 -1.103417 0.354775 1.847009 -0.657896 1.183195 -0.020435 -1.665865 0.701308 -0.620434 -0.725991 -0.679839 1.981524 0.619804 0.784472 -0.101628 -0.908392 -0.643752 -0.853057 -0.239146 -1.350660 -0.086563 -0.857226 0.365499 -0.593889 0.320726 0.997018 -0.203311 -0.051197 0.819234 0.590207 -0.437351 -0.389360 0.398592 1.095445 0.810655 -0.277222 -0.110012 0.018030 -1.798985 0.148059 -1.183721 -0.172155 -0.120345 -0.077780 0.952163 -0.076190 -0.005104 0.774911 0.476895 0.298306 1.075594 -0.970119 -1.496914 -1.188246 -1.254255 0.475828 -0.800079 1.146065 0.202771 -0.364660 -0.976410 -0.941929 2.433426 3.193107 1.574585 2.538913 4.281561 1.988797 2.645322 0.825185 1.212842 0.893339 -0.282230 1.504880 -1.459434 -0.857796 -1.560372 0.388854 2.744401 -0.585898 -0.040788 -0.520058 -1.827147 2.079438 -0.748614 -1.677347 -1.956829 0.460704 -0.450089 0.567183 0.302502 0.285035 1.531604 0.450087 0.445075 -0.522792 -1.262756 0.693084 1.187324 -0.891187 0.436945 0.530205 0.630373 -1.113701 -0.085554 0.603801 -1.294956 0.017645 1.661674 1.358262 -2.116572 2.147234 1.479203 -0.494808 -0.214580 -0.418415 -1.140492 1.036032 -0.329944 2.268811 1.129178 2.143349 -0.637786 -0.228003 2.413695 0.604955 -0.459338 -0.326320 -0.052455 0.231741 0.233330 0.832308 0.630322 0.791399 2.607915 1.264287 1.266025 0.295445 0.295522 0.231014 -3.437412 -0.970350 -0.166316 -0.216562 -1.771089 0.587757 2.415796 -0.432171 -1.744157 0.306911 0.087787 0.954217 -1.185941 -0.067503 0.271556 0.528155 1.292611 -0.033872 0.137679 0.285461 2.048288 -0.221994 -2.656469 -0.192268 0.530258 0.317473 0.181401 0.158601 -1.254631 1.259986 1.716103 0.195068 -0.602853 -1.202152 -0.790392 0.247907 -1.839239 1.023980 -0.995944 0.432745 0.576493 0.486176 -0.394007 2.357961 1.714716 -1.211383 -1.466321 -0.310557 0.480777 0.142138 -0.128482 0.824026 0.212716 -0.287905 -0.206378 -1.260454 -0.238935 0.484081 -0.633711 -2.052362 -1.329694 0.724368 -1.370660 1.484176 0.065200 1.183466 -0.403891 -1.005400 3.556162 -0.227811 -0.955338 -0.726011 0.319562 0.351328 1.074264 0.585137 0.594704 -0.820063 1.283043 -0.937822 0.929334 -0.325395 -0.292258 -0.035132 -0.810140 1.217847 0.811705 0.676602 -1.112087 0.241013 0.207721 -0.784648 -1.599677 -0.546974 -0.460260 0.595274 -0.397258 -0.225159 2.684319 -1.362163 0.934394 -1.164052 0.796576 -1.185504 -1.902361 0.187724 2.645918 -0.476725 0.778904 -0.078284 -0.737756 -0.403843 1.870987 0.984927 -1.724314 -1.761589 -0.385645 -0.352171 0.337305 -0.157329 0.742852 0.147972 -1.225981 0.013631 -0.267268 1.306512 -0.968786 -0.676803 -0.319471 -0.084467 -0.071273 -0.297047 0.520573 -1.321916 -0.799483 0.212917 0.011338 1.730238 -0.494653 -0.183806 -0.793438 1.197257 0.691177 0.334790 0.266156 0.355056 -0.327272 -0.203680 1.420097 0.849303 -1.016973 -0.595370 0.473136 2.122473 0.682121 0.510384 -1.200043 0.289907 -0.639726 0.086673 0.626546 -2.233027 -0.502610 -0.314587 -0.258180 -2.011649 -0.783775 -0.762920 0.336372 0.303977 -1.558211 -0.094961 -0.887482 0.152898 -0.123717 0.609651 -0.358187 0.839772 0.775293 1.497565 -1.441393 -1.965854 1.006954 -1.321970 -1.086954 -0.142116 1.582307 -1.129527 1.227800 -1.811140 -1.357559 0.664948 -0.878800 -1.696851 -0.396836 -1.144793 -1.642399 -1.259756 0.421195 0.113881 1.044541 -0.864583 -1.305178 -0.829093 0.854984 -0.678095 -0.773695 0.265536 0.323008 -0.362923 2.343751 -1.066466 -1.593782 0.535058 -0.839373 -1.618189 -0.519114 1.083230 -0.014821 -0.594850 0.428672 -1.474928 -0.166353 0.419920 -0.079008 -1.800398 0.521981 -1.413547 0.701023 -0.499685 -0.618075 -0.450508 0.523784 0.371942 0.228458 0.197164 1.002614 -0.047781 -0.910626 -0.796983 0.928190 -0.347985 2.309195 0.843920 0.939422 0.243730 -0.631091 1.122976 1.346111 -0.944951 -0.669217 -1.245113 -0.852207 1.016281 -0.487467 0.405132 1.358931 0.426019 -0.248352 1.617771 -0.727290 -0.583013 -0.566844 1.082132 -0.917168 2.076027 -0.180006 -0.776604 0.551163 -1.553473 -2.176038 -0.171167 1.260383 -0.840158 0.598774 0.628931 -0.126181 1.881705 -1.487778 -0.392812 -0.370485 1.368756 -0.762207 -1.354242 0.808247 1.460911 -0.528687 -0.420586 0.484674 -0.446223 -0.187096 -0.368753 0.405131 0.403803 -0.443900 -1.164871 -1.732013 0.375506 0.859625 -0.410573 -0.201346 0.081502 -0.553556 -0.349518 0.320722 -0.943630 -0.699943 0.366159 -1.493874 0.750597 0.474158 0.298148 -0.529315 -0.339944 -2.023903 0.153655 -0.193002 1.335469 -0.684606 1.497920 -1.225147 0.154459 -0.013212 0.460925 1.951090 0.562464 -0.099651 -0.631355 0.535805 1.042416 0.483436 0.204894 1.156008 -1.422446 -2.551136 1.406019 0.515429 -0.621403 0.479301 -0.397588 0.167714 0.345933 -0.047792 1.470718 0.251024 0.363979 -1.304449 -1.732143 1.214631 -0.354200 0.437351 -0.533289 -1.880653 1.542491 1.937392 1.295801 0.164492 0.372221 0.559023 -0.315185 -0.455738 1.015016 -1.100607 -1.514019 1.571095 -0.653073 -0.298739 1.523598 0.134104 -0.503241 -1.079523 -0.973619 -0.882390 -1.701481 0.181013 -0.013296 0.215576 1.321269 -2.350535 -0.686393 0.178792 -0.260703 -0.412107 -1.278333 0.925372 -0.827364 0.419838 -0.757451 1.056458 -0.958206 -1.577692 0.515217 -0.683520 -0.467951 1.278272 -1.759312 -1.968022 0.317146 -1.879471 0.176551 -0.099612 -0.180250 -0.724218 0.546874 -0.534287 0.386480 1.022890 0.589876 0.598446 0.605315 -1.184929 0.006234 -0.230032 1.261423 -1.815875 0.469052 -0.454171 0.649379 1.397489 0.865611 -0.112767 -1.642771 -0.275254 0.381772 0.884543 1.344562 -1.515497 1.064514 0.148685 -1.661024 -0.613329 0.819167 -0.434384 0.730101 0.682167 -0.167775 -0.649169 2.059835 -0.539056 -1.304378 0.768269 0.431859 0.512042 -0.400988 0.526696 0.453442 -0.390440 -0.376009 0.410392 -1.454881 0.717290 -0.463561 -0.365652 -1.028475 -1.688106 -0.482971 0.312303 0.968491 -0.156928 1.039584 1.055853 1.903642 -1.157538 -1.834065 1.049920 0.476546 0.288899 0.190850 -1.432793 -1.550662 0.624019 2.603354 -0.089458 0.185206 -0.414052 0.919160 -0.067068 -1.260318 -0.462712 0.354493 0.385430 0.403471 -0.437062 -0.136285 0.887500 -1.232647 0.670333 0.340416 0.315941 0.449700 0.428754 -0.457316 0.602753 -0.531268 0.329531 -1.539313 -0.283771 0.627687 0.430280 2.174647 -0.909204 1.405909 1.205858 0.070150 0.895798 -0.381934 1.492889 -1.429311 -0.079585 -1.047504 -0.838936 0.180039 1.679347 -0.431931 0.011943 -0.571864 -0.381441 0.529553 1.808156 -1.428219 0.073872 0.298348 1.191360 0.951799 0.586637 0.480575 0.592375 0.655497 1.323003 0.083103 -0.749834 -0.486807 -0.424564 0.475304 -0.638785 0.392065 0.416605 -0.316765 0.826592 -0.298089 2.412542 0.062118 1.096276 0.108654 -1.511528 -1.040923 0.655819 -0.717603 0.270687 0.331094 0.495315 -0.075393 0.077409 0.801017 -0.405955 0.586204 -0.489102 0.624955 0.610197 -0.344061 -1.073870 -1.711812 0.368845 0.040442 -0.055942 0.016216 -0.627375 0.722792 -1.165741 -0.129279 0.535212 0.308048 -1.392641 -0.031447 -0.878025 -0.642879 0.281610 0.793772 0.653871 -0.096687 2.823643 0.481335 -1.140652 2.641150 -0.945824 0.280828 -0.702419 -1.561635 -1.084530 -0.872269 2.597660 -0.801988 -1.950594 -1.217911 0.841874 0.499606 -0.775675 0.996442 0.029283 -0.298575 -0.083554 2.317432 -0.155220 -1.718314 1.370632 1.790904 0.699815 -1.091495 0.016321 -0.802696 0.375908 -0.920211 1.638265 0.476140 -0.121805 1.102513 -0.899538 2.058607 -0.408161 0.475814 -1.373835 -0.007014 -0.851218 1.003304 0.634283 -1.277978 1.984678 -1.072986 -0.573803 2.122397 1.324363 -1.500197 0.017511 -1.762877 -1.296988 -0.254737 0.121059 -1.789643 -1.040304 1.155832 0.027561 1.051129 -0.189550 -0.117359 1.845974 1.387864 0.162609 0.219892 -2.369277 1.769246 -2.465174 0.533490 -0.696952 -0.488044 -0.062485 -1.757400 0.463682 1.013958 0.720340 -0.316958 -0.911169 -1.401130 1.563698 1.710930 -0.699395 -1.186167 0.225216 1.191683 -0.036314 0.608520 0.282420 0.472651 1.525342 -0.623816 -0.445415 -0.372302 1.335976 -0.015700 0.898862 -0.076266 -2.429608 0.140596 0.624572 -0.727101 1.150247 0.018328 -1.377012 1.125074 -0.192015 2.297562 -0.116752 -1.742663 1.561811 -0.559217 0.497807 0.161994 1.745457 0.630460 -0.025549 0.125289 0.059378 0.055463 -0.180237 0.571242 -0.425250 -0.933542 0.298973 -1.613490 0.516411 1.956179 -2.118805 -0.378927 -1.083556 -0.849885 0.130261 -1.148932 -0.132045 -0.817066 -0.380631 -0.273424 -2.916163 2.086471 -0.508008 0.542147 -1.215369 0.079722 0.199060 0.075609 -0.163366 -0.365903 0.731370 -0.269102 -1.872324 0.276598 -1.766903 -0.569372 -1.540309 0.393960 2.078228 -1.796183 -1.049298 0.059420 -0.083397 1.496792 -1.853549 1.236395 -0.602098 -1.070996 -0.019747 -0.409638 0.423302 0.241979 0.224935 -1.454093 0.013735 -0.152976 0.496007 -0.685782 0.299035 -0.548320 0.630390 -0.392379 -0.434690 -0.416591 2.203216 -0.143078 0.917644 -3.568256 -0.836369 0.897395 0.145277 -0.984356 0.132892 1.326850 1.383622 2.094765 0.500528 0.483621 1.393510 0.097253 -0.014612 -1.003502 1.804937 0.424034 0.441769 0.452391 -0.423221 0.771652 0.472783 1.057787 0.748046 -0.120124 -0.746927 0.407489 1.067959 2.399661 0.048375 -0.557235 -0.946971 -0.625774 -0.715572 -0.144188 -0.405907 -1.948500 0.657526 -0.295361 -0.150777 -1.039828 0.822452 -0.303126 -0.994678 1.924468 -0.429538 -2.703258 0.653425 -0.745011 -0.651441 0.335757 0.049114 -0.611593 0.766847 -1.238304 -0.146774 -0.215810 -0.383291 -1.215635 0.844282 0.631397 -0.287671 -0.059925 -0.106237 0.824434 -0.316406 -0.345591 0.535332 -1.304149 -0.875439 0.066619 -0.162740 1.624176 -0.523035 -1.088133 -0.607580 0.371665 -0.855377 0.854469 -0.405445 -0.119014 -2.416853 -0.062598 -0.333043 -0.539652 0.330446 -0.725297 -0.237352 0.022368 -0.033979 0.665554 0.380960 -0.608375 -1.241490 0.853998 -1.276108 1.581437 0.990841 -0.958890 -0.357017 -0.239207 -0.307661 0.421276 0.030460 0.811716 0.872091 0.920693 -0.923185 1.094124 -2.020703 -0.817192 0.852434 0.353327 -0.438413 -0.117733 -1.705363 0.562857 0.205392 0.642833 0.409488 0.491782 -1.071074 -1.515957 0.437181 -0.151868 0.537077 0.326688 1.333574 -1.230964 0.245023 1.737101 0.091503 0.048717 0.851024 -1.023686 0.391342 -0.656399 -0.780417 1.049322 -1.970170 1.240697 0.047399 1.043831 0.041290 0.063664 1.832932 -0.406693 -0.217753 0.584916 0.397662 0.371004 -1.475508 2.373175 -0.885366 0.427940 0.277192 1.001325 0.935898 0.781028 1.516454 -0.518845 -0.995797 1.782380 -1.559916 -2.060257 -0.788467 -0.826949 0.326256 2.009525 -0.254267 -0.631617 -0.953200 0.952699 1.296381 -0.175201 -1.030964 0.327408 -0.356871 0.675577 1.153327 0.693068 -0.115746 0.192349 0.232479 0.152755 -1.753125 1.129390 -1.077136 0.202318 0.239336 0.187006 -1.426166 -0.122598 0.614785 0.302632 -1.456935 -0.207560 -0.114212 -0.886959 0.168873 -0.145009 0.791395 -0.985383 0.270660 1.053102 -0.960101 0.211811 0.860309 0.621234 -1.117597 1.000982 -1.121902 -0.755418 1.099809 -1.258339 -0.849212 1.180276 -1.809206 0.549983 0.339271 1.881992 0.678837 -0.153311 0.038321 -0.788051 -0.648198 0.872403 0.346008 0.332987 0.567647 -1.076720 0.279127 -0.814511 -0.928640 -0.080651 1.560521 -1.353288 1.096538 -1.694843 -2.089265 0.946832 1.027625 0.611483 -0.197376 1.111459 -1.465662 -0.882380 0.644970 -0.101373 -1.025473 0.198721 0.278376 -0.388926 -1.906610 0.065448 -0.277814 0.578722 -0.496634 0.569371 0.700895 -0.129275 -0.964788 -0.080422 1.499094 1.010211 -0.027335 1.053523 -0.712539 -0.324847 -0.458680 -0.787359 0.079067 -1.765299 -1.239760 -0.009091 -0.916997 0.136165 -0.926006 0.165388 0.214097 0.223371 -0.725690 -1.447246 0.616184 1.124173 -0.122324 1.727573 0.556402 -0.118478 0.105128 -0.164619 -0.401714 -0.485548 -2.294436 0.876777 -0.243683 -0.125526 -0.041972 -0.043868 0.971787 0.750117 0.510539 -1.393591 -0.925664 0.063415 0.668445 0.313544 1.104067 0.180823 0.522540 0.575681 -0.597448 0.249960 -0.040852 3.410242 -0.890041 1.502587 0.469055 0.490140 0.418253 -0.010853 -1.073351 0.085815 0.124014 0.049271 0.153463 1.043964 0.019830 0.182882 0.169652 0.066119 0.941602 1.541980 0.338290 -0.376684 0.812758 -0.269882 -1.120273 -0.153410 1.397183 0.218572 0.458378 0.545618 1.503785 -0.415123 -0.327089 0.415140 -0.691040 0.450020 -0.613258 0.479110 0.526551 -1.228546 -0.870605 -0.762796 1.066600 -1.093674 0.978508 -0.955658 -2.183492 -0.613272 0.044334 -0.266844 -0.297535 -0.151203 1.007795 -1.547570 1.562541 1.776191 0.395979 -1.242996 0.900356 -0.208714 -0.984666 -0.042202 -0.426446 -0.229129 0.871832 1.543618 -0.468393 2.616654 1.118365 -0.800732 0.414708 0.970288 -1.140247 -0.831038 -0.800461 -0.708884 0.483409 1.161887 0.872923 0.098927 0.415438 0.398636 0.253665 -0.858993 0.930079 0.618997 0.641499 -1.047745 1.105411 -0.025116 1.760316 1.231373 0.940178 0.184111 -1.343631 -0.069198 -1.243688 -1.226500 0.553222 -0.542806 0.781706 0.033550 -0.629921 0.519141 -0.614790 2.885718 -0.608939 -0.195531 -0.777076 -0.484681 -0.423788 -1.543523 -0.562480 -0.538435 -0.202509 0.848991 1.616225 -0.372048 -0.907894 1.091382 -1.147190 2.593729 0.837927 -1.011182 -1.182558 -0.771136 0.994479 -2.267828 -0.189883 0.544784 2.451880 0.484124 -0.251805 0.856250 -0.205691 1.543986 0.746218 -0.410295 -1.780215 0.659659 -0.505994 1.234978 -1.008930 -0.756550 0.564484 -0.360062 0.632949 0.308404 0.239063 2.097521 -0.030057 1.033935 -0.900747 -0.652381 -0.625679 1.015219 -0.317280 1.613311 -1.171485 0.344307 -1.335878 -0.302172 0.345048 0.839411 -1.944754 1.449392 -0.482558 -1.978631 1.150281 -1.373593 0.692340 -0.343534 -0.213212 0.026122 1.069352 -0.123028 -0.141069 -0.097297 -1.019521 -0.726743 -1.600099 0.376810 -0.741486 0.364042 -1.426525 -0.054452 0.897873 1.464272 0.203320 -0.662758 0.565378 -1.305574 -1.037600 -1.172625 0.540306 0.340442 -0.479145 -0.146454 0.060838 0.162985 -0.035200 -1.172245 -2.783535 -0.360315 0.377288 -0.774260 1.208977 -0.795289 0.628651 0.661744 0.353009 -0.782393 -0.689893 1.131458 -0.139070 -0.018119 -0.916757 -0.643554 -0.470757 -1.427661 -0.471970 -0.575138 -0.415917 -0.248114 0.731974 0.590125 1.425169 -1.531572 0.657606 0.392291 -1.612034 -0.436087 1.136964 1.685070 -0.267247 0.919689 -0.119756 -0.777617 -0.699252 -1.928730 0.868110 1.389680 -0.599931 1.651530 0.634944 -0.128016 -0.955975 -0.227192 0.319001 1.011877 -0.984830 -0.566784 -0.171655 0.793845 1.317546 -0.114663 1.757033 -1.094049 0.374370 -0.670991 0.122324 -1.014141 -0.035187 0.827467 -0.149859 1.062819 -0.914995 2.069584 1.499618 1.143076 -0.795738 -1.342561 -0.950649 -0.960482 0.644052 0.105030 0.242176 -0.273912 0.178603 0.241714 -0.855206 -0.021026 0.605517 -1.300914 0.093011 0.991414 -0.981800 -0.601866 1.169706 -0.170860 0.895266 -1.053864 0.115001 -0.695580 1.206453 0.687074 -0.412312 2.563057 -0.585147 -0.117298 -0.104576 0.571590 1.164836 -0.065222 -0.850021 0.439160 -1.259923 1.634965 -0.814801 1.085016 -0.814166 0.483482 -0.400091 -0.342986 -0.344888 -0.461295 -0.352017 0.588859 -2.126984 0.258075 -0.751145 1.999335 -0.301449 0.742202 -0.130534 0.988667 -0.924889 -0.000158 1.554552 0.152661 -1.409585 -0.967680 -0.739212 0.240142 -0.048782 1.472852 -0.528419 0.968123 0.097282 -0.806492 -1.598790 0.217227 -0.162957 1.580081 0.456952 -0.226990 0.262908 -1.488965 1.341764 1.427167 -0.861908 0.460175 -1.178980 1.126368 -0.960422 0.789074 -0.556627 -0.335102 1.708198 -2.234808 -1.494150 0.468468 0.074038 0.848189 -2.023966 -1.378151 -1.725112 1.297112 -0.363465 1.263852 -0.679627 -0.099689 -1.492430 1.391765 -1.110514 0.645856 0.409604 0.409583 -0.180087 -0.899646 -0.750406 -0.845413 -0.014712 0.577805 2.230732 0.206953 -0.249541 0.051600 -0.070390 -0.330629 1.099789 -1.187355 -0.677158 -0.247128 0.697327 -0.411745 -0.422018 -0.434422 0.563671 -0.360083 0.583955 0.392906 -2.289391 1.043210 1.423126 -0.786394 0.421984 0.300024 0.358389 -3.080859 0.157479 -0.380459 -0.403992 -1.177320 -0.096007 0.105864 -0.582267 -0.461976 -0.641058 -0.540882 0.419684 0.197687 1.036202 -1.705286 0.659425 -1.374511 1.466305 -0.906843 -0.808609 0.343055 -0.594401 0.558223 1.148576 0.807282 0.730514 0.763375 -1.133533 1.830944 -3.250455 0.034586 0.596099 0.268984 -0.474256 -1.113494 0.189577 -1.600363 0.447984 1.602918 0.240696 -0.340711 0.023660 1.889243 -1.242636 -1.046416 -1.178376 -0.194885 0.751517 0.463291 0.414300 0.620749 -0.979607 0.151427 0.709771 2.009613 0.594876 -1.980310 -1.183338 -0.873800 0.830856 0.996255 -0.374985 0.923118 -0.550732 -0.947224 0.910773 1.095340 -2.073495 0.280201 0.210319 0.333330 0.440690 1.055247 -0.110734 0.146828 0.156401 0.849884 -0.254050 0.692904 0.500672 -1.300478 0.056174 0.776340 0.464586 -2.270528 -0.790360 1.067051 -0.979097 0.174037 0.817639 -1.045480 0.473150 0.321404 -0.829512 -1.490281 1.417603 -0.036152 -0.777389 0.428538 -0.603747 0.607432 -0.463291 -1.426158 -1.165394 -0.925893 0.042238 -1.011581 -1.653812 -2.092212 0.198008 -0.028151 0.706388 0.504307 -0.308963 0.132590 0.167081 -0.955337 -0.998847 0.753579 -0.486252 -0.235136 -2.731666 0.621484 -0.561538 0.286636 0.901772 -0.243717 -0.684436 0.561208 1.181143 0.679970 1.367738 -1.641367 -0.114740 0.836594 -0.476787 -0.536042 -0.585796 1.332988 1.153181 1.038504 -0.912122 1.253819 -0.793178 1.055154 0.516792 -0.628110 -0.251392 0.790561 -0.262943 0.680032 0.443300 0.293512 -0.478052 0.590367 -0.509367 -0.408049 0.504782 1.127741 -0.818495 -0.427585 1.481520 0.202985 1.140592 -0.106790 -0.034898 0.167424 0.138155 -0.054392 0.732849 -1.188472 0.097756 -0.780949 -0.635163 -0.550712 0.301449 0.174630 0.241130 0.357965 0.376500 -2.239763 -0.847632 0.795942 -1.468376 -1.102328 0.876369 -0.142357 1.114399 0.900248 1.497602 1.324614 1.189609 -0.843924 -0.615531 -1.456578 -1.395860 0.391222 -1.751013 -0.314638 1.700914 -0.294884 -0.809867 0.288285 3.557270 -0.880841 0.429690 -0.612662 -1.226691 0.981883 -0.599803 -0.734513 -0.487805 1.602435 -2.230547 0.270676 -0.871530 0.072523 -0.840570 -0.802987 0.255101 -0.614767 -0.316950 0.520796 0.355967 1.217601 0.111632 0.167560 1.111590 -0.915823 1.034746 1.468039 -1.570311 2.559590 -0.747830 -1.286158 0.860827 1.224347 -0.923952 1.205412 1.782970 -1.106107 0.478502 0.150842 -0.958122 1.042372 -2.090686 0.162889 0.208330 -0.666375 0.428118 -1.496838 0.689061 2.245045 -0.957129 -0.564794 0.541105 -2.242440 0.962073 -0.559503 0.230001 0.367328 0.487738 1.443871 -0.523937 1.466871 -0.829109 0.271416 0.992127 -0.225302 -0.046323 0.034426 -0.796704 -0.588583 0.331732 0.035092 0.065543 -1.590114 -1.091680 -0.832416 0.080630 0.693570 1.305479 0.347826 -1.059243 0.374866 0.135930 1.603744 0.051370 -1.720940 -1.027634 0.225453 0.043032 -1.108758 -1.005725 1.013192 0.964836 1.789984 -0.344591 -0.942763 0.325235 1.822648 0.205078 -0.807217 0.404205 -1.267506 0.132804 -1.041773 -0.230168 0.624287 0.543931 -0.277600 0.001322 -0.753352 0.257665 2.636125 0.001141 0.228799 -1.313229 0.073804 -0.901286 -1.035307 0.568795 2.042023 0.992870 -1.435514 1.037961 1.638223 -1.506095 0.388535 0.769935 -1.085241 0.458279 0.286954 0.155650 1.167845 0.860923 1.527996 -1.270656 0.145963 0.887764 -1.243245 -0.119211 -0.297081 0.687125 0.728567 -1.063741 0.161685 -0.723205 -1.440456 -0.417959 1.160090 1.723336 -0.164030 -0.611166 -0.227861 -0.116071 -0.353579 -1.600445 0.343726 1.223726 -0.550477 -1.020244 -0.717156 -0.602738 0.256585 -1.022078 0.842654 -0.075147 -1.476012 0.812328 -0.458701 -0.436198 0.426720 1.939755 0.713469 0.934867 -0.861654 0.305628 0.162306 0.685213 -0.620436 -0.456754 -0.127833 -0.844730 -0.616650 0.187654 -0.022314 -0.879935 1.206663 0.058950 1.120996 0.056974 0.911566 0.721028 -1.179804 -0.009457 -1.085657 -0.889634 0.069327 -0.113596 -0.049983 -0.732480 -0.420319 -0.333128 2.312302 -0.192144 -0.934090 0.346197 -0.589053 0.472723 -0.786884 0.051878 0.919747 -0.889197 0.352046 0.218549 -0.720477 1.197174 0.734600 -1.208723 1.047175 -0.103212 -0.947995 0.158628 -0.137734 -1.065920 -0.731397 -1.528034 -2.129174 0.968669 0.440914 -1.455910 0.883908 0.754672 0.770195 -0.206412 -0.343474 0.488612 2.131988 -1.088999 0.104572 1.033006 -1.796765 0.478482 0.870974 -1.290976 0.100593 -1.674476 -1.300768 -1.012829 -1.046073 -1.096375 -0.019601 0.921294 -0.035103 0.242349 -0.631424 1.273277 0.806755 1.339221 0.115173 -0.609373 -0.245116 0.610939 1.092700 -2.038801 1.142651 -0.017171 1.067739 0.895974 -0.280534 -0.090948 0.878311 -0.297242 0.520481 -0.529111 0.499650 1.362690 1.960536 -0.157450 0.100887 -0.686937 0.308207 1.792260 -1.572856 -0.207020 -0.897605 -0.518647 1.347931 1.647037 0.364459 1.518422 1.506852 0.491422 0.509403 1.054019 -0.263780 2.488927 -0.738404 -0.331472 -0.920855 -0.733513 -1.587566 2.025189 -0.447356 -0.080661 0.388152 0.474738 0.564455 -0.546077 1.151461 -0.120638 0.135951 -2.441874 -0.059508 -1.057595 1.683203 0.235036 -1.484407 -0.684657 -1.244684 3.399290 -0.457177 0.542635 0.593169 -0.055000 -0.584720 -0.638641 -0.882263 -1.800798 0.381390 0.126830 0.269013 -0.388201 -1.006598 -1.580929 -2.233505 1.439562 0.630706 -0.321600 1.014880 0.241137 0.553089 -1.359524 0.344301 -1.037151 0.035363 -0.009004 -0.860098 -1.291150 0.826237 -0.418606 0.438216 0.280815 -0.652156 0.617658 0.493662 -0.580161 -0.505677 0.400373 -0.679821 0.403424 0.233189 1.932568 -0.135911 0.980189 -0.094171 -0.931709 0.128114 -1.123389 -1.032169 -1.765802 0.391382 0.225220 -0.614915 1.398403 -0.677337 -2.044627 1.067386 0.409306 0.155882 -0.716476 -1.385823 -0.008237 -0.873834 -0.063189 0.484701 0.354800 0.507610 0.603636 -0.314954 0.662703 1.230657 0.731256 0.574763 0.551939 -2.065607 -0.580483 -0.734225 1.678604 -0.699087 0.473412 1.522328 -0.267094 0.089350 -0.175494 2.221083 0.659295 0.640866 -1.130155 0.279972 -0.585857 0.173668 1.529702 -0.756521 -1.084201 -0.589435 -0.440301 -1.367379 1.326739 1.561361 -0.373141 0.246931 1.264937 1.037580 -1.862525 0.116174 -1.167296 -0.865387 -0.659388 -0.711959 1.262623 0.223751 -0.519180 0.560041 0.461310 -1.410650 1.472674 0.830091 -0.188579 -1.626819 -1.217682 1.608718 0.140552 -0.022335 -0.960346 0.420565 -1.194193 0.803550 1.105010 -0.194369 -0.761749 1.302228 0.144751 -2.457304 -0.198373 -0.594158 0.337883 1.127623 -0.064623 -0.617602 0.775008 0.546406 -0.694537 -0.693303 1.034962 -0.986568 0.314902 0.193348 -1.645231 2.399388 -0.135168 -0.967246 -0.633329 1.224792 -0.015067 1.760254 -0.531910 -2.028987 0.517806 0.127695 -1.930788 0.988145 -1.197329 0.181743 0.364144 -0.686329 -0.516732 1.320106 -0.034825 0.848350 1.616386 -0.462579 1.694825 1.256850 -0.882879 -0.642635 -0.652804 1.943478 0.486968 -0.444219 0.692684 -1.001903 -0.570605 -0.714317 -0.981315 -0.948557 -0.730054 -1.434836 1.622350 -0.513882 0.571801 -0.412037 3.214969 1.591835 0.475052 -0.373430 -0.272096 0.695111 1.061444 -0.411662 -0.353983 0.005183 -0.708211 