10.12902659507164848662 2.49982828907800636031 5.04289439107588677302 5.04289439107588677302 2.49982828907800636031 7.58596049307376762982 10.12902659507164848662 10.12902659507164848662 5.04289439107588677302 2.49982828907800636031 2.49982828907800636031 2.49982828907800636031 -0.04323781291987410097 2.49982828907800636031 5.04289439107588677302 5.04289439107588677302 5.04289439107588677302 7.58596049307376762982 7.58596049307376762982 5.04289439107588677302 10.12902659507164848662 7.58596049307376762982 7.58596049307376762982 10.12902659507164848662 7.58596049307376762982 7.58596049307376762982 2.49982828907800636031 7.58596049307376762982 2.49982828907800636031 -2.58630391491775446511 7.58596049307376762982 5.04289439107588677302 2.49982828907800636031 7.58596049307376762982 2.49982828907800636031 -0.04323781291987410097 5.04289439107588677302 2.49982828907800636031 7.58596049307376762982 2.49982828907800636031 -0.04323781291987410097 2.49982828907800636031 -0.04323781291987410097 2.49982828907800636031 10.12902659507164848662 5.04289439107588677302 5.04289439107588677302 2.49982828907800636031 -0.04323781291987410097 2.49982828907800636031 2.49982828907800636031 12.67209269706953023160 2.49982828907800636031 2.49982828907800636031 -0.04323781291987410097 5.04289439107588677302 5.04289439107588677302 5.04289439107588677302 -0.04323781291987410097 10.12902659507164848662 2.49982828907800636031 -0.04323781291987410097 10.12902659507164848662 2.49982828907800636031 -0.04323781291987410097 -0.04323781291987410097 -0.04323781291987410097 -0.04323781291987410097 5.04289439107588677302 -0.04323781291987410097 5.04289439107588677302 5.04289439107588677302 -0.04323781291987410097 -0.04323781291987410097 5.04289439107588677302 -2.58630391491775446511 -0.04323781291987410097 2.49982828907800636031 2.49982828907800636031 5.04289439107588677302 -0.04323781291987410097 -0.04323781291987410097 -0.04323781291987410097 -0.04323781291987410097 7.58596049307376762982 -0.04323781291987410097 10.12902659507164848662 -0.04323781291987410097 -0.04323781291987410097 2.49982828907800636031 2.49982828907800636031 5.04289439107588677302 -2.58630391491775446511 -0.04323781291987410097 2.49982828907800636031 -0.04323781291987410097 -0.04323781291987410097 2.49982828907800636031 -0.04323781291987410097 -0.04323781291987410097 -2.58630391491775446511 2.49982828907800636031 2.49982828907800636031 5.04289439107588677302 2.49982828907800636031 2.49982828907800636031 -2.58630391491775446511 -2.58630391491775446511 -0.04323781291987410097 5.04289439107588677302 2.49982828907800636031 -2.58630391491775446511 -0.04323781291987410097 -0.04323781291987410097 10.12902659507164848662 -0.04323781291987410097 2.49982828907800636031 2.49982828907800636031 -2.58630391491775446511 -0.04323781291987410097 2.49982828907800636031 2.49982828907800636031 -5.12937001691563487782 -0.04323781291987410097 -2.58630391491775446511 -0.04323781291987410097 -0.04323781291987410097 -2.58630391491775446511 -0.04323781291987410097 -0.04323781291987410097 2.49982828907800636031 -2.58630391491775446511 -2.58630391491775446511 2.49982828907800636031 -0.04323781291987410097 -0.04323781291987410097 -5.12937001691563487782 -2.58630391491775446511 -0.04323781291987410097 2.49982828907800636031 5.04289439107588677302 2.49982828907800636031 -0.04323781291987410097 -2.58630391491775446511 -7.67243611891351573462 -2.58630391491775446511 -0.04323781291987410097 -0.04323781291987410097 -2.58630391491775446511 -0.04323781291987410097 2.49982828907800636031 -2.58630391491775446511 -0.04323781291987410097 5.04289439107588677302 -0.04323781291987410097 2.49982828907800636031 -5.12937001691563487782 -0.04323781291987410097 -2.58630391491775446511 -0.04323781291987410097 2.49982828907800636031 -0.04323781291987410097 -2.58630391491775446511 -2.58630391491775446511 -0.04323781291987410097 -2.58630391491775446511 -2.58630391491775446511 -0.04323781291987410097 -0.04323781291987410097 2.49982828907800636031 -2.58630391491775446511 -2.58630391491775446511 -0.04323781291987410097 -0.04323781291987410097 -2.58630391491775446511 -0.04323781291987410097 -0.04323781291987410097 -5.12937001691563487782 -7.67243611891351573462 -2.58630391491775446511 -0.04323781291987410097 2.49982828907800636031 2.49982828907800636031 -0.04323781291987410097 -0.04323781291987410097 -2.58630391491775446511 -0.04323781291987410097 -0.04323781291987410097 -0.04323781291987410097 7.58596049307376762982 2.49982828907800636031 -0.04323781291987410097 -5.12937001691563487782 -0.04323781291987410097 -0.04323781291987410097 2.49982828907800636031 2.49982828907800636031 7.58596049307376762982 -0.04323781291987410097 2.49982828907800636031 -0.04323781291987410097 7.58596049307376762982 5.04289439107588677302 7.58596049307376762982 2.49982828907800636031 -0.04323781291987410097 7.58596049307376762982 5.04289439107588677302 2.49982828907800636031 2.49982828907800636031 2.49982828907800636031 7.58596049307376762982 7.58596049307376762982 5.04289439107588677302 10.12902659507164848662 5.04289439107588677302 7.58596049307376762982 5.04289439107588677302 7.58596049307376762982 5.04289439107588677302 -0.04323781291987410097 5.04289439107588677302 7.58596049307376762982 2.49982828907800636031 12.67209269706953023160 5.04289439107588677302 7.58596049307376762982 10.12902659507164848662 7.58596049307376762982 5.04289439107588677302 5.04289439107588677302 5.04289439107588677302 2.49982828907800636031 7.58596049307376762982 10.12902659507164848662 7.58596049307376762982 12.67209269706953023160 7.58596049307376762982 7.58596049307376762982 7.58596049307376762982 7.58596049307376762982 10.12902659507164848662 10.12902659507164848662 7.58596049307376762982 10.12902659507164848662 7.58596049307376762982 10.12902659507164848662 7.58596049307376762982 10.12902659507164848662 15.21515879906741020022 10.12902659507164848662 5.04289439107588677302 7.58596049307376762982 5.04289439107588677302 7.58596049307376762982 5.04289439107588677302 12.67209269706953023160 10.12902659507164848662 5.04289439107588677302 5.04289439107588677302 2.49982828907800636031 12.67209269706953023160 5.04289439107588677302 10.12902659507164848662 15.21515879906741020022 5.04289439107588677302 7.58596049307376762982 10.12902659507164848662 5.04289439107588677302 7.58596049307376762982 7.58596049307376762982 2.49982828907800636031 2.49982828907800636031 2.49982828907800636031 -0.04323781291987410097 2.49982828907800636031 5.04289439107588677302 7.58596049307376762982 2.49982828907800636031 2.49982828907800636031 7.58596049307376762982 -0.04323781291987410097 2.49982828907800636031 2.49982828907800636031 2.49982828907800636031 10.12902659507164848662 2.49982828907800636031 2.49982828907800636031 5.04289439107588677302 -0.04323781291987410097 -0.04323781291987410097 2.49982828907800636031 -0.04323781291987410097 2.49982828907800636031 5.04289439107588677302 -0.04323781291987410097 2.49982828907800636031 -0.04323781291987410097 -5.12937001691563487782 -0.04323781291987410097 -2.58630391491775446511 -2.58630391491775446511 -2.58630391491775446511 -2.58630391491775446511 -5.12937001691563487782 -2.58630391491775446511 -0.04323781291987410097 -0.04323781291987410097 -0.04323781291987410097 -0.04323781291987410097 -5.12937001691563487782 -2.58630391491775446511 -5.12937001691563487782 2.49982828907800636031 -0.04323781291987410097 -2.58630391491775446511 -2.58630391491775446511 -0.04323781291987410097 2.49982828907800636031 2.49982828907800636031 2.49982828907800636031 -0.04323781291987410097 -5.12937001691563487782 -5.12937001691563487782 2.49982828907800636031 2.49982828907800636031 5.04289439107588677302 2.49982828907800636031 -2.58630391491775446511 -0.04323781291987410097 -2.58630391491775446511 7.58596049307376762982 -0.04323781291987410097 2.49982828907800636031 2.49982828907800636031 -0.04323781291987410097 -0.04323781291987410097 -0.04323781291987410097 7.58596049307376762982 5.04289439107588677302 5.04289439107588677302 2.49982828907800636031 5.04289439107588677302 -2.58630391491775446511 -0.04323781291987410097 -0.04323781291987410097 2.49982828907800636031 5.04289439107588677302 2.49982828907800636031 2.49982828907800636031 2.49982828907800636031 5.04289439107588677302 -0.04323781291987410097 5.04289439107588677302 2.49982828907800636031 -0.04323781291987410097 -0.04323781291987410097 2.49982828907800636031 5.04289439107588677302 2.49982828907800636031 2.49982828907800636031 5.04289439107588677302 -0.04323781291987410097 2.49982828907800636031 7.58596049307376762982 7.58596049307376762982 -0.04323781291987410097 -2.58630391491775446511 -5.12937001691563487782 5.04289439107588677302 -2.58630391491775446511 -2.58630391491775446511 5.04289439107588677302 -2.58630391491775446511 -0.04323781291987410097 -0.04323781291987410097 -0.04323781291987410097 -0.04323781291987410097 2.49982828907800636031 2.49982828907800636031 2.49982828907800636031 2.49982828907800636031 2.49982828907800636031 -2.58630391491775446511 -0.04323781291987410097 -0.04323781291987410097 5.04289439107588677302 -0.04323781291987410097 -0.04323781291987410097 -5.12937001691563487782 -5.12937001691563487782 2.49982828907800636031 -0.04323781291987410097 -0.04323781291987410097 -0.04323781291987410097 -2.58630391491775446511 -2.58630391491775446511 -0.04323781291987410097 -5.12937001691563487782 -2.58630391491775446511 -2.58630391491775446511 -5.12937001691563487782 -2.58630391491775446511 -2.58630391491775446511 -2.58630391491775446511 2.49982828907800636031 -2.58630391491775446511 -2.58630391491775446511 -2.58630391491775446511 -2.58630391491775446511 -5.12937001691563487782 2.49982828907800636031 -0.04323781291987410097 -0.04323781291987410097 -7.67243611891351573462 -7.67243611891351573462 -7.67243611891351573462 -5.12937001691563487782 -0.04323781291987410097 -2.58630391491775446511 -2.58630391491775446511 -5.12937001691563487782 -5.12937001691563487782 -5.12937001691563487782 -5.12937001691563487782 2.49982828907800636031 -2.58630391491775446511 -0.04323781291987410097 -2.58630391491775446511 -5.12937001691563487782 -5.12937001691563487782 -7.67243611891351573462 -5.12937001691563487782 -0.04323781291987410097 -0.04323781291987410097 -5.12937001691563487782 -7.67243611891351573462 -5.12937001691563487782 -2.58630391491775446511 -5.12937001691563487782 -2.58630391491775446511 -2.58630391491775446511 -5.12937001691563487782 -7.67243611891351573462 -7.67243611891351573462 -2.58630391491775446511 -2.58630391491775446511 -2.58630391491775446511 -2.58630391491775446511 -5.12937001691563487782 -5.12937001691563487782 -0.04323781291987410097 -2.58630391491775446511 -2.58630391491775446511 -5.12937001691563487782 -7.67243611891351573462 -5.12937001691563487782 -7.67243611891351573462 -5.12937001691563487782 -2.58630391491775446511 -5.12937001691563487782 -2.58630391491775446511 -5.12937001691563487782 -2.58630391491775446511 -5.12937001691563487782 -2.58630391491775446511 -7.67243611891351573462 2.49982828907800636031 -5.12937001691563487782 -0.04323781291987410097 -2.58630391491775446511 -2.58630391491775446511 -7.67243611891351573462 -5.12937001691563487782 -0.04323781291987410097 -5.12937001691563487782 -0.04323781291987410097 -5.12937001691563487782 -7.67243611891351573462 -7.67243611891351573462 -5.12937001691563487782 -0.04323781291987410097 -2.58630391491775446511 -2.58630391491775446511 -2.58630391491775446511 -2.58630391491775446511 -2.58630391491775446511 -5.12937001691563487782 -2.58630391491775446511 -0.04323781291987410097 -0.04323781291987410097 -0.04323781291987410097 -2.58630391491775446511 -5.12937001691563487782 -0.04323781291987410097 5.04289439107588677302 -2.58630391491775446511 -2.58630391491775446511 -0.04323781291987410097 -0.04323781291987410097 -0.04323781291987410097 -0.04323781291987410097 5.04289439107588677302 -2.58630391491775446511 2.49982828907800636031 -2.58630391491775446511 -2.58630391491775446511 -5.12937001691563487782 -0.04323781291987410097 -2.58630391491775446511 -2.58630391491775446511 -2.58630391491775446511 -0.04323781291987410097 -7.67243611891351573462 -5.12937001691563487782 -0.04323781291987410097 2.49982828907800636031 7.58596049307376762982 2.49982828907800636031 -0.04323781291987410097 -0.04323781291987410097 -2.58630391491775446511 -2.58630391491775446511 2.49982828907800636031 -0.04323781291987410097 -0.04323781291987410097 -0.04323781291987410097 -0.04323781291987410097 -0.04323781291987410097 2.49982828907800636031 -0.04323781291987410097 -0.04323781291987410097 2.49982828907800636031 -0.04323781291987410097 -0.04323781291987410097 -5.12937001691563487782 -0.04323781291987410097 5.04289439107588677302 2.49982828907800636031 -0.04323781291987410097 -0.04323781291987410097 -0.04323781291987410097 -5.12937001691563487782 -0.04323781291987410097 2.49982828907800636031 -0.04323781291987410097 2.49982828907800636031 -5.12937001691563487782 -5.12937001691563487782 -5.12937001691563487782 5.04289439107588677302 5.04289439107588677302 5.04289439107588677302 2.49982828907800636031 -2.58630391491775446511 -2.58630391491775446511 7.58596049307376762982 -0.04323781291987410097 -2.58630391491775446511 -0.04323781291987410097 2.49982828907800636031 -0.04323781291987410097 -0.04323781291987410097 5.04289439107588677302 2.49982828907800636031 2.49982828907800636031 2.49982828907800636031 5.04289439107588677302 -5.12937001691563487782 2.49982828907800636031 2.49982828907800636031 7.58596049307376762982 -0.04323781291987410097 -0.04323781291987410097 -2.58630391491775446511 -2.58630391491775446511 -2.58630391491775446511 -0.04323781291987410097 5.04289439107588677302 2.49982828907800636031 -2.58630391491775446511 -2.58630391491775446511 -2.58630391491775446511 2.49982828907800636031 -0.04323781291987410097 -0.04323781291987410097 -0.04323781291987410097 -2.58630391491775446511 -2.58630391491775446511 -5.12937001691563487782 -2.58630391491775446511 -2.58630391491775446511 -2.58630391491775446511 -5.12937001691563487782 -5.12937001691563487782 -2.58630391491775446511 -7.67243611891351573462 -2.58630391491775446511 -5.12937001691563487782 -0.04323781291987410097 -5.12937001691563487782 -0.04323781291987410097 -7.67243611891351573462 -2.58630391491775446511 -5.12937001691563487782 -5.12937001691563487782 -2.58630391491775446511 -2.58630391491775446511 -12.75856832290927656004 -5.12937001691563487782 -2.58630391491775446511 -5.12937001691563487782 -0.04323781291987410097 2.49982828907800636031 -5.12937001691563487782 -5.12937001691563487782 -0.04323781291987410097 -0.04323781291987410097 -5.12937001691563487782 -0.04323781291987410097 -0.04323781291987410097 -5.12937001691563487782 -5.12937001691563487782 -0.04323781291987410097 -0.04323781291987410097 -5.12937001691563487782 -0.04323781291987410097 2.49982828907800636031 -2.58630391491775446511 -7.67243611891351573462 -5.12937001691563487782 -2.58630391491775446511 2.49982828907800636031 -2.58630391491775446511 -2.58630391491775446511 -2.58630391491775446511 -2.58630391491775446511 -2.58630391491775446511 2.49982828907800636031 -2.58630391491775446511 -2.58630391491775446511 -5.12937001691563487782 -2.58630391491775446511 -0.04323781291987410097 2.49982828907800636031 -2.58630391491775446511 -0.04323781291987410097 -0.04323781291987410097 -2.58630391491775446511 -0.04323781291987410097 2.49982828907800636031 5.04289439107588677302 2.49982828907800636031 -2.58630391491775446511 2.49982828907800636031 -2.58630391491775446511 -5.12937001691563487782 -0.04323781291987410097 2.49982828907800636031 2.49982828907800636031 -2.58630391491775446511 -2.58630391491775446511 -2.58630391491775446511 -2.58630391491775446511 -2.58630391491775446511 2.49982828907800636031 -5.12937001691563487782 -0.04323781291987410097 -2.58630391491775446511 -0.04323781291987410097 -2.58630391491775446511 -2.58630391491775446511 -0.04323781291987410097 -2.58630391491775446511 -0.04323781291987410097 -5.12937001691563487782 -7.67243611891351573462 -5.12937001691563487782 -0.04323781291987410097 2.49982828907800636031 5.04289439107588677302 -0.04323781291987410097 -2.58630391491775446511 -0.04323781291987410097 -5.12937001691563487782 -5.12937001691563487782 -0.04323781291987410097 -2.58630391491775446511 -2.58630391491775446511 -0.04323781291987410097 -5.12937001691563487782 -5.12937001691563487782 -2.58630391491775446511 -7.67243611891351573462 -0.04323781291987410097 -5.12937001691563487782 -7.67243611891351573462 -0.04323781291987410097 -7.67243611891351573462 -7.67243611891351573462 -0.04323781291987410097 -7.67243611891351573462 -0.04323781291987410097 -7.67243611891351573462 -5.12937001691563487782 -0.04323781291987410097 -2.58630391491775446511 -2.58630391491775446511 -0.04323781291987410097 -0.04323781291987410097 -2.58630391491775446511 -5.12937001691563487782 -2.58630391491775446511 2.49982828907800636031 2.49982828907800636031 2.49982828907800636031 -5.12937001691563487782 -5.12937001691563487782 -0.04323781291987410097 2.49982828907800636031 5.04289439107588677302 -0.04323781291987410097 2.49982828907800636031 2.49982828907800636031 7.58596049307376762982 -0.04323781291987410097 5.04289439107588677302 2.49982828907800636031 7.58596049307376762982 5.04289439107588677302 5.04289439107588677302 -2.58630391491775446511 2.49982828907800636031 5.04289439107588677302 2.49982828907800636031 5.04289439107588677302 -2.58630391491775446511 2.49982828907800636031 5.04289439107588677302 -0.04323781291987410097 5.04289439107588677302 5.04289439107588677302 2.49982828907800636031 5.04289439107588677302 2.49982828907800636031 10.12902659507164848662 5.04289439107588677302 2.49982828907800636031 2.49982828907800636031 -0.04323781291987410097 -2.58630391491775446511 2.49982828907800636031 7.58596049307376762982 10.12902659507164848662 5.04289439107588677302 2.49982828907800636031 2.49982828907800636031 2.49982828907800636031 5.04289439107588677302 12.67209269706953023160 2.49982828907800636031 5.04289439107588677302 5.04289439107588677302 2.49982828907800636031 2.49982828907800636031 7.58596049307376762982 2.49982828907800636031 7.58596049307376762982 7.58596049307376762982 2.49982828907800636031 2.49982828907800636031 2.49982828907800636031 7.58596049307376762982 5.04289439107588677302 5.04289439107588677302 7.58596049307376762982 2.49982828907800636031 2.49982828907800636031 7.58596049307376762982 5.04289439107588677302 2.49982828907800636031 2.49982828907800636031 2.49982828907800636031 7.58596049307376762982 5.04289439107588677302 2.49982828907800636031 2.49982828907800636031 -0.04323781291987410097 5.04289439107588677302 2.49982828907800636031 -2.58630391491775446511 -0.04323781291987410097 2.49982828907800636031 5.04289439107588677302 5.04289439107588677302 -0.04323781291987410097 -0.04323781291987410097 5.04289439107588677302 -0.04323781291987410097 2.49982828907800636031 5.04289439107588677302 -5.12937001691563487782 2.49982828907800636031 -2.58630391491775446511 -0.04323781291987410097 2.49982828907800636031 -0.04323781291987410097 2.49982828907800636031 2.49982828907800636031 2.49982828907800636031 -2.58630391491775446511 5.04289439107588677302 5.04289439107588677302 5.04289439107588677302 2.49982828907800636031 5.04289439107588677302 -0.04323781291987410097 -0.04323781291987410097 2.49982828907800636031 5.04289439107588677302 2.49982828907800636031 2.49982828907800636031 -0.04323781291987410097 -0.04323781291987410097 2.49982828907800636031 -0.04323781291987410097 5.04289439107588677302 5.04289439107588677302 2.49982828907800636031 2.49982828907800636031 5.04289439107588677302 -2.58630391491775446511 7.58596049307376762982 -0.04323781291987410097 7.58596049307376762982 2.49982828907800636031 -2.58630391491775446511 2.49982828907800636031 5.04289439107588677302 -0.04323781291987410097 2.49982828907800636031 5.04289439107588677302 -0.04323781291987410097 -0.04323781291987410097 -2.58630391491775446511 2.49982828907800636031 2.49982828907800636031 -0.04323781291987410097 2.49982828907800636031 -0.04323781291987410097 -0.04323781291987410097 5.04289439107588677302 -0.04323781291987410097 -2.58630391491775446511 -0.04323781291987410097 5.04289439107588677302 2.49982828907800636031 -0.04323781291987410097 -0.04323781291987410097 -0.04323781291987410097 -5.12937001691563487782 -2.58630391491775446511 -2.58630391491775446511 -2.58630391491775446511 -2.58630391491775446511 -2.58630391491775446511 2.49982828907800636031 2.49982828907800636031 -0.04323781291987410097 -5.12937001691563487782 -0.04323781291987410097 -2.58630391491775446511 2.49982828907800636031 2.49982828907800636031 2.49982828907800636031 2.49982828907800636031 2.49982828907800636031 2.49982828907800636031 -2.58630391491775446511 -2.58630391491775446511 2.49982828907800636031 2.49982828907800636031 2.49982828907800636031 2.49982828907800636031 -2.58630391491775446511 -5.12937001691563487782 -2.58630391491775446511 2.49982828907800636031 2.49982828907800636031 2.49982828907800636031 2.49982828907800636031 2.49982828907800636031 -0.04323781291987410097 -2.58630391491775446511 -0.04323781291987410097 5.04289439107588677302 5.04289439107588677302 2.49982828907800636031 -0.04323781291987410097 -2.58630391491775446511 -0.04323781291987410097 -0.04323781291987410097 -0.04323781291987410097 -2.58630391491775446511 2.49982828907800636031 -0.04323781291987410097 5.04289439107588677302 -5.12937001691563487782 -0.04323781291987410097 -2.58630391491775446511 -0.04323781291987410097 -0.04323781291987410097 -0.04323781291987410097 -0.04323781291987410097 7.58596049307376762982 5.04289439107588677302 5.04289439107588677302 5.04289439107588677302 2.49982828907800636031 -0.04323781291987410097 7.58596049307376762982 10.12902659507164848662 7.58596049307376762982 5.04289439107588677302 -2.58630391491775446511 -0.04323781291987410097 2.49982828907800636031 2.49982828907800636031 -0.04323781291987410097 -0.04323781291987410097 -0.04323781291987410097 -0.04323781291987410097 -2.58630391491775446511 7.58596049307376762982 5.04289439107588677302 5.04289439107588677302 5.04289439107588677302 7.58596049307376762982 2.49982828907800636031 2.49982828907800636031 -2.58630391491775446511 -0.04323781291987410097 2.49982828907800636031 2.49982828907800636031 2.49982828907800636031 2.49982828907800636031 2.49982828907800636031 2.49982828907800636031 -0.04323781291987410097 2.49982828907800636031 7.58596049307376762982 -0.04323781291987410097 -0.04323781291987410097 5.04289439107588677302 5.04289439107588677302 -0.04323781291987410097 -0.04323781291987410097 2.49982828907800636031 2.49982828907800636031 2.49982828907800636031 5.04289439107588677302 5.04289439107588677302 -0.04323781291987410097 -5.12937001691563487782 -0.04323781291987410097 -0.04323781291987410097 7.58596049307376762982 -0.04323781291987410097 -0.04323781291987410097 5.04289439107588677302 -5.12937001691563487782 2.49982828907800636031 2.49982828907800636031 -2.58630391491775446511 2.49982828907800636031 5.04289439107588677302 2.49982828907800636031 -0.04323781291987410097 -5.12937001691563487782 -2.58630391491775446511 -2.58630391491775446511 2.49982828907800636031 -0.04323781291987410097 2.49982828907800636031 -0.04323781291987410097 2.49982828907800636031 -0.04323781291987410097 -0.04323781291987410097 -2.58630391491775446511 -0.04323781291987410097 -2.58630391491775446511 -2.58630391491775446511 -0.04323781291987410097 -0.04323781291987410097 -0.04323781291987410097 -2.58630391491775446511 -2.58630391491775446511 -5.12937001691563487782 -2.58630391491775446511 -2.58630391491775446511 -0.04323781291987410097 2.49982828907800636031 -2.58630391491775446511 -5.12937001691563487782 -5.12937001691563487782 -5.12937001691563487782 -5.12937001691563487782 -0.04323781291987410097 5.04289439107588677302 -2.58630391491775446511 -5.12937001691563487782 -2.58630391491775446511 -5.12937001691563487782 -2.58630391491775446511 -2.58630391491775446511 -2.58630391491775446511 -0.04323781291987410097 -2.58630391491775446511 -2.58630391491775446511 -7.67243611891351573462 -7.67243611891351573462 -2.58630391491775446511 2.49982828907800636031 2.49982828907800636031 2.49982828907800636031 2.49982828907800636031 -0.04323781291987410097 2.49982828907800636031 -5.12937001691563487782 2.49982828907800636031 2.49982828907800636031 -0.04323781291987410097 2.49982828907800636031 -2.58630391491775446511 -0.04323781291987410097 5.04289439107588677302 -2.58630391491775446511 2.49982828907800636031 2.49982828907800636031 2.49982828907800636031 -0.04323781291987410097 -0.04323781291987410097 -5.12937001691563487782 2.49982828907800636031 -0.04323781291987410097 -0.04323781291987410097 -2.58630391491775446511 -2.58630391491775446511 -0.04323781291987410097 5.04289439107588677302 -2.58630391491775446511 -0.04323781291987410097 2.49982828907800636031 2.49982828907800636031 2.49982828907800636031 -2.58630391491775446511 2.49982828907800636031 -2.58630391491775446511 5.04289439107588677302 -2.58630391491775446511 5.04289439107588677302 -0.04323781291987410097 -0.04323781291987410097 2.49982828907800636031 -0.04323781291987410097 -0.04323781291987410097 -0.04323781291987410097 -0.04323781291987410097 -0.04323781291987410097 -5.12937001691563487782 -0.04323781291987410097 -0.04323781291987410097 2.49982828907800636031 -0.04323781291987410097 -0.04323781291987410097 2.49982828907800636031 -2.58630391491775446511 -5.12937001691563487782 -0.04323781291987410097 -0.04323781291987410097 2.49982828907800636031 2.49982828907800636031 -0.04323781291987410097 -0.04323781291987410097 2.49982828907800636031 -2.58630391491775446511 -0.04323781291987410097 5.04289439107588677302 -0.04323781291987410097 2.49982828907800636031 -0.04323781291987410097 2.49982828907800636031 2.49982828907800636031 2.49982828907800636031 -0.04323781291987410097 2.49982828907800636031 5.04289439107588677302 -0.04323781291987410097 -0.04323781291987410097 5.04289439107588677302 2.49982828907800636031 -0.04323781291987410097 2.49982828907800636031 2.49982828907800636031 2.49982828907800636031 5.04289439107588677302 2.49982828907800636031 2.49982828907800636031 -0.04323781291987410097 5.04289439107588677302 7.58596049307376762982 -0.04323781291987410097 -2.58630391491775446511 -0.04323781291987410097 -0.04323781291987410097 2.49982828907800636031 5.04289439107588677302 -0.04323781291987410097 -0.04323781291987410097 -2.58630391491775446511 -0.04323781291987410097 -0.04323781291987410097 -0.04323781291987410097 -0.04323781291987410097 -0.04323781291987410097 -0.04323781291987410097 2.49982828907800636031 2.49982828907800636031 2.49982828907800636031 5.04289439107588677302 5.04289439107588677302 -0.04323781291987410097 -5.12937001691563487782 2.49982828907800636031 2.49982828907800636031 -0.04323781291987410097 5.04289439107588677302 -5.12937001691563487782 5.04289439107588677302 -5.12937001691563487782 2.49982828907800636031 -0.04323781291987410097 -0.04323781291987410097 7.58596049307376762982 2.49982828907800636031 -0.04323781291987410097 -0.04323781291987410097 5.04289439107588677302 -0.04323781291987410097 -2.58630391491775446511 2.49982828907800636031 -2.58630391491775446511 -2.58630391491775446511 -0.04323781291987410097 -0.04323781291987410097 2.49982828907800636031 2.49982828907800636031 -2.58630391491775446511 2.49982828907800636031 5.04289439107588677302 5.04289439107588677302 5.04289439107588677302 2.49982828907800636031 5.04289439107588677302 2.49982828907800636031 5.04289439107588677302 2.49982828907800636031 5.04289439107588677302 5.04289439107588677302 5.04289439107588677302 2.49982828907800636031 2.49982828907800636031 -0.04323781291987410097 -0.04323781291987410097 5.04289439107588677302 2.49982828907800636031 5.04289439107588677302 -0.04323781291987410097 -0.04323781291987410097 -2.58630391491775446511 -0.04323781291987410097 -0.04323781291987410097 2.49982828907800636031 -0.04323781291987410097 2.49982828907800636031 -2.58630391491775446511 2.49982828907800636031 -2.58630391491775446511 -0.04323781291987410097 2.49982828907800636031 -2.58630391491775446511 -0.04323781291987410097 -5.12937001691563487782 -2.58630391491775446511 -2.58630391491775446511 -5.12937001691563487782 -2.58630391491775446511 -5.12937001691563487782 -0.04323781291987410097 -5.12937001691563487782 -2.58630391491775446511 -0.04323781291987410097 -2.58630391491775446511 -7.67243611891351573462 -5.12937001691563487782 -10.21550222091139481506 -2.58630391491775446511 -5.12937001691563487782 -2.58630391491775446511 -5.12937001691563487782 -2.58630391491775446511 -0.04323781291987410097 -2.58630391491775446511 -10.21550222091139481506 -2.58630391491775446511 -0.04323781291987410097 -2.58630391491775446511 -5.12937001691563487782 -5.12937001691563487782 -10.21550222091139481506 -7.67243611891351573462 -5.12937001691563487782 -7.67243611891351573462 -2.58630391491775446511 -5.12937001691563487782 -5.12937001691563487782 -7.67243611891351573462 -5.12937001691563487782 -7.67243611891351573462 -0.04323781291987410097 -5.12937001691563487782 -0.04323781291987410097 -7.67243611891351573462 -7.67243611891351573462 -5.12937001691563487782 -7.67243611891351573462 -2.58630391491775446511 -5.12937001691563487782 -5.12937001691563487782 -0.04323781291987410097 -2.58630391491775446511 -10.21550222091139481506 -2.58630391491775446511 -5.12937001691563487782 2.49982828907800636031 -5.12937001691563487782 -7.67243611891351573462 -5.12937001691563487782 -2.58630391491775446511 -0.04323781291987410097 -5.12937001691563487782 -2.58630391491775446511 -0.04323781291987410097 -5.12937001691563487782 2.49982828907800636031 -2.58630391491775446511 -2.58630391491775446511 -2.58630391491775446511 -2.58630391491775446511 -5.12937001691563487782 -5.12937001691563487782 2.49982828907800636031 -0.04323781291987410097 -0.04323781291987410097 2.49982828907800636031 -0.04323781291987410097 -2.58630391491775446511 -5.12937001691563487782 2.49982828907800636031 5.04289439107588677302 -2.58630391491775446511 5.04289439107588677302 2.49982828907800636031 -2.58630391491775446511 2.49982828907800636031 5.04289439107588677302 2.49982828907800636031 -0.04323781291987410097 -5.12937001691563487782 -2.58630391491775446511 -2.58630391491775446511 -0.04323781291987410097 -0.04323781291987410097 -0.04323781291987410097 2.49982828907800636031 -0.04323781291987410097 -0.04323781291987410097 2.49982828907800636031 5.04289439107588677302 5.04289439107588677302 -0.04323781291987410097 -2.58630391491775446511 2.49982828907800636031 2.49982828907800636031 -0.04323781291987410097 2.49982828907800636031 -0.04323781291987410097 -5.12937001691563487782 2.49982828907800636031 -2.58630391491775446511 -0.04323781291987410097 -0.04323781291987410097 7.58596049307376762982 -2.58630391491775446511 5.04289439107588677302 2.49982828907800636031 -0.04323781291987410097 -0.04323781291987410097 -0.04323781291987410097 2.49982828907800636031 5.04289439107588677302 5.04289439107588677302 -0.04323781291987410097 2.49982828907800636031 -0.04323781291987410097 -0.04323781291987410097 2.49982828907800636031 2.49982828907800636031 2.49982828907800636031 -0.04323781291987410097 -5.12937001691563487782 2.49982828907800636031 -0.04323781291987410097 2.49982828907800636031 5.04289439107588677302 -2.58630391491775446511 -0.04323781291987410097 -7.67243611891351573462 -2.58630391491775446511 -0.04323781291987410097 -0.04323781291987410097 2.49982828907800636031 -5.12937001691563487782 -0.04323781291987410097 -7.67243611891351573462 2.49982828907800636031 -0.04323781291987410097 -2.58630391491775446511 -2.58630391491775446511 -7.67243611891351573462 -2.58630391491775446511 -2.58630391491775446511 -2.58630391491775446511 -2.58630391491775446511 -2.58630391491775446511 -2.58630391491775446511 -2.58630391491775446511 -2.58630391491775446511 -5.12937001691563487782 -5.12937001691563487782 -2.58630391491775446511 -0.04323781291987410097 -5.12937001691563487782 -2.58630391491775446511 -2.58630391491775446511 -2.58630391491775446511 -0.04323781291987410097 -2.58630391491775446511 2.49982828907800636031 -2.58630391491775446511 2.49982828907800636031 -2.58630391491775446511 -0.04323781291987410097 -0.04323781291987410097 -0.04323781291987410097 -7.67243611891351573462 -0.04323781291987410097 -0.04323781291987410097 -5.12937001691563487782 -0.04323781291987410097 2.49982828907800636031 2.49982828907800636031 -2.58630391491775446511 -5.12937001691563487782 -0.04323781291987410097 2.49982828907800636031 2.49982828907800636031 5.04289439107588677302 2.49982828907800636031 2.49982828907800636031 -2.58630391491775446511 5.04289439107588677302 2.49982828907800636031 -0.04323781291987410097 2.49982828907800636031 -0.04323781291987410097 2.49982828907800636031 -0.04323781291987410097 2.49982828907800636031 2.49982828907800636031 5.04289439107588677302 7.58596049307376762982 5.04289439107588677302 5.04289439107588677302 -2.58630391491775446511 5.04289439107588677302 2.49982828907800636031 5.04289439107588677302 5.04289439107588677302 7.58596049307376762982 12.67209269706953023160 -0.04323781291987410097 5.04289439107588677302 2.49982828907800636031 10.12902659507164848662 2.49982828907800636031 7.58596049307376762982 7.58596049307376762982 2.49982828907800636031 7.58596049307376762982 7.58596049307376762982 5.04289439107588677302 7.58596049307376762982 7.58596049307376762982 5.04289439107588677302 2.49982828907800636031 2.49982828907800636031 10.12902659507164848662 5.04289439107588677302 2.49982828907800636031 5.04289439107588677302 2.49982828907800636031 2.49982828907800636031 2.49982828907800636031 5.04289439107588677302 2.49982828907800636031 -0.04323781291987410097 -2.58630391491775446511 2.49982828907800636031 -0.04323781291987410097 5.04289439107588677302 2.49982828907800636031 -0.04323781291987410097 -0.04323781291987410097 -0.04323781291987410097 5.04289439107588677302 5.04289439107588677302 5.04289439107588677302 2.49982828907800636031 2.49982828907800636031 2.49982828907800636031 5.04289439107588677302 2.49982828907800636031 7.58596049307376762982 2.49982828907800636031 5.04289439107588677302 -0.04323781291987410097 -0.04323781291987410097 5.04289439107588677302 7.58596049307376762982 5.04289439107588677302 5.04289439107588677302 -0.04323781291987410097 5.04289439107588677302 5.04289439107588677302 2.49982828907800636031 2.49982828907800636031 2.49982828907800636031 -0.04323781291987410097 -0.04323781291987410097 5.04289439107588677302 -0.04323781291987410097 2.49982828907800636031 2.49982828907800636031 -5.12937001691563487782 -2.58630391491775446511 -0.04323781291987410097 2.49982828907800636031 5.04289439107588677302 -5.12937001691563487782 -0.04323781291987410097 -0.04323781291987410097 -5.12937001691563487782 -0.04323781291987410097 2.49982828907800636031 -0.04323781291987410097 -2.58630391491775446511 -5.12937001691563487782 -0.04323781291987410097 -7.67243611891351573462 -2.58630391491775446511 -2.58630391491775446511 -2.58630391491775446511 -2.58630391491775446511 -0.04323781291987410097 -7.67243611891351573462 -2.58630391491775446511 -7.67243611891351573462 2.49982828907800636031 -0.04323781291987410097 -2.58630391491775446511 -2.58630391491775446511 -0.04323781291987410097 -0.04323781291987410097 -5.12937001691563487782 -2.58630391491775446511 -2.58630391491775446511 -2.58630391491775446511 2.49982828907800636031 -0.04323781291987410097 2.49982828907800636031 -0.04323781291987410097 -0.04323781291987410097 -0.04323781291987410097 2.49982828907800636031 -2.58630391491775446511 -0.04323781291987410097 -0.04323781291987410097 -2.58630391491775446511 -0.04323781291987410097 -5.12937001691563487782 -5.12937001691563487782 -2.58630391491775446511 -0.04323781291987410097 -0.04323781291987410097 2.49982828907800636031 -0.04323781291987410097 -0.04323781291987410097 2.49982828907800636031 -2.58630391491775446511 -5.12937001691563487782 -0.04323781291987410097 -5.12937001691563487782 2.49982828907800636031 -0.04323781291987410097 -2.58630391491775446511 2.49982828907800636031 2.49982828907800636031 -2.58630391491775446511 -2.58630391491775446511 -2.58630391491775446511 2.49982828907800636031 5.04289439107588677302 2.49982828907800636031 -2.58630391491775446511 -2.58630391491775446511 -0.04323781291987410097 -2.58630391491775446511 5.04289439107588677302 5.04289439107588677302 5.04289439107588677302 -0.04323781291987410097 -2.58630391491775446511 -0.04323781291987410097 -5.12937001691563487782 2.49982828907800636031 -0.04323781291987410097 -0.04323781291987410097 -2.58630391491775446511 -2.58630391491775446511 2.49982828907800636031 5.04289439107588677302 -0.04323781291987410097 -0.04323781291987410097 -5.12937001691563487782 -5.12937001691563487782 2.49982828907800636031 7.58596049307376762982 -0.04323781291987410097 -0.04323781291987410097 -2.58630391491775446511 -5.12937001691563487782 -2.58630391491775446511 -2.58630391491775446511 -0.04323781291987410097 -0.04323781291987410097 -0.04323781291987410097 -0.04323781291987410097 -2.58630391491775446511 -5.12937001691563487782 -0.04323781291987410097 -2.58630391491775446511 5.04289439107588677302 2.49982828907800636031 -2.58630391491775446511 -7.67243611891351573462 -5.12937001691563487782 -2.58630391491775446511 -2.58630391491775446511 -2.58630391491775446511 2.49982828907800636031 -5.12937001691563487782 -7.67243611891351573462 -10.21550222091139481506 -5.12937001691563487782 -2.58630391491775446511 -0.04323781291987410097 -0.04323781291987410097 -7.67243611891351573462 -12.75856832290927656004 -7.67243611891351573462 -7.67243611891351573462 -7.67243611891351573462 -2.58630391491775446511 -5.12937001691563487782 -7.67243611891351573462 -5.12937001691563487782 -5.12937001691563487782 -5.12937001691563487782 -5.12937001691563487782 -5.12937001691563487782 -5.12937001691563487782 -10.21550222091139481506 -7.67243611891351573462 -10.21550222091139481506 -7.67243611891351573462 -5.12937001691563487782 -10.21550222091139481506 -5.12937001691563487782 -2.58630391491775446511 -7.67243611891351573462 -2.58630391491775446511 -5.12937001691563487782 -7.67243611891351573462 -0.04323781291987410097 -7.67243611891351573462 -5.12937001691563487782 -5.12937001691563487782 -7.67243611891351573462 -7.67243611891351573462 -7.67243611891351573462 -7.67243611891351573462 -5.12937001691563487782 -2.58630391491775446511 -5.12937001691563487782 -7.67243611891351573462 -7.67243611891351573462 -5.12937001691563487782 -5.12937001691563487782 -5.12937001691563487782 -2.58630391491775446511 -5.12937001691563487782 -2.58630391491775446511 -7.67243611891351573462 -7.67243611891351573462 -7.67243611891351573462 -2.58630391491775446511 -5.12937001691563487782 -2.58630391491775446511 -0.04323781291987410097 -7.67243611891351573462 -5.12937001691563487782 -5.12937001691563487782 -0.04323781291987410097 -2.58630391491775446511 -2.58630391491775446511 -0.04323781291987410097 -2.58630391491775446511 -2.58630391491775446511 -5.12937001691563487782 -2.58630391491775446511 2.49982828907800636031 -0.04323781291987410097 -2.58630391491775446511 -0.04323781291987410097 -0.04323781291987410097 2.49982828907800636031 2.49982828907800636031 -2.58630391491775446511 2.49982828907800636031 5.04289439107588677302 2.49982828907800636031 -0.04323781291987410097 2.49982828907800636031 7.58596049307376762982 -0.04323781291987410097 5.04289439107588677302 -0.04323781291987410097 -5.12937001691563487782 2.49982828907800636031 2.49982828907800636031 2.49982828907800636031 -0.04323781291987410097 -2.58630391491775446511 -0.04323781291987410097 2.49982828907800636031 5.04289439107588677302 2.49982828907800636031 -0.04323781291987410097 -0.04323781291987410097 2.49982828907800636031 -0.04323781291987410097 5.04289439107588677302 7.58596049307376762982 7.58596049307376762982 -0.04323781291987410097 -0.04323781291987410097 2.49982828907800636031 -2.58630391491775446511 -0.04323781291987410097 2.49982828907800636031 -0.04323781291987410097 5.04289439107588677302 2.49982828907800636031 -0.04323781291987410097 -0.04323781291987410097 5.04289439107588677302 5.04289439107588677302 5.04289439107588677302 7.58596049307376762982 -5.12937001691563487782 2.49982828907800636031 -0.04323781291987410097 2.49982828907800636031 -0.04323781291987410097 -0.04323781291987410097 -0.04323781291987410097 2.49982828907800636031 -7.67243611891351573462 -2.58630391491775446511 -5.12937001691563487782 -2.58630391491775446511 -2.58630391491775446511 -0.04323781291987410097 -7.67243611891351573462 -5.12937001691563487782 -2.58630391491775446511 -2.58630391491775446511 2.49982828907800636031 -0.04323781291987410097 -2.58630391491775446511 -7.67243611891351573462 -0.04323781291987410097 -0.04323781291987410097 2.49982828907800636031 -2.58630391491775446511 -5.12937001691563487782 -5.12937001691563487782 -2.58630391491775446511 -2.58630391491775446511 -7.67243611891351573462 -0.04323781291987410097 -2.58630391491775446511 -0.04323781291987410097 -2.58630391491775446511 -5.12937001691563487782 -7.67243611891351573462 -7.67243611891351573462 -0.04323781291987410097 -0.04323781291987410097 -0.04323781291987410097 -5.12937001691563487782 -2.58630391491775446511 -5.12937001691563487782 -7.67243611891351573462 -10.21550222091139481506 -5.12937001691563487782 -0.04323781291987410097 -2.58630391491775446511 -2.58630391491775446511 -5.12937001691563487782 -0.04323781291987410097 -0.04323781291987410097 -2.58630391491775446511 -0.04323781291987410097 -2.58630391491775446511 -2.58630391491775446511 -5.12937001691563487782 -2.58630391491775446511 -0.04323781291987410097 -2.58630391491775446511 -5.12937001691563487782 -2.58630391491775446511 2.49982828907800636031 -5.12937001691563487782 -2.58630391491775446511 -2.58630391491775446511 -2.58630391491775446511 -5.12937001691563487782 -5.12937001691563487782 -2.58630391491775446511 7.58596049307376762982 -0.04323781291987410097 2.49982828907800636031 2.49982828907800636031 -0.04323781291987410097 -2.58630391491775446511 -2.58630391491775446511 -0.04323781291987410097 2.49982828907800636031 7.58596049307376762982 -2.58630391491775446511 -0.04323781291987410097 -0.04323781291987410097 2.49982828907800636031 -5.12937001691563487782 2.49982828907800636031 7.58596049307376762982 -0.04323781291987410097 2.49982828907800636031 5.04289439107588677302 -0.04323781291987410097 7.58596049307376762982 10.12902659507164848662 2.49982828907800636031 5.04289439107588677302 5.04289439107588677302 -0.04323781291987410097 7.58596049307376762982 7.58596049307376762982 2.49982828907800636031 5.04289439107588677302 2.49982828907800636031 7.58596049307376762982 10.12902659507164848662 5.04289439107588677302 2.49982828907800636031 7.58596049307376762982 7.58596049307376762982 7.58596049307376762982 7.58596049307376762982 7.58596049307376762982 10.12902659507164848662 5.04289439107588677302 5.04289439107588677302 7.58596049307376762982 2.49982828907800636031 2.49982828907800636031 10.12902659507164848662 10.12902659507164848662 10.12902659507164848662 10.12902659507164848662 7.58596049307376762982 2.49982828907800636031 5.04289439107588677302 10.12902659507164848662 12.67209269706953023160 10.12902659507164848662 7.58596049307376762982 7.58596049307376762982 7.58596049307376762982 5.04289439107588677302 10.12902659507164848662 7.58596049307376762982 7.58596049307376762982 10.12902659507164848662 10.12902659507164848662 10.12902659507164848662 10.12902659507164848662 7.58596049307376762982 12.67209269706953023160 10.12902659507164848662 15.21515879906741020022 7.58596049307376762982 5.04289439107588677302 10.12902659507164848662 10.12902659507164848662 7.58596049307376762982 12.67209269706953023160 5.04289439107588677302 5.04289439107588677302 10.12902659507164848662 7.58596049307376762982 7.58596049307376762982 7.58596049307376762982 10.12902659507164848662 12.67209269706953023160 7.58596049307376762982 10.12902659507164848662 7.58596049307376762982 10.12902659507164848662 5.04289439107588677302 2.49982828907800636031 5.04289439107588677302 2.49982828907800636031 12.67209269706953023160 10.12902659507164848662 7.58596049307376762982 7.58596049307376762982 7.58596049307376762982 5.04289439107588677302 7.58596049307376762982 10.12902659507164848662 7.58596049307376762982 5.04289439107588677302 7.58596049307376762982 5.04289439107588677302 7.58596049307376762982 5.04289439107588677302 5.04289439107588677302 2.49982828907800636031 7.58596049307376762982 2.49982828907800636031 2.49982828907800636031 10.12902659507164848662 -0.04323781291987410097 10.12902659507164848662 2.49982828907800636031 7.58596049307376762982 10.12902659507164848662 7.58596049307376762982 5.04289439107588677302 5.04289439107588677302 5.04289439107588677302 -0.04323781291987410097 2.49982828907800636031 2.49982828907800636031 10.12902659507164848662 2.49982828907800636031 5.04289439107588677302 2.49982828907800636031 7.58596049307376762982 7.58596049307376762982 10.12902659507164848662 7.58596049307376762982 7.58596049307376762982 2.49982828907800636031 7.58596049307376762982 5.04289439107588677302 7.58596049307376762982 5.04289439107588677302 2.49982828907800636031 5.04289439107588677302 5.04289439107588677302 7.58596049307376762982 5.04289439107588677302 2.49982828907800636031 5.04289439107588677302 -0.04323781291987410097 5.04289439107588677302 5.04289439107588677302 2.49982828907800636031 2.49982828907800636031 2.49982828907800636031 5.04289439107588677302 7.58596049307376762982 7.58596049307376762982 2.49982828907800636031 5.04289439107588677302 7.58596049307376762982 2.49982828907800636031 5.04289439107588677302 -0.04323781291987410097 5.04289439107588677302 2.49982828907800636031 2.49982828907800636031 2.49982828907800636031 -0.04323781291987410097 2.49982828907800636031 7.58596049307376762982 5.04289439107588677302 -0.04323781291987410097 5.04289439107588677302 -2.58630391491775446511 2.49982828907800636031 5.04289439107588677302 2.49982828907800636031 2.49982828907800636031 -2.58630391491775446511 -0.04323781291987410097 5.04289439107588677302 -2.58630391491775446511 2.49982828907800636031 5.04289439107588677302 2.49982828907800636031 -0.04323781291987410097 -0.04323781291987410097 2.49982828907800636031 -2.58630391491775446511 -5.12937001691563487782 -0.04323781291987410097 -0.04323781291987410097 -2.58630391491775446511 -2.58630391491775446511 -2.58630391491775446511 -2.58630391491775446511 -0.04323781291987410097 -2.58630391491775446511 -2.58630391491775446511 -5.12937001691563487782 -7.67243611891351573462 -2.58630391491775446511 -7.67243611891351573462 -5.12937001691563487782 -0.04323781291987410097 -0.04323781291987410097 5.04289439107588677302 -2.58630391491775446511 -5.12937001691563487782 -5.12937001691563487782 -0.04323781291987410097 -0.04323781291987410097 -0.04323781291987410097 -5.12937001691563487782 -5.12937001691563487782 -5.12937001691563487782 -0.04323781291987410097 -7.67243611891351573462 -2.58630391491775446511 -5.12937001691563487782 -0.04323781291987410097 -2.58630391491775446511 -5.12937001691563487782 -5.12937001691563487782 -5.12937001691563487782 -0.04323781291987410097 -2.58630391491775446511 -2.58630391491775446511 -0.04323781291987410097 -7.67243611891351573462 -7.67243611891351573462 -2.58630391491775446511 -5.12937001691563487782 2.49982828907800636031 -0.04323781291987410097 -2.58630391491775446511 -5.12937001691563487782 -2.58630391491775446511 -5.12937001691563487782 -5.12937001691563487782 -2.58630391491775446511 -2.58630391491775446511 -2.58630391491775446511 -0.04323781291987410097 -2.58630391491775446511 -2.58630391491775446511 -2.58630391491775446511 -5.12937001691563487782 -0.04323781291987410097 -0.04323781291987410097 2.49982828907800636031 -5.12937001691563487782 -7.67243611891351573462 -7.67243611891351573462 -2.58630391491775446511 -2.58630391491775446511 -0.04323781291987410097 -2.58630391491775446511 -2.58630391491775446511 -2.58630391491775446511 2.49982828907800636031 -5.12937001691563487782 2.49982828907800636031 2.49982828907800636031 2.49982828907800636031 -0.04323781291987410097 2.49982828907800636031 -5.12937001691563487782 -5.12937001691563487782 -0.04323781291987410097 2.49982828907800636031 2.49982828907800636031 2.49982828907800636031 -0.04323781291987410097 -2.58630391491775446511 -5.12937001691563487782 -2.58630391491775446511 2.49982828907800636031 2.49982828907800636031 -0.04323781291987410097 2.49982828907800636031 -2.58630391491775446511 -2.58630391491775446511 -5.12937001691563487782 2.49982828907800636031 -2.58630391491775446511 2.49982828907800636031 -2.58630391491775446511 -2.58630391491775446511 -5.12937001691563487782 -7.67243611891351573462 -0.04323781291987410097 2.49982828907800636031 2.49982828907800636031 -0.04323781291987410097 -0.04323781291987410097 -2.58630391491775446511 -2.58630391491775446511 -2.58630391491775446511 -0.04323781291987410097 -2.58630391491775446511 -2.58630391491775446511 -2.58630391491775446511 -0.04323781291987410097 -2.58630391491775446511 -5.12937001691563487782 -0.04323781291987410097 -2.58630391491775446511 -0.04323781291987410097 -5.12937001691563487782 -0.04323781291987410097 -2.58630391491775446511 -7.67243611891351573462 -5.12937001691563487782 2.49982828907800636031 -0.04323781291987410097 2.49982828907800636031 -0.04323781291987410097 -2.58630391491775446511 2.49982828907800636031 -2.58630391491775446511 -0.04323781291987410097 -5.12937001691563487782 -2.58630391491775446511 -2.58630391491775446511 -2.58630391491775446511 2.49982828907800636031 -2.58630391491775446511 2.49982828907800636031 -2.58630391491775446511 -0.04323781291987410097 2.49982828907800636031 -0.04323781291987410097 2.49982828907800636031 -0.04323781291987410097 -0.04323781291987410097 -2.58630391491775446511 -7.67243611891351573462 -2.58630391491775446511 2.49982828907800636031 -0.04323781291987410097 2.49982828907800636031 -0.04323781291987410097 -0.04323781291987410097 -0.04323781291987410097 -2.58630391491775446511 -0.04323781291987410097 2.49982828907800636031 -0.04323781291987410097 7.58596049307376762982 5.04289439107588677302 2.49982828907800636031 -5.12937001691563487782 -0.04323781291987410097 -2.58630391491775446511 -2.58630391491775446511 -2.58630391491775446511 -0.04323781291987410097 -7.67243611891351573462 -5.12937001691563487782 -2.58630391491775446511 -5.12937001691563487782 -0.04323781291987410097 -5.12937001691563487782 -2.58630391491775446511 -5.12937001691563487782 -2.58630391491775446511 -0.04323781291987410097 -7.67243611891351573462 -2.58630391491775446511 -2.58630391491775446511 -5.12937001691563487782 -7.67243611891351573462 -7.67243611891351573462 -5.12937001691563487782 -0.04323781291987410097 -2.58630391491775446511 -5.12937001691563487782 -5.12937001691563487782 -2.58630391491775446511 -5.12937001691563487782 -5.12937001691563487782 -0.04323781291987410097 -2.58630391491775446511 -0.04323781291987410097 -7.67243611891351573462 -5.12937001691563487782 -7.67243611891351573462 -7.67243611891351573462 -7.67243611891351573462 -5.12937001691563487782 -0.04323781291987410097 -5.12937001691563487782 -2.58630391491775446511 -5.12937001691563487782 -0.04323781291987410097 -2.58630391491775446511 -2.58630391491775446511 -5.12937001691563487782 -2.58630391491775446511 -2.58630391491775446511 -5.12937001691563487782 -5.12937001691563487782 -2.58630391491775446511 -2.58630391491775446511 -0.04323781291987410097 -7.67243611891351573462 -2.58630391491775446511 -0.04323781291987410097 -0.04323781291987410097 -5.12937001691563487782 -0.04323781291987410097 5.04289439107588677302 -5.12937001691563487782 -0.04323781291987410097 -2.58630391491775446511 -0.04323781291987410097 -2.58630391491775446511 -2.58630391491775446511 -5.12937001691563487782 -2.58630391491775446511 -0.04323781291987410097 -5.12937001691563487782 -0.04323781291987410097 2.49982828907800636031 -0.04323781291987410097 -5.12937001691563487782 -5.12937001691563487782 -2.58630391491775446511 -0.04323781291987410097 -0.04323781291987410097 -0.04323781291987410097 -2.58630391491775446511 -2.58630391491775446511 -2.58630391491775446511 -5.12937001691563487782 -5.12937001691563487782 -0.04323781291987410097 -2.58630391491775446511 -0.04323781291987410097 -5.12937001691563487782 -7.67243611891351573462 -0.04323781291987410097 -2.58630391491775446511 -0.04323781291987410097 -5.12937001691563487782 -2.58630391491775446511 -5.12937001691563487782 -2.58630391491775446511 -0.04323781291987410097 2.49982828907800636031 -2.58630391491775446511 -0.04323781291987410097 -2.58630391491775446511 -0.04323781291987410097 -2.58630391491775446511 -2.58630391491775446511 -5.12937001691563487782 -2.58630391491775446511 -5.12937001691563487782 -0.04323781291987410097 -5.12937001691563487782 -5.12937001691563487782 -2.58630391491775446511 -2.58630391491775446511 -0.04323781291987410097 -2.58630391491775446511 -7.67243611891351573462 -5.12937001691563487782 -5.12937001691563487782 2.49982828907800636031 -0.04323781291987410097 -0.04323781291987410097 -0.04323781291987410097 -0.04323781291987410097 -5.12937001691563487782 -2.58630391491775446511 2.49982828907800636031 -2.58630391491775446511 2.49982828907800636031 -0.04323781291987410097 -2.58630391491775446511 2.49982828907800636031 -0.04323781291987410097 5.04289439107588677302 2.49982828907800636031 -2.58630391491775446511 -0.04323781291987410097 5.04289439107588677302 -2.58630391491775446511 2.49982828907800636031 -0.04323781291987410097 2.49982828907800636031 2.49982828907800636031 -2.58630391491775446511 -0.04323781291987410097 -0.04323781291987410097 2.49982828907800636031 2.49982828907800636031 5.04289439107588677302 5.04289439107588677302 -0.04323781291987410097 2.49982828907800636031 2.49982828907800636031 7.58596049307376762982 2.49982828907800636031 2.49982828907800636031 -2.58630391491775446511 -0.04323781291987410097 5.04289439107588677302 -0.04323781291987410097 2.49982828907800636031 -0.04323781291987410097 2.49982828907800636031 5.04289439107588677302 -2.58630391491775446511 7.58596049307376762982 -0.04323781291987410097 5.04289439107588677302 -0.04323781291987410097 2.49982828907800636031 -5.12937001691563487782 2.49982828907800636031 2.49982828907800636031 5.04289439107588677302 2.49982828907800636031 -0.04323781291987410097 2.49982828907800636031 2.49982828907800636031 -0.04323781291987410097 2.49982828907800636031 5.04289439107588677302 2.49982828907800636031 7.58596049307376762982 -2.58630391491775446511 -0.04323781291987410097 2.49982828907800636031 -2.58630391491775446511 -0.04323781291987410097 -0.04323781291987410097 -0.04323781291987410097 -2.58630391491775446511 -2.58630391491775446511 -5.12937001691563487782 2.49982828907800636031 -2.58630391491775446511 2.49982828907800636031 2.49982828907800636031 -2.58630391491775446511 -2.58630391491775446511 2.49982828907800636031 -2.58630391491775446511 2.49982828907800636031 5.04289439107588677302 -2.58630391491775446511 -0.04323781291987410097 -5.12937001691563487782 -2.58630391491775446511 2.49982828907800636031 -0.04323781291987410097 -0.04323781291987410097 -0.04323781291987410097 -2.58630391491775446511 -7.67243611891351573462 -10.21550222091139481506 -0.04323781291987410097 -2.58630391491775446511 -0.04323781291987410097 -5.12937001691563487782 -2.58630391491775446511 -5.12937001691563487782 -2.58630391491775446511 -0.04323781291987410097 -2.58630391491775446511 -2.58630391491775446511 -5.12937001691563487782 -2.58630391491775446511 -2.58630391491775446511 -0.04323781291987410097 2.49982828907800636031 -2.58630391491775446511 -0.04323781291987410097 -5.12937001691563487782 -0.04323781291987410097 -0.04323781291987410097 -2.58630391491775446511 -0.04323781291987410097 -0.04323781291987410097 2.49982828907800636031 -5.12937001691563487782 -0.04323781291987410097 -0.04323781291987410097 -0.04323781291987410097 -0.04323781291987410097 -2.58630391491775446511 -2.58630391491775446511 -0.04323781291987410097 -0.04323781291987410097 -0.04323781291987410097 2.49982828907800636031 -2.58630391491775446511 -2.58630391491775446511 -5.12937001691563487782 -0.04323781291987410097 -0.04323781291987410097 2.49982828907800636031 5.04289439107588677302 5.04289439107588677302 -7.67243611891351573462 -0.04323781291987410097 -5.12937001691563487782 2.49982828907800636031 -0.04323781291987410097 -0.04323781291987410097 2.49982828907800636031 2.49982828907800636031 2.49982828907800636031 -5.12937001691563487782 -5.12937001691563487782 -2.58630391491775446511 2.49982828907800636031 5.04289439107588677302 -0.04323781291987410097 -0.04323781291987410097 -7.67243611891351573462 -2.58630391491775446511 -2.58630391491775446511 -0.04323781291987410097 -0.04323781291987410097 2.49982828907800636031 -2.58630391491775446511 -0.04323781291987410097 2.49982828907800636031 -2.58630391491775446511 -0.04323781291987410097 -0.04323781291987410097 -0.04323781291987410097 -2.58630391491775446511 -5.12937001691563487782 -0.04323781291987410097 2.49982828907800636031 5.04289439107588677302 2.49982828907800636031 -0.04323781291987410097 2.49982828907800636031 -0.04323781291987410097 5.04289439107588677302 5.04289439107588677302 2.49982828907800636031 -0.04323781291987410097 -2.58630391491775446511 2.49982828907800636031 5.04289439107588677302 5.04289439107588677302 2.49982828907800636031 -0.04323781291987410097 -0.04323781291987410097 -0.04323781291987410097 -0.04323781291987410097 -0.04323781291987410097 -0.04323781291987410097 7.58596049307376762982 -0.04323781291987410097 -0.04323781291987410097 2.49982828907800636031 -0.04323781291987410097 2.49982828907800636031 -0.04323781291987410097 -0.04323781291987410097 7.58596049307376762982 2.49982828907800636031 -2.58630391491775446511 -0.04323781291987410097 -0.04323781291987410097 -0.04323781291987410097 -2.58630391491775446511 -0.04323781291987410097 -0.04323781291987410097 -5.12937001691563487782 5.04289439107588677302 -0.04323781291987410097 5.04289439107588677302 -0.04323781291987410097 -0.04323781291987410097 2.49982828907800636031 -0.04323781291987410097 -2.58630391491775446511 2.49982828907800636031 -0.04323781291987410097 2.49982828907800636031 -0.04323781291987410097 -0.04323781291987410097 -2.58630391491775446511 2.49982828907800636031 2.49982828907800636031 -2.58630391491775446511 -2.58630391491775446511 2.49982828907800636031 -2.58630391491775446511 -0.04323781291987410097 -7.67243611891351573462 -5.12937001691563487782 -2.58630391491775446511 -2.58630391491775446511 -2.58630391491775446511 -2.58630391491775446511 -5.12937001691563487782 -5.12937001691563487782 -5.12937001691563487782 -0.04323781291987410097 -0.04323781291987410097 -5.12937001691563487782 -5.12937001691563487782 -5.12937001691563487782 -7.67243611891351573462 -5.12937001691563487782 -7.67243611891351573462 -7.67243611891351573462 -7.67243611891351573462 -5.12937001691563487782 -10.21550222091139481506 -5.12937001691563487782 -7.67243611891351573462 -0.04323781291987410097 -0.04323781291987410097 -0.04323781291987410097 -0.04323781291987410097 -7.67243611891351573462 -5.12937001691563487782 -7.67243611891351573462 -2.58630391491775446511 -2.58630391491775446511 -2.58630391491775446511 -0.04323781291987410097 -0.04323781291987410097 -5.12937001691563487782 -5.12937001691563487782 -5.12937001691563487782 -0.04323781291987410097 -7.67243611891351573462 5.04289439107588677302 -2.58630391491775446511 -5.12937001691563487782 -0.04323781291987410097 -0.04323781291987410097 -0.04323781291987410097 -0.04323781291987410097 -0.04323781291987410097 -2.58630391491775446511 -10.21550222091139481506 -5.12937001691563487782 -2.58630391491775446511 -2.58630391491775446511 -0.04323781291987410097 2.49982828907800636031 5.04289439107588677302 -0.04323781291987410097 -2.58630391491775446511 -0.04323781291987410097 -0.04323781291987410097 -0.04323781291987410097 -5.12937001691563487782 -2.58630391491775446511 -0.04323781291987410097 -0.04323781291987410097 -2.58630391491775446511 2.49982828907800636031 2.49982828907800636031 -0.04323781291987410097 -2.58630391491775446511 -0.04323781291987410097 2.49982828907800636031 -0.04323781291987410097 -0.04323781291987410097 2.49982828907800636031 -0.04323781291987410097 -0.04323781291987410097 5.04289439107588677302 2.49982828907800636031 5.04289439107588677302 2.49982828907800636031 2.49982828907800636031 5.04289439107588677302 2.49982828907800636031 2.49982828907800636031 -0.04323781291987410097 2.49982828907800636031 2.49982828907800636031 2.49982828907800636031 -0.04323781291987410097 -0.04323781291987410097 7.58596049307376762982 2.49982828907800636031 -0.04323781291987410097 2.49982828907800636031 2.49982828907800636031 -2.58630391491775446511 -0.04323781291987410097 -0.04323781291987410097 10.12902659507164848662 5.04289439107588677302 5.04289439107588677302 -2.58630391491775446511 2.49982828907800636031 2.49982828907800636031 2.49982828907800636031 5.04289439107588677302 -2.58630391491775446511 2.49982828907800636031 2.49982828907800636031 2.49982828907800636031 10.12902659507164848662 2.49982828907800636031 5.04289439107588677302 -0.04323781291987410097 -0.04323781291987410097 -2.58630391491775446511 -0.04323781291987410097 5.04289439107588677302 5.04289439107588677302 2.49982828907800636031 -0.04323781291987410097 2.49982828907800636031 2.49982828907800636031 2.49982828907800636031 7.58596049307376762982 5.04289439107588677302 -0.04323781291987410097 2.49982828907800636031 -0.04323781291987410097 -0.04323781291987410097 2.49982828907800636031 2.49982828907800636031 2.49982828907800636031 5.04289439107588677302 2.49982828907800636031 -2.58630391491775446511 -0.04323781291987410097 -2.58630391491775446511 -0.04323781291987410097 2.49982828907800636031 7.58596049307376762982 -5.12937001691563487782 2.49982828907800636031 -2.58630391491775446511 -2.58630391491775446511 2.49982828907800636031 2.49982828907800636031 -0.04323781291987410097 -2.58630391491775446511 2.49982828907800636031 -0.04323781291987410097 2.49982828907800636031 -0.04323781291987410097 -0.04323781291987410097 -2.58630391491775446511 -0.04323781291987410097 5.04289439107588677302 2.49982828907800636031 2.49982828907800636031 2.49982828907800636031 -2.58630391491775446511 -5.12937001691563487782 -0.04323781291987410097 -0.04323781291987410097 2.49982828907800636031 -0.04323781291987410097 -2.58630391491775446511 -0.04323781291987410097 -0.04323781291987410097 5.04289439107588677302 -0.04323781291987410097 -0.04323781291987410097 -0.04323781291987410097 -0.04323781291987410097 2.49982828907800636031 2.49982828907800636031 5.04289439107588677302 -2.58630391491775446511 -5.12937001691563487782 5.04289439107588677302 2.49982828907800636031 5.04289439107588677302 5.04289439107588677302 -0.04323781291987410097 2.49982828907800636031 -0.04323781291987410097 -2.58630391491775446511 -0.04323781291987410097 -0.04323781291987410097 5.04289439107588677302 -0.04323781291987410097 -0.04323781291987410097 -5.12937001691563487782 -2.58630391491775446511 -0.04323781291987410097 -0.04323781291987410097 -0.04323781291987410097 -0.04323781291987410097 -2.58630391491775446511 -5.12937001691563487782 -2.58630391491775446511 -0.04323781291987410097 -0.04323781291987410097 -5.12937001691563487782 -7.67243611891351573462 -2.58630391491775446511 -2.58630391491775446511 -0.04323781291987410097 5.04289439107588677302 -2.58630391491775446511 -0.04323781291987410097 -5.12937001691563487782 2.49982828907800636031 -0.04323781291987410097 -7.67243611891351573462 -2.58630391491775446511 -5.12937001691563487782 -2.58630391491775446511 -5.12937001691563487782 -5.12937001691563487782 5.04289439107588677302 -0.04323781291987410097 -5.12937001691563487782 -5.12937001691563487782 -5.12937001691563487782 -5.12937001691563487782 -2.58630391491775446511 2.49982828907800636031 -5.12937001691563487782 -5.12937001691563487782 -7.67243611891351573462 -5.12937001691563487782 -7.67243611891351573462 -5.12937001691563487782 -10.21550222091139481506 -5.12937001691563487782 -5.12937001691563487782 -2.58630391491775446511 -0.04323781291987410097 -5.12937001691563487782 -5.12937001691563487782 -7.67243611891351573462 -2.58630391491775446511 -0.04323781291987410097 -0.04323781291987410097 -2.58630391491775446511 -5.12937001691563487782 -0.04323781291987410097 -7.67243611891351573462 -0.04323781291987410097 -7.67243611891351573462 -2.58630391491775446511 -2.58630391491775446511 -0.04323781291987410097 -0.04323781291987410097 -7.67243611891351573462 -5.12937001691563487782 -7.67243611891351573462 -0.04323781291987410097 -7.67243611891351573462 -0.04323781291987410097 -5.12937001691563487782 -2.58630391491775446511 -10.21550222091139481506 -0.04323781291987410097 -2.58630391491775446511 -5.12937001691563487782 -5.12937001691563487782 -5.12937001691563487782 -5.12937001691563487782 -2.58630391491775446511 -2.58630391491775446511 -7.67243611891351573462 2.49982828907800636031 -5.12937001691563487782 -2.58630391491775446511 -7.67243611891351573462 -0.04323781291987410097 2.49982828907800636031 -2.58630391491775446511 -5.12937001691563487782 -7.67243611891351573462 -5.12937001691563487782 -7.67243611891351573462 -5.12937001691563487782 -2.58630391491775446511 -0.04323781291987410097 -0.04323781291987410097 -2.58630391491775446511 -0.04323781291987410097 -0.04323781291987410097 2.49982828907800636031 -0.04323781291987410097 -5.12937001691563487782 -5.12937001691563487782 -2.58630391491775446511 -0.04323781291987410097 -0.04323781291987410097 -2.58630391491775446511 -2.58630391491775446511 -2.58630391491775446511 -5.12937001691563487782 -2.58630391491775446511 -5.12937001691563487782 -2.58630391491775446511 2.49982828907800636031 2.49982828907800636031 -2.58630391491775446511 2.49982828907800636031 -5.12937001691563487782 -2.58630391491775446511 -0.04323781291987410097 2.49982828907800636031 -0.04323781291987410097 -0.04323781291987410097 -0.04323781291987410097 -0.04323781291987410097 -0.04323781291987410097 -0.04323781291987410097 2.49982828907800636031 -2.58630391491775446511 -0.04323781291987410097 2.49982828907800636031 -2.58630391491775446511 -0.04323781291987410097 -0.04323781291987410097 -2.58630391491775446511 -0.04323781291987410097 -0.04323781291987410097 5.04289439107588677302 2.49982828907800636031 -0.04323781291987410097 -0.04323781291987410097 -2.58630391491775446511 -0.04323781291987410097 -0.04323781291987410097 -0.04323781291987410097 -0.04323781291987410097 -5.12937001691563487782 -0.04323781291987410097 -0.04323781291987410097 2.49982828907800636031 2.49982828907800636031 2.49982828907800636031 -2.58630391491775446511 -0.04323781291987410097 -2.58630391491775446511 2.49982828907800636031 2.49982828907800636031 2.49982828907800636031 -2.58630391491775446511 2.49982828907800636031 -2.58630391491775446511 7.58596049307376762982 2.49982828907800636031 -0.04323781291987410097 2.49982828907800636031 -2.58630391491775446511 7.58596049307376762982 2.49982828907800636031 -0.04323781291987410097 7.58596049307376762982 -0.04323781291987410097 -0.04323781291987410097 5.04289439107588677302 2.49982828907800636031 2.49982828907800636031 2.49982828907800636031 7.58596049307376762982 -2.58630391491775446511 -0.04323781291987410097 5.04289439107588677302 7.58596049307376762982 2.49982828907800636031 -0.04323781291987410097 -0.04323781291987410097 2.49982828907800636031 2.49982828907800636031 7.58596049307376762982 2.49982828907800636031 2.49982828907800636031 2.49982828907800636031 2.49982828907800636031 5.04289439107588677302 -2.58630391491775446511 5.04289439107588677302 -0.04323781291987410097 2.49982828907800636031 2.49982828907800636031 -0.04323781291987410097 -2.58630391491775446511 -0.04323781291987410097 5.04289439107588677302 2.49982828907800636031 2.49982828907800636031 -0.04323781291987410097 -5.12937001691563487782 -0.04323781291987410097 -0.04323781291987410097 2.49982828907800636031 2.49982828907800636031 -2.58630391491775446511 -2.58630391491775446511 -2.58630391491775446511 -2.58630391491775446511 -0.04323781291987410097 2.49982828907800636031 -5.12937001691563487782 2.49982828907800636031 -2.58630391491775446511 2.49982828907800636031 -2.58630391491775446511 -2.58630391491775446511 5.04289439107588677302 2.49982828907800636031 -5.12937001691563487782 -2.58630391491775446511 -5.12937001691563487782 2.49982828907800636031 -2.58630391491775446511 -0.04323781291987410097 -0.04323781291987410097 -0.04323781291987410097 -2.58630391491775446511 -7.67243611891351573462 -0.04323781291987410097 -0.04323781291987410097 -2.58630391491775446511 5.04289439107588677302 2.49982828907800636031 -5.12937001691563487782 -0.04323781291987410097 -2.58630391491775446511 5.04289439107588677302 -2.58630391491775446511 -2.58630391491775446511 -0.04323781291987410097 -2.58630391491775446511 -0.04323781291987410097 -0.04323781291987410097 2.49982828907800636031 2.49982828907800636031 -0.04323781291987410097 -5.12937001691563487782 -2.58630391491775446511 -2.58630391491775446511 -0.04323781291987410097 -2.58630391491775446511 -2.58630391491775446511 -5.12937001691563487782 -5.12937001691563487782 2.49982828907800636031 -0.04323781291987410097 2.49982828907800636031 -2.58630391491775446511 -2.58630391491775446511 -0.04323781291987410097 -2.58630391491775446511 5.04289439107588677302 2.49982828907800636031 -0.04323781291987410097 -0.04323781291987410097 -0.04323781291987410097 -5.12937001691563487782 -2.58630391491775446511 -2.58630391491775446511 2.49982828907800636031 -0.04323781291987410097 -0.04323781291987410097 2.49982828907800636031 -2.58630391491775446511 -2.58630391491775446511 -2.58630391491775446511 -2.58630391491775446511 -0.04323781291987410097 5.04289439107588677302 5.04289439107588677302 -0.04323781291987410097 -0.04323781291987410097 -2.58630391491775446511 -0.04323781291987410097 2.49982828907800636031 -2.58630391491775446511 -2.58630391491775446511 -2.58630391491775446511 2.49982828907800636031 -5.12937001691563487782 -0.04323781291987410097 -2.58630391491775446511 -0.04323781291987410097 -0.04323781291987410097 -0.04323781291987410097 2.49982828907800636031 5.04289439107588677302 -0.04323781291987410097 -0.04323781291987410097 -0.04323781291987410097 2.49982828907800636031 -5.12937001691563487782 -0.04323781291987410097 -5.12937001691563487782 -0.04323781291987410097 -0.04323781291987410097 -2.58630391491775446511 -0.04323781291987410097 -7.67243611891351573462 -2.58630391491775446511 5.04289439107588677302 -2.58630391491775446511 -0.04323781291987410097 -5.12937001691563487782 -5.12937001691563487782 -2.58630391491775446511 -2.58630391491775446511 -2.58630391491775446511 -0.04323781291987410097 -2.58630391491775446511 2.49982828907800636031 -5.12937001691563487782 -2.58630391491775446511 -2.58630391491775446511 2.49982828907800636031 -0.04323781291987410097 2.49982828907800636031 -0.04323781291987410097 -5.12937001691563487782 5.04289439107588677302 2.49982828907800636031 -0.04323781291987410097 -0.04323781291987410097 -0.04323781291987410097 -2.58630391491775446511 -2.58630391491775446511 -0.04323781291987410097 2.49982828907800636031 -2.58630391491775446511 -5.12937001691563487782 -2.58630391491775446511 2.49982828907800636031 5.04289439107588677302 -0.04323781291987410097 2.49982828907800636031 -0.04323781291987410097 -0.04323781291987410097 -0.04323781291987410097 -2.58630391491775446511 -0.04323781291987410097 -0.04323781291987410097 -2.58630391491775446511 -2.58630391491775446511 -2.58630391491775446511 -0.04323781291987410097 2.49982828907800636031 5.04289439107588677302 -0.04323781291987410097 -0.04323781291987410097 -2.58630391491775446511 2.49982828907800636031 -0.04323781291987410097 -2.58630391491775446511 -2.58630391491775446511 -0.04323781291987410097 -0.04323781291987410097 -5.12937001691563487782 -0.04323781291987410097 -0.04323781291987410097 -5.12937001691563487782 -5.12937001691563487782 -2.58630391491775446511 -2.58630391491775446511 -5.12937001691563487782 -0.04323781291987410097 -5.12937001691563487782 -0.04323781291987410097 -7.67243611891351573462 -5.12937001691563487782 -5.12937001691563487782 -2.58630391491775446511 -0.04323781291987410097 -2.58630391491775446511 -5.12937001691563487782 -5.12937001691563487782 -7.67243611891351573462 -7.67243611891351573462 -5.12937001691563487782 -2.58630391491775446511 -5.12937001691563487782 -0.04323781291987410097 -10.21550222091139481506 -5.12937001691563487782 -10.21550222091139481506 -5.12937001691563487782 -5.12937001691563487782 -5.12937001691563487782 -0.04323781291987410097 -5.12937001691563487782 -2.58630391491775446511 -2.58630391491775446511 -7.67243611891351573462 -10.21550222091139481506 -0.04323781291987410097 -5.12937001691563487782 -5.12937001691563487782 -0.04323781291987410097 -5.12937001691563487782 -5.12937001691563487782 -7.67243611891351573462 -2.58630391491775446511 -5.12937001691563487782 -0.04323781291987410097 -0.04323781291987410097 -2.58630391491775446511 -0.04323781291987410097 -0.04323781291987410097 -0.04323781291987410097 -0.04323781291987410097 -2.58630391491775446511 -0.04323781291987410097 -2.58630391491775446511 -0.04323781291987410097 5.04289439107588677302 2.49982828907800636031 -2.58630391491775446511 -2.58630391491775446511 -2.58630391491775446511 2.49982828907800636031 -5.12937001691563487782 -2.58630391491775446511 -2.58630391491775446511 -0.04323781291987410097 -2.58630391491775446511 -2.58630391491775446511 -5.12937001691563487782 -0.04323781291987410097 5.04289439107588677302 -0.04323781291987410097 -2.58630391491775446511 5.04289439107588677302 -0.04323781291987410097 -5.12937001691563487782 2.49982828907800636031 -2.58630391491775446511 5.04289439107588677302 2.49982828907800636031 -2.58630391491775446511 5.04289439107588677302 -2.58630391491775446511 -0.04323781291987410097 2.49982828907800636031 5.04289439107588677302 2.49982828907800636031 5.04289439107588677302 -0.04323781291987410097 -2.58630391491775446511 -2.58630391491775446511 -0.04323781291987410097 2.49982828907800636031 2.49982828907800636031 2.49982828907800636031 -5.12937001691563487782 2.49982828907800636031 -0.04323781291987410097 -0.04323781291987410097 -5.12937001691563487782 -0.04323781291987410097 -0.04323781291987410097 2.49982828907800636031 -0.04323781291987410097 5.04289439107588677302 2.49982828907800636031 2.49982828907800636031 2.49982828907800636031 -0.04323781291987410097 2.49982828907800636031 -0.04323781291987410097 2.49982828907800636031 5.04289439107588677302 -0.04323781291987410097 2.49982828907800636031 2.49982828907800636031 5.04289439107588677302 2.49982828907800636031 2.49982828907800636031 7.58596049307376762982 5.04289439107588677302 -2.58630391491775446511 2.49982828907800636031 -0.04323781291987410097 2.49982828907800636031 2.49982828907800636031 2.49982828907800636031 2.49982828907800636031 -0.04323781291987410097 -0.04323781291987410097 2.49982828907800636031 2.49982828907800636031 2.49982828907800636031 -2.58630391491775446511 -0.04323781291987410097 5.04289439107588677302 -0.04323781291987410097 5.04289439107588677302 5.04289439107588677302 2.49982828907800636031 2.49982828907800636031 -2.58630391491775446511 -0.04323781291987410097 2.49982828907800636031 2.49982828907800636031 -0.04323781291987410097 -2.58630391491775446511 -5.12937001691563487782 -2.58630391491775446511 -5.12937001691563487782 -5.12937001691563487782 -2.58630391491775446511 2.49982828907800636031 -5.12937001691563487782 -2.58630391491775446511 -10.21550222091139481506 -5.12937001691563487782 -0.04323781291987410097 -0.04323781291987410097 -0.04323781291987410097 -2.58630391491775446511 -0.04323781291987410097 -2.58630391491775446511 -0.04323781291987410097 2.49982828907800636031 -5.12937001691563487782 -2.58630391491775446511 -5.12937001691563487782 -5.12937001691563487782 -7.67243611891351573462 -0.04323781291987410097 -0.04323781291987410097 -2.58630391491775446511 -5.12937001691563487782 -0.04323781291987410097 -2.58630391491775446511 2.49982828907800636031 -0.04323781291987410097 2.49982828907800636031 -5.12937001691563487782 -2.58630391491775446511 -0.04323781291987410097 -0.04323781291987410097 -0.04323781291987410097 -0.04323781291987410097 -2.58630391491775446511 -0.04323781291987410097 2.49982828907800636031 2.49982828907800636031 2.49982828907800636031 5.04289439107588677302 2.49982828907800636031 -2.58630391491775446511 -0.04323781291987410097 -2.58630391491775446511 -0.04323781291987410097 -2.58630391491775446511 -0.04323781291987410097 -2.58630391491775446511 2.49982828907800636031 -5.12937001691563487782 -5.12937001691563487782 -0.04323781291987410097 -0.04323781291987410097 2.49982828907800636031 -2.58630391491775446511 -5.12937001691563487782 -2.58630391491775446511 -0.04323781291987410097 -0.04323781291987410097 -2.58630391491775446511 -2.58630391491775446511 5.04289439107588677302 2.49982828907800636031 2.49982828907800636031 5.04289439107588677302 -0.04323781291987410097 -0.04323781291987410097 -0.04323781291987410097 -0.04323781291987410097 5.04289439107588677302 2.49982828907800636031 2.49982828907800636031 2.49982828907800636031 -2.58630391491775446511 2.49982828907800636031 2.49982828907800636031 7.58596049307376762982 2.49982828907800636031 -2.58630391491775446511 2.49982828907800636031 -2.58630391491775446511 -2.58630391491775446511 -0.04323781291987410097 5.04289439107588677302 2.49982828907800636031 2.49982828907800636031 2.49982828907800636031 7.58596049307376762982 -0.04323781291987410097 2.49982828907800636031 -0.04323781291987410097 2.49982828907800636031 -0.04323781291987410097 7.58596049307376762982 -0.04323781291987410097 2.49982828907800636031 2.49982828907800636031 -2.58630391491775446511 5.04289439107588677302 5.04289439107588677302 -2.58630391491775446511 -2.58630391491775446511 -0.04323781291987410097 -2.58630391491775446511 -0.04323781291987410097 -2.58630391491775446511 -5.12937001691563487782 2.49982828907800636031 -5.12937001691563487782 -2.58630391491775446511 -2.58630391491775446511 -5.12937001691563487782 -2.58630391491775446511 -2.58630391491775446511 -0.04323781291987410097 -2.58630391491775446511 -2.58630391491775446511 -2.58630391491775446511 -0.04323781291987410097 -5.12937001691563487782 -0.04323781291987410097 -0.04323781291987410097 -2.58630391491775446511 -2.58630391491775446511 -5.12937001691563487782 -2.58630391491775446511 -0.04323781291987410097 -0.04323781291987410097 -5.12937001691563487782 -5.12937001691563487782 -2.58630391491775446511 -2.58630391491775446511 -7.67243611891351573462 -0.04323781291987410097 -0.04323781291987410097 -5.12937001691563487782 -2.58630391491775446511 -7.67243611891351573462 -10.21550222091139481506 -2.58630391491775446511 -0.04323781291987410097 2.49982828907800636031 -2.58630391491775446511 -7.67243611891351573462 -7.67243611891351573462 -5.12937001691563487782 -5.12937001691563487782 -7.67243611891351573462 -0.04323781291987410097 -2.58630391491775446511 -2.58630391491775446511 -7.67243611891351573462 -5.12937001691563487782 -7.67243611891351573462 -5.12937001691563487782 -2.58630391491775446511 2.49982828907800636031 -5.12937001691563487782 -0.04323781291987410097 -2.58630391491775446511 -0.04323781291987410097 -2.58630391491775446511 -5.12937001691563487782 -2.58630391491775446511 -0.04323781291987410097 -0.04323781291987410097 7.58596049307376762982 2.49982828907800636031 2.49982828907800636031 2.49982828907800636031 2.49982828907800636031 2.49982828907800636031 5.04289439107588677302 2.49982828907800636031 2.49982828907800636031 -2.58630391491775446511 -0.04323781291987410097 -2.58630391491775446511 2.49982828907800636031 -0.04323781291987410097 2.49982828907800636031 2.49982828907800636031 -0.04323781291987410097 5.04289439107588677302 7.58596049307376762982 -0.04323781291987410097 -2.58630391491775446511 -0.04323781291987410097 2.49982828907800636031 -2.58630391491775446511 2.49982828907800636031 -0.04323781291987410097 5.04289439107588677302 2.49982828907800636031 -0.04323781291987410097 -0.04323781291987410097 -0.04323781291987410097 -0.04323781291987410097 2.49982828907800636031 2.49982828907800636031 -0.04323781291987410097 -5.12937001691563487782 -0.04323781291987410097 -0.04323781291987410097 -0.04323781291987410097 -0.04323781291987410097 -5.12937001691563487782 -0.04323781291987410097 2.49982828907800636031 -0.04323781291987410097 2.49982828907800636031 -0.04323781291987410097 2.49982828907800636031 -0.04323781291987410097 -0.04323781291987410097 -2.58630391491775446511 -0.04323781291987410097 -2.58630391491775446511 -0.04323781291987410097 -5.12937001691563487782 -2.58630391491775446511 -5.12937001691563487782 -0.04323781291987410097 2.49982828907800636031 -2.58630391491775446511 -5.12937001691563487782 -7.67243611891351573462 -7.67243611891351573462 -7.67243611891351573462 2.49982828907800636031 -0.04323781291987410097 -7.67243611891351573462 -12.75856832290927656004 -7.67243611891351573462 -5.12937001691563487782 -5.12937001691563487782 -0.04323781291987410097 -7.67243611891351573462 -10.21550222091139481506 -5.12937001691563487782 -2.58630391491775446511 -5.12937001691563487782 -0.04323781291987410097 -0.04323781291987410097 -2.58630391491775446511 -2.58630391491775446511 -5.12937001691563487782 -2.58630391491775446511 -2.58630391491775446511 -2.58630391491775446511 -5.12937001691563487782 -5.12937001691563487782 2.49982828907800636031 -5.12937001691563487782 -0.04323781291987410097 -2.58630391491775446511 -5.12937001691563487782 -5.12937001691563487782 -7.67243611891351573462 -2.58630391491775446511 -2.58630391491775446511 -5.12937001691563487782 -5.12937001691563487782 -2.58630391491775446511 -5.12937001691563487782 -5.12937001691563487782 -5.12937001691563487782 2.49982828907800636031 -0.04323781291987410097 -5.12937001691563487782 -2.58630391491775446511 -2.58630391491775446511 -7.67243611891351573462 -5.12937001691563487782 -2.58630391491775446511 -5.12937001691563487782 -5.12937001691563487782 -0.04323781291987410097 -0.04323781291987410097 -5.12937001691563487782 -5.12937001691563487782 -10.21550222091139481506 -0.04323781291987410097 -0.04323781291987410097 -0.04323781291987410097 -0.04323781291987410097 -0.04323781291987410097 -10.21550222091139481506 -5.12937001691563487782 -0.04323781291987410097 -2.58630391491775446511 -2.58630391491775446511 -5.12937001691563487782 -7.67243611891351573462 -7.67243611891351573462 -5.12937001691563487782 -7.67243611891351573462 -5.12937001691563487782 -5.12937001691563487782 -2.58630391491775446511 -2.58630391491775446511 -5.12937001691563487782 2.49982828907800636031 2.49982828907800636031 -5.12937001691563487782 -0.04323781291987410097 -2.58630391491775446511 -5.12937001691563487782 -5.12937001691563487782 2.49982828907800636031 -0.04323781291987410097 -2.58630391491775446511 -0.04323781291987410097 -2.58630391491775446511 -5.12937001691563487782 -2.58630391491775446511 -2.58630391491775446511 -5.12937001691563487782 -2.58630391491775446511 2.49982828907800636031 -5.12937001691563487782 -2.58630391491775446511 -0.04323781291987410097 -5.12937001691563487782 2.49982828907800636031 -0.04323781291987410097 -2.58630391491775446511 -7.67243611891351573462 -5.12937001691563487782 -5.12937001691563487782 -0.04323781291987410097 -5.12937001691563487782 -7.67243611891351573462 -2.58630391491775446511 2.49982828907800636031 -5.12937001691563487782 -2.58630391491775446511 -2.58630391491775446511 -2.58630391491775446511 -7.67243611891351573462 -5.12937001691563487782 -2.58630391491775446511 -2.58630391491775446511 -5.12937001691563487782 -0.04323781291987410097 -5.12937001691563487782 -2.58630391491775446511 -0.04323781291987410097 2.49982828907800636031 -0.04323781291987410097 -5.12937001691563487782 -5.12937001691563487782 -5.12937001691563487782 -0.04323781291987410097 2.49982828907800636031 5.04289439107588677302 2.49982828907800636031 -0.04323781291987410097 -2.58630391491775446511 -2.58630391491775446511 -0.04323781291987410097 -2.58630391491775446511 -0.04323781291987410097 -2.58630391491775446511 2.49982828907800636031 -0.04323781291987410097 -5.12937001691563487782 -5.12937001691563487782 -2.58630391491775446511 -2.58630391491775446511 -0.04323781291987410097 -0.04323781291987410097 -2.58630391491775446511 -0.04323781291987410097 -0.04323781291987410097 -5.12937001691563487782 -7.67243611891351573462 2.49982828907800636031 -2.58630391491775446511 -5.12937001691563487782 -5.12937001691563487782 2.49982828907800636031 -5.12937001691563487782 -0.04323781291987410097 -5.12937001691563487782 -2.58630391491775446511 -2.58630391491775446511 2.49982828907800636031 -2.58630391491775446511 -0.04323781291987410097 5.04289439107588677302 -2.58630391491775446511 -5.12937001691563487782 -2.58630391491775446511 -5.12937001691563487782 -5.12937001691563487782 -0.04323781291987410097 -2.58630391491775446511 -2.58630391491775446511 -2.58630391491775446511 -2.58630391491775446511 -7.67243611891351573462 5.04289439107588677302 -7.67243611891351573462 -2.58630391491775446511 -0.04323781291987410097 -0.04323781291987410097 -5.12937001691563487782 -5.12937001691563487782 -5.12937001691563487782 -7.67243611891351573462 -2.58630391491775446511 -2.58630391491775446511 -5.12937001691563487782 -2.58630391491775446511 -5.12937001691563487782 -0.04323781291987410097 -5.12937001691563487782 -5.12937001691563487782 -5.12937001691563487782 -5.12937001691563487782 -2.58630391491775446511 -2.58630391491775446511 -10.21550222091139481506 -5.12937001691563487782 -0.04323781291987410097 -2.58630391491775446511 -2.58630391491775446511 -0.04323781291987410097 -5.12937001691563487782 -5.12937001691563487782 -2.58630391491775446511 -0.04323781291987410097 -0.04323781291987410097 -2.58630391491775446511 2.49982828907800636031 -0.04323781291987410097 -2.58630391491775446511 2.49982828907800636031 -2.58630391491775446511 -2.58630391491775446511 2.49982828907800636031 -2.58630391491775446511 -2.58630391491775446511 -2.58630391491775446511 -0.04323781291987410097 2.49982828907800636031 -0.04323781291987410097 -2.58630391491775446511 -2.58630391491775446511 -7.67243611891351573462 5.04289439107588677302 -0.04323781291987410097 2.49982828907800636031 -0.04323781291987410097 -0.04323781291987410097 -2.58630391491775446511 -2.58630391491775446511 5.04289439107588677302 2.49982828907800636031 2.49982828907800636031 2.49982828907800636031 -2.58630391491775446511 2.49982828907800636031 5.04289439107588677302 5.04289439107588677302 2.49982828907800636031 2.49982828907800636031 -0.04323781291987410097 2.49982828907800636031 -5.12937001691563487782 2.49982828907800636031 2.49982828907800636031 2.49982828907800636031 2.49982828907800636031 5.04289439107588677302 -0.04323781291987410097 -5.12937001691563487782 -0.04323781291987410097 -2.58630391491775446511 -0.04323781291987410097 -0.04323781291987410097 -0.04323781291987410097 -2.58630391491775446511 -5.12937001691563487782 -0.04323781291987410097 -0.04323781291987410097 -2.58630391491775446511 -0.04323781291987410097 5.04289439107588677302 2.49982828907800636031 -2.58630391491775446511 -0.04323781291987410097 2.49982828907800636031 -2.58630391491775446511 -0.04323781291987410097 -2.58630391491775446511 -7.67243611891351573462 -0.04323781291987410097 -2.58630391491775446511 -0.04323781291987410097 -0.04323781291987410097 -2.58630391491775446511 -5.12937001691563487782 2.49982828907800636031 -2.58630391491775446511 2.49982828907800636031 -0.04323781291987410097 2.49982828907800636031 -5.12937001691563487782 -2.58630391491775446511 -0.04323781291987410097 -2.58630391491775446511 -2.58630391491775446511 2.49982828907800636031 2.49982828907800636031 -0.04323781291987410097 -5.12937001691563487782 -0.04323781291987410097 2.49982828907800636031 -0.04323781291987410097 -2.58630391491775446511 2.49982828907800636031 2.49982828907800636031 5.04289439107588677302 2.49982828907800636031 5.04289439107588677302 2.49982828907800636031 2.49982828907800636031 -0.04323781291987410097 2.49982828907800636031 2.49982828907800636031 -0.04323781291987410097 5.04289439107588677302 2.49982828907800636031 -5.12937001691563487782 -0.04323781291987410097 -0.04323781291987410097 -2.58630391491775446511 7.58596049307376762982 2.49982828907800636031 2.49982828907800636031 2.49982828907800636031 -0.04323781291987410097 -0.04323781291987410097 -0.04323781291987410097 2.49982828907800636031 -0.04323781291987410097 2.49982828907800636031 -0.04323781291987410097 2.49982828907800636031 -2.58630391491775446511 2.49982828907800636031 2.49982828907800636031 -0.04323781291987410097 5.04289439107588677302 5.04289439107588677302 5.04289439107588677302 -2.58630391491775446511 2.49982828907800636031 5.04289439107588677302 5.04289439107588677302 2.49982828907800636031 -0.04323781291987410097 -0.04323781291987410097 -0.04323781291987410097 -0.04323781291987410097 2.49982828907800636031 5.04289439107588677302 -0.04323781291987410097 -2.58630391491775446511 2.49982828907800636031 -0.04323781291987410097 2.49982828907800636031 2.49982828907800636031 2.49982828907800636031 2.49982828907800636031 5.04289439107588677302 2.49982828907800636031 -5.12937001691563487782 -0.04323781291987410097 2.49982828907800636031 2.49982828907800636031 2.49982828907800636031 -2.58630391491775446511 -2.58630391491775446511 -2.58630391491775446511 10.12902659507164848662 7.58596049307376762982 7.58596049307376762982 5.04289439107588677302 2.49982828907800636031 2.49982828907800636031 -0.04323781291987410097 2.49982828907800636031 -0.04323781291987410097 7.58596049307376762982 -2.58630391491775446511 -0.04323781291987410097 2.49982828907800636031 -0.04323781291987410097 2.49982828907800636031 -0.04323781291987410097 2.49982828907800636031 -0.04323781291987410097 -0.04323781291987410097 -0.04323781291987410097 -2.58630391491775446511 -2.58630391491775446511 -0.04323781291987410097 5.04289439107588677302 -0.04323781291987410097 -0.04323781291987410097 -5.12937001691563487782 -2.58630391491775446511 7.58596049307376762982 5.04289439107588677302 5.04289439107588677302 2.49982828907800636031 -0.04323781291987410097 2.49982828907800636031 10.12902659507164848662 7.58596049307376762982 5.04289439107588677302 2.49982828907800636031 5.04289439107588677302 7.58596049307376762982 2.49982828907800636031 5.04289439107588677302 2.49982828907800636031 5.04289439107588677302 5.04289439107588677302 7.58596049307376762982 2.49982828907800636031 12.67209269706953023160 5.04289439107588677302 7.58596049307376762982 5.04289439107588677302 5.04289439107588677302 5.04289439107588677302 7.58596049307376762982 7.58596049307376762982 2.49982828907800636031 2.49982828907800636031 2.49982828907800636031 7.58596049307376762982 5.04289439107588677302 7.58596049307376762982 5.04289439107588677302 5.04289439107588677302 7.58596049307376762982 5.04289439107588677302 2.49982828907800636031 7.58596049307376762982 2.49982828907800636031 7.58596049307376762982 10.12902659507164848662 10.12902659507164848662 5.04289439107588677302 7.58596049307376762982 5.04289439107588677302 2.49982828907800636031 2.49982828907800636031 -0.04323781291987410097 -0.04323781291987410097 5.04289439107588677302 7.58596049307376762982 5.04289439107588677302 5.04289439107588677302 -2.58630391491775446511 -0.04323781291987410097 -0.04323781291987410097 5.04289439107588677302 -0.04323781291987410097 -0.04323781291987410097 5.04289439107588677302 2.49982828907800636031 -0.04323781291987410097 2.49982828907800636031 -0.04323781291987410097 -0.04323781291987410097 5.04289439107588677302 -0.04323781291987410097 -0.04323781291987410097 2.49982828907800636031 -5.12937001691563487782 -0.04323781291987410097 2.49982828907800636031 -0.04323781291987410097 -2.58630391491775446511 2.49982828907800636031 5.04289439107588677302 -2.58630391491775446511 2.49982828907800636031 -2.58630391491775446511 -2.58630391491775446511 2.49982828907800636031 5.04289439107588677302 2.49982828907800636031 -5.12937001691563487782 -2.58630391491775446511 -0.04323781291987410097 -0.04323781291987410097 -2.58630391491775446511 -0.04323781291987410097 -0.04323781291987410097 -2.58630391491775446511 2.49982828907800636031 -0.04323781291987410097 -0.04323781291987410097 -0.04323781291987410097 -2.58630391491775446511 -0.04323781291987410097 -0.04323781291987410097 -0.04323781291987410097 -0.04323781291987410097 2.49982828907800636031 -0.04323781291987410097 -0.04323781291987410097 2.49982828907800636031 2.49982828907800636031 -2.58630391491775446511 -0.04323781291987410097 5.04289439107588677302 -0.04323781291987410097 -2.58630391491775446511 -2.58630391491775446511 -2.58630391491775446511 -0.04323781291987410097 -0.04323781291987410097 7.58596049307376762982 2.49982828907800636031 -0.04323781291987410097 -0.04323781291987410097 2.49982828907800636031 -2.58630391491775446511 2.49982828907800636031 7.58596049307376762982 2.49982828907800636031 -2.58630391491775446511 2.49982828907800636031 -0.04323781291987410097 2.49982828907800636031 -0.04323781291987410097 2.49982828907800636031 2.49982828907800636031 2.49982828907800636031 -2.58630391491775446511 -2.58630391491775446511 -2.58630391491775446511 -0.04323781291987410097 2.49982828907800636031 -0.04323781291987410097 2.49982828907800636031 2.49982828907800636031 -0.04323781291987410097 -0.04323781291987410097 2.49982828907800636031 -0.04323781291987410097 -0.04323781291987410097 -0.04323781291987410097 5.04289439107588677302 -0.04323781291987410097 -0.04323781291987410097 -0.04323781291987410097 -0.04323781291987410097 2.49982828907800636031 2.49982828907800636031 -0.04323781291987410097 5.04289439107588677302 -0.04323781291987410097 5.04289439107588677302 -2.58630391491775446511 -5.12937001691563487782 -2.58630391491775446511 -0.04323781291987410097 2.49982828907800636031 -0.04323781291987410097 2.49982828907800636031 -0.04323781291987410097 -5.12937001691563487782 2.49982828907800636031 -0.04323781291987410097 5.04289439107588677302 2.49982828907800636031 -0.04323781291987410097 2.49982828907800636031 -2.58630391491775446511 2.49982828907800636031 -2.58630391491775446511 2.49982828907800636031 2.49982828907800636031 -2.58630391491775446511 2.49982828907800636031 -0.04323781291987410097 -5.12937001691563487782 -0.04323781291987410097 -2.58630391491775446511 -2.58630391491775446511 -0.04323781291987410097 -2.58630391491775446511 -0.04323781291987410097 2.49982828907800636031 -0.04323781291987410097 -7.67243611891351573462 -2.58630391491775446511 -5.12937001691563487782 -0.04323781291987410097 -0.04323781291987410097 -2.58630391491775446511 2.49982828907800636031 2.49982828907800636031 -2.58630391491775446511 -0.04323781291987410097 -0.04323781291987410097 -5.12937001691563487782 -2.58630391491775446511 -0.04323781291987410097 2.49982828907800636031 5.04289439107588677302 -0.04323781291987410097 -5.12937001691563487782 -0.04323781291987410097 -2.58630391491775446511 2.49982828907800636031 2.49982828907800636031 -2.58630391491775446511 -0.04323781291987410097 -2.58630391491775446511 -5.12937001691563487782 2.49982828907800636031 5.04289439107588677302 -0.04323781291987410097 -2.58630391491775446511 -0.04323781291987410097 -2.58630391491775446511 -0.04323781291987410097 -0.04323781291987410097 -5.12937001691563487782 2.49982828907800636031 -2.58630391491775446511 -0.04323781291987410097 -2.58630391491775446511 -2.58630391491775446511 -0.04323781291987410097 -2.58630391491775446511 -0.04323781291987410097 2.49982828907800636031 2.49982828907800636031 2.49982828907800636031 2.49982828907800636031 -0.04323781291987410097 2.49982828907800636031 2.49982828907800636031 10.12902659507164848662 2.49982828907800636031 5.04289439107588677302 -0.04323781291987410097 -0.04323781291987410097 -2.58630391491775446511 -2.58630391491775446511 7.58596049307376762982 -0.04323781291987410097 2.49982828907800636031 2.49982828907800636031 -0.04323781291987410097 -0.04323781291987410097 2.49982828907800636031 -0.04323781291987410097 2.49982828907800636031 2.49982828907800636031 -0.04323781291987410097 2.49982828907800636031 -0.04323781291987410097 5.04289439107588677302 -0.04323781291987410097 7.58596049307376762982 -0.04323781291987410097 -0.04323781291987410097 -0.04323781291987410097 -2.58630391491775446511 -5.12937001691563487782 5.04289439107588677302 -2.58630391491775446511 2.49982828907800636031 -2.58630391491775446511 -5.12937001691563487782 -2.58630391491775446511 -5.12937001691563487782 -2.58630391491775446511 -2.58630391491775446511 -0.04323781291987410097 -7.67243611891351573462 -5.12937001691563487782 -2.58630391491775446511 -0.04323781291987410097 -0.04323781291987410097 -5.12937001691563487782 -2.58630391491775446511 -2.58630391491775446511 -7.67243611891351573462 -5.12937001691563487782 -10.21550222091139481506 -10.21550222091139481506 -2.58630391491775446511 -7.67243611891351573462 -0.04323781291987410097 -5.12937001691563487782 -5.12937001691563487782 -2.58630391491775446511 -7.67243611891351573462 -7.67243611891351573462 2.49982828907800636031 -2.58630391491775446511 -2.58630391491775446511 -5.12937001691563487782 -7.67243611891351573462 -7.67243611891351573462 -2.58630391491775446511 -2.58630391491775446511 -0.04323781291987410097 -0.04323781291987410097 -5.12937001691563487782 -2.58630391491775446511 -5.12937001691563487782 -2.58630391491775446511 -2.58630391491775446511 -5.12937001691563487782 -2.58630391491775446511 -5.12937001691563487782 -5.12937001691563487782 -2.58630391491775446511 -5.12937001691563487782 -5.12937001691563487782 -0.04323781291987410097 2.49982828907800636031 -0.04323781291987410097 -0.04323781291987410097 5.04289439107588677302 2.49982828907800636031 -0.04323781291987410097 -0.04323781291987410097 -0.04323781291987410097 -0.04323781291987410097 5.04289439107588677302 2.49982828907800636031 2.49982828907800636031 -0.04323781291987410097 -5.12937001691563487782 -0.04323781291987410097 -0.04323781291987410097 5.04289439107588677302 -0.04323781291987410097 -2.58630391491775446511 2.49982828907800636031 -0.04323781291987410097 -0.04323781291987410097 2.49982828907800636031 2.49982828907800636031 2.49982828907800636031 -7.67243611891351573462 5.04289439107588677302 -0.04323781291987410097 -0.04323781291987410097 5.04289439107588677302 -0.04323781291987410097 -0.04323781291987410097 -0.04323781291987410097 2.49982828907800636031 -0.04323781291987410097 -2.58630391491775446511 -2.58630391491775446511 -5.12937001691563487782 -0.04323781291987410097 -5.12937001691563487782 -0.04323781291987410097 2.49982828907800636031 5.04289439107588677302 2.49982828907800636031 -2.58630391491775446511 -5.12937001691563487782 -2.58630391491775446511 2.49982828907800636031 2.49982828907800636031 -2.58630391491775446511 -2.58630391491775446511 -2.58630391491775446511 -0.04323781291987410097 2.49982828907800636031 -0.04323781291987410097 -2.58630391491775446511 -7.67243611891351573462 -7.67243611891351573462 -0.04323781291987410097 -2.58630391491775446511 -0.04323781291987410097 -2.58630391491775446511 -2.58630391491775446511 -0.04323781291987410097 -5.12937001691563487782 2.49982828907800636031 -7.67243611891351573462 -0.04323781291987410097 -5.12937001691563487782 -5.12937001691563487782 -7.67243611891351573462 -2.58630391491775446511 -2.58630391491775446511 5.04289439107588677302 -5.12937001691563487782 -2.58630391491775446511 -10.21550222091139481506 -5.12937001691563487782 -5.12937001691563487782 -2.58630391491775446511 -2.58630391491775446511 -5.12937001691563487782 -2.58630391491775446511 -7.67243611891351573462 -2.58630391491775446511 -5.12937001691563487782 -5.12937001691563487782 -2.58630391491775446511 -7.67243611891351573462 -2.58630391491775446511 -0.04323781291987410097 -5.12937001691563487782 -5.12937001691563487782 -5.12937001691563487782 -5.12937001691563487782 -0.04323781291987410097 -2.58630391491775446511 -0.04323781291987410097 -2.58630391491775446511 -5.12937001691563487782 -2.58630391491775446511 -5.12937001691563487782 -0.04323781291987410097 -2.58630391491775446511 -5.12937001691563487782 2.49982828907800636031 -2.58630391491775446511 -0.04323781291987410097 -0.04323781291987410097 -2.58630391491775446511 -0.04323781291987410097 -5.12937001691563487782 2.49982828907800636031 -2.58630391491775446511 -0.04323781291987410097 -0.04323781291987410097 -0.04323781291987410097 -0.04323781291987410097 -0.04323781291987410097 -2.58630391491775446511 2.49982828907800636031 -5.12937001691563487782 -0.04323781291987410097 -2.58630391491775446511 2.49982828907800636031 -0.04323781291987410097 -0.04323781291987410097 2.49982828907800636031 5.04289439107588677302 2.49982828907800636031 -2.58630391491775446511 -0.04323781291987410097 -0.04323781291987410097 -0.04323781291987410097 -2.58630391491775446511 -0.04323781291987410097 2.49982828907800636031 5.04289439107588677302 -0.04323781291987410097 2.49982828907800636031 -2.58630391491775446511 -0.04323781291987410097 -5.12937001691563487782 -0.04323781291987410097 -0.04323781291987410097 -0.04323781291987410097 -0.04323781291987410097 5.04289439107588677302 -2.58630391491775446511 -2.58630391491775446511 2.49982828907800636031 2.49982828907800636031 2.49982828907800636031 2.49982828907800636031 5.04289439107588677302 -0.04323781291987410097 2.49982828907800636031 5.04289439107588677302 -0.04323781291987410097 2.49982828907800636031 7.58596049307376762982 -0.04323781291987410097 2.49982828907800636031 2.49982828907800636031 5.04289439107588677302 2.49982828907800636031 2.49982828907800636031 -2.58630391491775446511 -0.04323781291987410097 2.49982828907800636031 5.04289439107588677302 5.04289439107588677302 5.04289439107588677302 -0.04323781291987410097 -0.04323781291987410097 -0.04323781291987410097 2.49982828907800636031 -2.58630391491775446511 -0.04323781291987410097 5.04289439107588677302 5.04289439107588677302 2.49982828907800636031 2.49982828907800636031 5.04289439107588677302 -0.04323781291987410097 5.04289439107588677302 5.04289439107588677302 -0.04323781291987410097 2.49982828907800636031 5.04289439107588677302 2.49982828907800636031 2.49982828907800636031 2.49982828907800636031 -2.58630391491775446511 -2.58630391491775446511 -0.04323781291987410097 -0.04323781291987410097 5.04289439107588677302 -0.04323781291987410097 -0.04323781291987410097 -2.58630391491775446511 -0.04323781291987410097 -0.04323781291987410097 -0.04323781291987410097 -0.04323781291987410097 -0.04323781291987410097 -2.58630391491775446511 2.49982828907800636031 -2.58630391491775446511 -2.58630391491775446511 -2.58630391491775446511 -2.58630391491775446511 -5.12937001691563487782 -0.04323781291987410097 5.04289439107588677302 2.49982828907800636031 2.49982828907800636031 -0.04323781291987410097 -0.04323781291987410097 -2.58630391491775446511 5.04289439107588677302 -2.58630391491775446511 5.04289439107588677302 2.49982828907800636031 -2.58630391491775446511 -2.58630391491775446511 5.04289439107588677302 5.04289439107588677302 -2.58630391491775446511 -0.04323781291987410097 -5.12937001691563487782 -0.04323781291987410097 5.04289439107588677302 2.49982828907800636031 5.04289439107588677302 -0.04323781291987410097 2.49982828907800636031 -5.12937001691563487782 -0.04323781291987410097 -0.04323781291987410097 5.04289439107588677302 2.49982828907800636031 -0.04323781291987410097 -0.04323781291987410097 -2.58630391491775446511 2.49982828907800636031 -0.04323781291987410097 2.49982828907800636031 -2.58630391491775446511 -0.04323781291987410097 -5.12937001691563487782 2.49982828907800636031 -0.04323781291987410097 -0.04323781291987410097 -0.04323781291987410097 5.04289439107588677302 -0.04323781291987410097 2.49982828907800636031 2.49982828907800636031 5.04289439107588677302 2.49982828907800636031 -2.58630391491775446511 2.49982828907800636031 2.49982828907800636031 -0.04323781291987410097 -2.58630391491775446511 -0.04323781291987410097 2.49982828907800636031 -0.04323781291987410097 -0.04323781291987410097 -2.58630391491775446511 -0.04323781291987410097 2.49982828907800636031 2.49982828907800636031 -0.04323781291987410097 -0.04323781291987410097 -5.12937001691563487782 7.58596049307376762982 2.49982828907800636031 -5.12937001691563487782 2.49982828907800636031 -0.04323781291987410097 -0.04323781291987410097 5.04289439107588677302 2.49982828907800636031 -2.58630391491775446511 2.49982828907800636031 -0.04323781291987410097 -2.58630391491775446511 2.49982828907800636031 2.49982828907800636031 7.58596049307376762982 5.04289439107588677302 7.58596049307376762982 -0.04323781291987410097 2.49982828907800636031 2.49982828907800636031 2.49982828907800636031 -0.04323781291987410097 2.49982828907800636031 -0.04323781291987410097 -0.04323781291987410097 7.58596049307376762982 7.58596049307376762982 2.49982828907800636031 5.04289439107588677302 5.04289439107588677302 -0.04323781291987410097 7.58596049307376762982 2.49982828907800636031 2.49982828907800636031 2.49982828907800636031 -0.04323781291987410097 2.49982828907800636031 -0.04323781291987410097 2.49982828907800636031 5.04289439107588677302 7.58596049307376762982 2.49982828907800636031 2.49982828907800636031 2.49982828907800636031 5.04289439107588677302 2.49982828907800636031 7.58596049307376762982 5.04289439107588677302 2.49982828907800636031 2.49982828907800636031 5.04289439107588677302 5.04289439107588677302 -0.04323781291987410097 2.49982828907800636031 -0.04323781291987410097 -2.58630391491775446511 -0.04323781291987410097 2.49982828907800636031 5.04289439107588677302 2.49982828907800636031 7.58596049307376762982 2.49982828907800636031 5.04289439107588677302 -0.04323781291987410097 7.58596049307376762982 5.04289439107588677302 5.04289439107588677302 -0.04323781291987410097 2.49982828907800636031 2.49982828907800636031 -2.58630391491775446511 -2.58630391491775446511 