0.000000 0.000000 0.000000 0.000000 0.000000 0.000000 0.000000 0.000000 1.100052 1.067620 -0.538127 -0.782548 -0.831253 -0.276497 2.697218 3.188335 3.503658 2.641199 3.608190 4.876482 6.723941 8.559865 7.659080 7.184321 7.932910 8.410263 6.730685 7.124679 7.194483 7.445908 6.558261 5.607069 3.637539 2.890028 3.369294 2.888920 1.467345 1.309131 1.767559 1.490660 2.846919 0.257477 -0.381144 -1.208501 1.115298 3.066980 2.193051 1.280430 0.335944 1.485796 1.273045 2.662544 1.916798 1.956128 1.754952 0.967797 -0.465879 -0.376289 1.194237 1.865356 0.998128 -0.150411 -0.515807 -0.423710 0.695325 0.033874 2.466213 1.255156 0.484975 -0.582718 -0.000066 -0.939556 -1.050093 -0.468293 -0.712747 0.713936 -0.305707 -1.592472 -2.033253 -1.161505 -0.125411 0.175392 0.838069 1.020963 0.592567 0.725696 -0.711202 0.042973 1.105187 2.171152 2.554853 1.763410 -0.742948 -0.897106 -1.304579 -1.798801 -1.195326 0.026463 -0.483729 -1.329272 -2.934836 -2.855348 -2.760371 -1.134380 -1.022836 -1.878195 -2.613281 -2.721990 -2.811164 -3.771631 -3.979312 -4.125792 -3.828551 -2.883837 -2.056960 -2.728928 -4.837037 -3.423146 -3.790286 -3.642471 -2.939098 -2.992507 -3.416282 -4.688057 -4.203673 -4.145416 -3.445672 -3.523848 -3.350805 -3.645076 -3.753103 -2.226866 -3.162654 -4.694753 -3.665440 -2.345570 -1.722410 -0.926711 -3.078035 -3.519181 -3.378976 -2.062545 -0.350560 -0.997070 -2.276247 -3.566404 -2.166837 -1.162377 -0.462785 -0.569549 -1.257693 -1.807131 -0.198087 -0.465181 0.423532 -0.422696 -0.932961 -0.850618 -0.881854 -0.092488 0.356572 -0.181951 -1.348045 -1.970791 -0.593141 -0.302204 -0.258716 -0.739146 -1.543350 -1.012578 -1.796419 -1.995420 -1.664286 -1.464727 -0.682289 -0.608902 -0.885009 -1.547398 -1.787842 -2.674379 -1.012665 0.791974 -1.075629 -1.084954 -2.163445 -1.624231 -0.898740 0.394162 0.542734 -0.267277 1.847062 -0.064499 0.021092 1.514814 0.163529 -0.828204 -0.099822 1.666757 0.763162 0.670853 0.117255 0.511367 0.844367 1.567724 1.521127 2.179933 2.084763 -0.125721 0.663619 0.167965 1.039545 2.186932 1.307687 0.691958 0.374079 0.956735 1.866897 1.091459 1.045703 1.247945 2.329065 2.157227 0.852510 -0.113436 1.192506 1.983595 1.629122 0.821657 1.978375 2.403151 1.563358 0.727218 0.911687 2.621094 1.728730 2.464407 4.171886 2.506929 1.019478 1.629102 1.510537 1.544752 3.657573 2.853505 1.730743 2.055103 2.445736 1.966015 1.349097 0.542907 2.335951 2.305211 1.148383 0.393630 -0.835896 0.000932 1.717478 0.967659 1.100753 0.457829 1.474095 1.693738 -0.059460 0.612876 0.386084 1.854820 2.255683 2.911677 2.008088 1.321630 0.826177 2.301944 3.583190 5.088264 4.015270 3.239143 2.524356 2.131127 2.872459 2.982510 3.367002 3.602752 3.410536 2.915706 1.687123 1.106257 1.490645 3.724228 3.647035 2.787323 1.873148 0.637864 1.646739 2.728936 3.064915 2.760344 2.564808 2.486217 3.265144 3.142004 1.738255 1.312425 2.431057 2.220051 1.903334 1.833291 -0.726322 -0.739023 0.504034 0.097739 0.278601 -0.523715 -1.308808 -0.849377 -0.854347 -0.986034 -1.140403 -1.263308 -1.976431 -1.520762 -0.904031 -1.613164 -1.819866 -1.970010 -2.019191 -2.310490 -1.584212 -0.967450 -1.679256 -1.891372 -2.661568 -2.950141 -2.698141 -1.239709 -1.717259 -3.673367 -1.932237 -1.842013 -1.496969 -0.920655 -1.605576 -1.136422 -1.416163 -0.676604 -1.540891 -1.521629 -1.040237 -0.618657 -1.218637 -1.574129 -1.809935 -2.145123 -0.974651 0.016896 -1.369799 -2.443754 -1.854578 -2.451858 -3.010365 -1.844556 -1.218987 -2.236168 -0.828168 -0.915271 -1.734070 -1.224699 -0.834247 -0.405879 0.841419 0.529460 -0.775672 -0.968920 0.100751 -0.096216 0.095025 -1.405736 -2.070409 -0.392786 -1.375711 -1.817041 -3.063792 -2.896706 -2.047976 -1.717448 -1.085278 -1.243581 -1.125951 -2.897059 -2.306401 -2.149525 -3.484215 -3.336556 -3.975257 -2.275766 -2.753373 -2.328786 -3.516292 -3.664498 -3.004092 -2.343272 -2.178729 -2.516681 -3.663460 -4.125856 -3.667256 -4.859811 -4.984908 -3.550431 -3.613341 -2.937221 -2.544188 -2.258504 -1.944544 -1.228992 -1.294147 -1.245224 -0.728954 -1.076113 0.010538 0.039302 -1.638878 -2.332664 -1.905349 -1.063844 -1.770777 -1.601745 -2.109890 -1.110347 -2.581825 -2.007321 -1.844213 -1.393955 -1.256158 -0.402175 0.229164 -0.233147 -1.943217 -1.231281 -0.503959 1.118402 2.399052 0.928670 -0.328559 -0.208341 0.408853 -0.684102 0.354774 0.303511 -0.388071 -1.014468 -1.560425 -1.609405 -2.524599 -2.917259 -3.047829 -1.037707 -0.656612 -1.478501 -1.767686 -1.617868 -0.871333 -1.164892 -1.345999 -0.481866 -1.019208 0.838381 1.821590 -0.379085 -0.868317 -0.951779 -0.709676 1.630825 1.786942 0.553109 0.277492 0.426523 0.444282 0.003660 0.587845 1.220130 1.519142 1.893929 1.270830 0.074251 -0.459409 -0.555629 1.449993 2.201652 2.021441 2.039041 0.460662 0.977698 -0.304865 1.370901 2.521699 2.971737 2.716278 2.510376 0.731405 2.006883 2.074435 1.960213 3.942965 4.590290 2.953601 2.524116 1.834719 1.766273 1.839965 3.160195 1.806045 2.599612 2.895468 0.952204 2.195685 0.969423 0.916440 2.702729 2.131931 2.716097 2.975657 2.079891 1.633443 3.270506 2.737913 2.553509 3.463031 2.717745 2.649969 3.483036 3.443451 3.166840 3.380703 4.015507 3.720939 3.380349 3.484630 3.465944 4.790130 3.968485 3.172237 1.991406 1.590040 1.928317 3.246613 1.424100 1.890730 1.634005 1.339005 0.681976 1.046909 1.339029 1.345953 1.604442 0.242965 -0.428750 0.076455 1.148442 1.371018 1.917716 0.227552 1.143856 1.131783 1.974747 1.296254 0.415812 0.468495 0.026622 1.136636 -0.863090 -2.391674 -0.851696 -0.404667 -0.606885 -0.817762 -0.935943 -1.728802 -0.702420 -1.554048 -2.550371 -2.586499 -2.542436 -1.364030 -1.997299 -1.367503 -1.816863 -2.282211 -1.121779 -0.840194 -0.426567 -0.872196 -1.268944 0.062175 0.484856 0.431106 -2.247564 -1.862972 -0.873268 -0.556004 -0.947659 -1.692267 -2.016598 -1.574486 -2.946869 -2.801388 -3.219244 -2.391073 -0.765511 -0.611316 -1.485020 -1.728552 -1.174636 -1.410831 2.007142 1.788461 1.140218 0.589307 1.158134 1.705178 2.584348 2.977435 2.739740 1.496056 2.153272 1.819947 1.365832 0.958469 1.259727 1.993622 2.135174 2.289682 0.712481 0.942957 1.529537 3.281573 2.585754 2.970667 2.411025 2.270122 1.858174 1.737493 1.807113 2.134943 2.785467 0.886087 1.625562 1.299376 0.294640 0.598260 0.167788 1.216143 1.693033 1.396187 0.371557 -0.822406 0.447402 0.189874 1.516568 1.320164 0.317342 1.462669 1.312908 1.313818 2.553915 1.727974 1.248182 2.217821 2.617327 1.561229 2.622731 1.544163 2.012914 3.324394 2.713332 -0.136387 -1.089524 1.507110 2.427776 2.711391 1.053785 -0.529027 -0.909277 1.670453 2.366884 0.559758 1.555482 0.425493 0.041789 0.194448 -0.179046 0.675094 0.553663 -0.191670 -0.783879 -1.295530 0.126093 0.240995 0.413232 -0.023253 -1.006827 -2.234936 -2.385443 -1.575299 -0.980695 -2.310162 -3.696440 -4.058440 -4.736151 -4.432125 -5.001034 -4.541413 -3.250641 -3.933870 -3.067314 -4.655903 -5.500630 -4.101773 -3.320480 -2.837072 -2.746455 -3.992684 -5.526616 -6.007955 -5.663291 -4.621785 -3.084744 -4.451688 -5.689852 -6.732204 -4.959323 -5.378926 -5.571708 -5.873472 -6.674058 -6.516565 -5.308611 -5.940169 -6.831131 -6.644175 -6.460920 -6.535340 -5.018030 -3.894479 -4.533066 -4.590371 -5.196026 -5.752742 -4.651406 -3.387163 -4.769036 -3.945639 -5.748245 -6.686542 -5.068522 -5.156792 -5.868314 -4.978562 -4.888957 -5.752224 -4.758377 -5.159280 -4.828234 -4.724487 -3.446221 -3.774322 -3.417460 -2.963072 -4.151984 -4.109039 -3.245798 -3.444212 -3.756306 -3.520973 -3.509259 -3.543025 -3.888714 -2.769645 -2.764217 -1.590465 -1.871190 -1.566089 -1.231516 -1.034107 -0.760838 -0.534859 0.070410 -0.348519 -0.738031 -0.147270 -1.481398 0.252438 0.424879 0.892418 -0.981273 -0.859624 0.148753 -0.037908 1.299379 0.816373 -0.615745 -0.132276 1.208964 0.052814 0.553114 0.297917 0.190481 -0.594839 -0.675108 -1.191220 -0.568752 -0.435129 0.262301 -0.564916 -1.493308 -2.135913 -1.741831 -1.176725 -0.346368 -1.251789 -0.847002 -2.312910 -2.170551 -2.177098 -0.811913 -0.378085 -1.455695 -1.831607 -2.768672 -2.221273 -1.395272 -1.676635 -1.845341 -1.037812 -2.900128 -3.090752 -2.372288 -2.841297 -3.675708 -3.213530 -3.498811 -1.972011 -1.699406 -1.164023 -2.995880 -3.314442 -2.086221 -1.852541 -0.209098 -0.260839 -0.991928 -1.659322 -1.700135 -1.419609 -2.059786 -0.742439 -0.423234 -1.156234 -1.417763 -2.512516 -3.035332 -3.554178 -1.878612 -1.843595 -1.749844 -1.705664 -2.426672 -3.149722 -2.525356 -0.432689 0.650138 1.257858 1.310803 -0.942022 -0.500935 0.357076 1.253217 1.274153 0.694339 1.025626 0.000702 0.840881 -0.375607 -0.334126 -0.957018 0.428347 0.745720 1.054210 1.192304 0.627038 0.093037 -0.017433 0.355521 -0.857792 -0.587262 -0.244655 -0.015206 -0.760652 -1.951044 -1.864743 -1.450671 0.007456 0.569255 0.903448 0.303879 1.082799 1.987163 1.891150 2.264686 2.416262 1.231526 2.027628 2.868914 2.559820 1.727596 1.228537 1.143608 3.546475 3.812881 4.740181 3.781396 2.769864 3.407292 3.321299 3.307668 4.558949 4.444405 2.330172 1.648073 1.505341 2.024169 3.623449 3.326206 1.695224 2.837470 3.458328 1.897694 2.141571 2.674784 4.170941 4.794398 4.726109 3.501113 4.628641 5.018347 4.708639 4.530432 3.842543 4.297850 4.866315 3.868711 2.870885 0.938247 2.439377 2.909369 4.685359 5.095321 3.676801 3.460306 2.704007 2.905362 3.990787 4.319989 4.155481 3.395976 1.787693 0.457445 1.068196 2.326917 2.163239 1.903099 2.563270 1.468329 2.140182 1.589740 0.450435 1.585337 2.000773 0.531176 0.611537 0.905806 -0.454959 -1.519038 -1.883495 -1.053310 -1.084127 0.039278 -1.829027 -2.736319 -2.970315 -0.738468 -0.687319 -1.022743 0.356303 -0.073143 -0.149752 1.354358 1.237536 0.452704 1.384648 1.457012 1.284280 1.509688 0.796116 -0.999744 1.090652 2.619383 1.523086 1.649727 0.690546 0.100808 1.782259 3.340602 2.520470 1.894550 1.579008 2.488322 2.698058 2.952868 2.978295 3.481441 3.035071 3.133969 3.209128 4.050582 3.951843 4.199396 3.408808 2.254507 2.633631 4.291412 3.073222 2.184279 4.171599 3.054435 2.286423 1.595815 0.232513 0.735851 1.595738 1.248381 -0.073186 0.885848 0.010488 -0.052537 -0.776475 0.168358 -0.607844 1.014641 0.778382 0.060854 -0.572686 -1.153608 -2.157631 -2.470715 -1.429024 -1.029421 -1.161376 -1.288519 -1.615476 -2.784654 -2.322158 -1.015284 -1.658295 -0.661542 -1.268786 -2.922292 -2.178580 -1.907322 -2.510648 -3.250283 -2.275417 -2.612860 -1.746455 -1.898435 -3.895481 -3.180845 -2.007664 -1.564297 -1.680849 -2.113710 -2.363398 -2.907269 -1.172955 -0.601290 -0.704668 -1.331508 -2.592794 -3.041689 -2.311819 -1.219418 -2.021483 -2.199378 -1.226037 -3.665479 -3.272967 -2.082362 -1.977208 -0.383131 -0.924715 -2.728970 -3.923313 -3.402271 -0.953250 -0.056111 -0.844663 -1.726576 -2.074197 -0.805317 -0.070797 1.427111 0.883729 1.779763 1.391733 0.685526 1.556672 1.334086 2.157679 3.401818 2.634614 0.707196 0.991147 1.384978 1.292125 2.269261 2.553455 1.951373 3.764840 2.783120 3.004648 2.671741 2.378072 2.993047 5.469732 5.192652 3.449372 2.725188 2.747311 2.605847 4.050112 3.895168 4.774391 4.086133 3.593667 2.834797 2.316952 1.603439 2.556220 3.252773 1.880867 1.904493 0.901590 1.227504 0.827313 -0.178608 -0.618425 0.765705 1.083639 -0.734056 -1.461159 -1.708235 -2.978404 -3.067614 -1.934561 -2.312720 -1.222282 -0.991990 -3.141033 -3.211743 -2.239668 -1.193805 -0.483269 0.112690 -1.387107 -1.230888 -1.369456 -1.630123 -1.506681 -2.373008 -1.747378 -2.414279 -2.774412 -1.743026 -2.693716 -3.474529 -3.955059 -3.517513 -3.339862 -2.754540 -2.592796 -4.036687 -4.996096 -4.222842 -4.052296 -3.693514 -4.054367 -2.923162 -2.779128 -2.842082 -2.742998 -2.896637 -3.495182 -3.537518 -2.517424 -2.005025 -1.495144 -1.887579 -3.337399 -4.487317 -2.882172 -1.581454 -1.003379 -1.577474 -1.659757 -2.097974 -1.776159 -1.952893 -1.889294 -1.949060 -1.555295 -2.107526 -2.707647 -1.477980 -0.815864 -0.179690 -1.053449 -0.752094 0.396881 0.693599 0.914860 1.054489 0.812990 1.017818 0.890529 1.277988 -0.315904 1.235237 2.576740 3.076464 3.285453 1.227418 2.103280 3.349914 4.683644 4.593154 3.891684 3.870473 3.440335 3.680883 2.789748 2.166231 0.811565 2.165145 2.406498 1.781785 1.480543 0.988577 -0.027467 1.522040 3.867153 3.005293 2.691953 3.036685 1.934376 2.922269 3.207657 2.627648 0.381451 1.295320 1.381070 0.788317 0.597213 -0.865956 -0.689934 -0.026514 -0.506337 -0.965748 -1.307433 0.214810 0.172179 0.375463 -1.139264 -2.332181 0.180068 0.388050 1.082223 0.881419 -0.395908 -0.679041 -0.277193 -1.339520 -0.803026 0.044513 -0.242148 -1.057201 -2.154414 -1.836132 -1.741515 -0.590994 -0.525300 -0.573136 -1.296285 -1.468019 -1.827235 -1.245501 -1.231873 0.428477 -0.355722 0.079050 -0.661785 -0.335160 -0.007906 0.204266 0.615545 0.271894 0.164879 -0.268582 -0.414285 -2.511298 -1.950897 -1.103305 -1.711338 -1.403875 -1.241788 -1.478142 -0.981421 -0.697951 0.040703 -0.517070 0.290215 1.239448 0.478444 0.104264 -0.216646 -0.427253 0.303416 -0.348797 -0.260857 -0.927813 -0.566938 -2.074612 -1.697463 -2.959405 -2.096321 -1.547949 -2.765186 -3.202482 -3.467142 -4.106471 -2.724651 -3.211907 -4.200221 -4.033706 -4.465317 -4.212918 -5.454144 -6.010591 -5.596930 -6.290596 -4.501734 -4.728416 -5.420076 -4.339694 -5.690858 -4.677748 -5.645673 -4.682036 -4.210787 -3.727686 -3.737057 -4.962174 -4.502789 -4.143191 -2.706609 -3.923732 -3.859518 -2.588412 -2.752297 -2.531169 -2.824412 -3.331463 -2.535079 -2.160809 -0.986116 -0.741130 -1.188360 -0.346401 0.174132 -1.205878 0.515204 0.668132 0.805862 0.443704 0.430586 0.321618 0.549061 0.612342 0.332475 1.660968 2.141408 1.780819 1.452293 1.230575 0.899900 2.592022 2.515024 3.105845 1.470119 0.733930 0.865702 0.986214 0.700429 1.226762 0.837758 0.677232 0.387755 0.163826 -0.148456 0.824863 1.063235 0.216584 0.937462 0.703732 -0.133677 0.160549 -0.543907 -0.839668 -0.985369 0.800630 -0.064012 -0.015090 0.119960 0.359053 -0.822737 0.234427 0.851936 1.254085 1.896317 2.237702 1.026767 2.064660 2.116107 2.711544 2.722105 2.298093 2.139512 2.368825 1.214012 0.971035 0.982316 -0.579475 0.352598 1.114368 0.356706 1.284981 -0.225800 0.313487 0.069837 -0.378359 0.798202 1.337882 1.837463 1.604984 1.403569 0.175001 0.160977 1.046238 3.218262 3.101566 2.850982 0.932929 -0.731026 0.250447 0.574716 1.298182 0.873354 1.235478 -0.172538 -0.534223 0.351730 -0.471592 0.411141 1.363244 1.208015 1.550510 1.151450 0.889021 0.565877 1.023352 0.774173 2.322411 1.989230 1.240316 0.968148 0.655345 -0.110737 0.084596 0.267802 1.577144 1.351106 0.035003 -0.129574 -1.426943 -1.047371 0.316852 1.050615 1.336887 1.241592 1.005440 0.493700 -0.045102 1.680540 2.540950 3.164688 2.395569 0.799881 -0.414364 -0.375981 0.139837 -0.060807 -0.107302 -0.912436 -1.517899 -1.641632 -1.484759 -0.510923 0.157972 0.509088 0.652450 0.812583 -0.057407 1.150527 1.728546 1.634926 0.999652 0.995358 1.621874 1.533558 1.289206 1.541625 1.032568 2.979562 2.704237 2.612327 1.999129 1.247203 2.290496 3.417016 3.742410 2.768182 2.936439 1.686397 2.941476 2.095281 3.836225 3.819752 2.677413 1.967152 2.653555 2.183626 1.589103 1.608207 1.152531 1.602819 1.684996 1.238266 -0.637711 -0.838284 1.035776 1.945361 2.096516 1.687105 1.149472 0.125163 0.545294 0.932494 1.916666 1.493425 0.744146 0.099641 -0.852114 -0.503402 1.175617 2.235755 0.399155 0.341492 0.970741 0.878930 1.036919 1.542181 -0.173528 0.408973 1.672564 0.218838 -0.506919 -0.750889 0.483580 1.361705 1.176978 0.025224 -0.490921 1.245533 -0.150828 0.350921 1.228737 0.327427 0.392347 -0.875715 -2.268651 -1.657815 -0.728439 -0.971800 -2.546715 -3.212060 -3.642731 -4.123346 -4.710193 -4.596731 -4.643505 -4.046345 -3.907921 -3.831677 -4.403720 -4.221791 -2.932545 -3.469353 -2.153261 -2.239113 -1.363294 -1.517716 -2.916254 -2.619440 -2.996681 -2.767228 -2.137515 -1.885713 -3.095595 -2.930634 -3.275082 -3.313326 -3.234951 -2.496090 -2.922289 -1.541051 -2.948265 -3.997742 -2.831929 -3.113436 -3.361218 -2.812513 -3.625667 -2.289218 -1.789989 -2.646758 -3.047868 -2.380330 -2.779585 -2.017887 -1.206956 -2.319620 -1.933912 -2.389372 -2.784905 -2.621111 -1.042391 -1.783053 -2.276336 -1.120418 -0.274636 -0.714696 -1.301214 -1.006995 -0.795393 -1.169761 -2.032408 -0.789185 -0.195964 -1.142420 -1.607414 -2.890681 -2.801330 -1.985886 -0.375023 -0.759370 -2.852054 -1.806523 -2.216981 -2.229871 -2.232967 -2.368887 -2.426020 -0.926205 -1.517931 -1.233644 -1.731519 -2.682265 -2.958067 -1.747195 -1.928702 -0.474182 -0.647965 -2.173975 -2.251704 -1.184430 -0.741242 -1.002239 0.001755 -0.323956 0.225419 -0.608762 -1.265217 -1.316120 -0.251080 0.515169 0.897123 1.227884 -0.101180 1.181140 0.319450 1.451360 2.394515 3.005056 2.494171 1.269709 1.573575 1.176053 1.558999 1.498402 0.934549 2.849911 2.327801 2.558624 1.627206 2.125113 0.929299 2.780287 4.076439 3.933138 3.118522 1.995180 1.095847 0.208150 2.244758 2.699780 3.429701 2.577427 0.980635 0.445200 0.816976 2.298397 2.832755 1.342801 0.860889 1.371717 -0.149002 0.040031 -0.196245 -0.349378 -0.235912 -1.059297 -1.319274 -0.817187 -1.339732 -1.389655 -2.052962 -0.725852 -0.573929 -0.183236 -0.477639 -2.261297 -1.600963 0.467203 0.113429 0.953814 0.531346 -1.350724 -0.170480 0.027923 -0.214623 -0.414504 0.880892 0.291657 0.206190 -0.109414 -0.991267 -0.499281 0.147371 0.712509 -0.528778 -0.953939 -2.076940 -1.955603 -2.186475 -1.726090 -0.907785 -1.470905 -1.575110 -1.033470 -0.718545 -0.981001 -0.847187 -0.448895 0.253727 0.742532 0.134273 -0.360118 -0.300081 -0.982424 0.213141 -0.297878 -0.569281 -0.813372 -1.376676 -1.057940 -1.383251 -1.219870 -0.474528 -0.074221 0.098680 0.827397 -0.303684 -1.312821 -1.235347 -1.277071 -0.232640 -0.897929 -0.815709 -1.821834 -2.697331 -2.902263 -2.621783 0.157653 2.205305 1.850772 1.785180 3.254062 3.798197 6.444011 7.773938 8.615785 9.401237 9.225722 10.119711 8.305597 7.735428 7.108077 7.851520 9.831896 8.208286 7.018635 5.692784 4.513026 7.609603 7.746139 6.005536 4.082077 4.181274 3.782686 4.560337 4.625043 3.573022 4.183994 4.221130 4.508734 4.138515 3.581154 4.720786 5.691958 4.414473 4.175377 3.916321 3.918961 3.512341 4.088394 4.538316 3.306008 3.655493 4.564175 4.499577 2.331593 4.297322 4.963377 4.177252 4.794539 4.371354 3.171280 4.615693 4.733797 5.522045 5.149678 5.614937 4.453781 4.449487 7.181173 7.753568 7.398097 6.634775 5.842442 5.870207 6.710017 7.328986 6.896386 6.750258 8.139738 8.171409 8.479896 8.517766 8.743589 9.245287 7.218875 7.471566 7.657881 7.120410 5.408718 5.237770 5.906379 4.665671 3.848828 4.526753 4.600492 5.762400 5.105838 4.165948 3.465168 3.834290 5.180588 4.726086 4.340141 4.356456 5.897105 5.372917 3.351954 3.840475 4.498847 4.933971 5.040095 4.092461 1.923218 3.180853 5.086209 4.893038 4.123231 2.962140 2.525045 3.524042 2.877760 3.678303 2.104743 1.713246 1.999874 2.033177 1.701608 3.588962 4.468337 2.684310 1.893469 2.159505 3.159913 3.962692 3.759890 3.008057 1.934866 1.716197 2.249069 1.847447 2.312058 3.031580 2.080713 0.005382 -0.845295 0.169103 -0.459447 1.137668 0.463014 0.006519 -0.765453 -1.246796 2.122982 1.718643 1.084898 0.628749 0.569309 1.050409 2.502076 2.509344 1.557544 0.587469 1.971024 1.686130 2.814822 2.756987 2.050765 1.791608 1.042132 2.258658 2.689923 2.823432 1.488076 1.624667 1.995985 1.853117 1.387870 1.176787 0.704200 1.074983 0.616621 -0.139551 1.444562 -0.078880 0.949596 0.397021 1.086967 0.658049 -0.271619 0.277167 1.722656 0.664312 0.635729 0.033526 -0.902781 0.171441 2.763995 3.002575 0.592907 -0.822054 -0.896010 -0.327230 1.124989 1.081513 0.278954 -0.812410 -1.841208 -1.012007 -0.466695 1.048996 0.218842 -0.801302 -1.466974 -1.490579 -0.822517 -0.630057 -0.369710 -1.865344 -2.234923 -1.634419 -1.503767 -0.133814 -1.013372 -1.771523 -2.426261 -0.939119 0.115654 0.338220 0.106047 -0.436389 -0.767483 -0.355940 1.324452 1.674718 0.483243 -0.039103 0.299698 1.961909 2.492008 2.396560 0.654740 0.840855 1.312780 2.325527 3.023384 0.584559 0.075334 -0.051861 -0.016028 -0.997788 -1.021288 -1.629828 -1.499190 -1.147804 -2.811814 -3.020180 -3.457467 -2.619039 -2.166089 -1.867177 -2.761815 -2.540009 -2.056608 -1.130037 -2.119700 -3.076108 -1.377266 -2.028130 -2.194569 -2.080783 -1.816311 -3.541374 -2.327070 -3.618644 -4.381161 -2.419542 -2.566809 -3.780896 -4.134616 -5.216016 -6.311662 -6.098081 -5.193614 -5.345883 -4.873885 -6.128740 -7.506579 -7.309934 -5.394033 -5.113143 -5.588087 -5.754010 -6.304099 -6.538925 -4.261839 -5.274754 -6.375802 -4.929255 -5.212533 -5.866195 -5.438687 -4.795801 -5.658289 -6.092339 -5.653055 -6.915240 -6.079045 -4.633681 -4.724022 -6.385853 -5.855034 -6.911335 -5.970252 -5.628617 -6.116332 -6.403205 -5.962566 -5.545902 -5.454449 -5.248793 -4.740153 -4.775162 -5.102268 -5.022951 -3.854881 -3.939623 -2.220654 -2.492787 -3.007572 -3.001673 -3.003258 -1.099229 0.477548 -0.313265 -1.173368 -2.303472 -2.634123 -0.796858 -0.834301 -1.049063 -0.868792 -1.439419 -1.760422 -0.018916 -0.423318 -0.455158 -0.142944 0.593844 -0.453059 1.029205 0.236804 -1.060661 -0.013203 -0.728066 -1.450761 -0.506119 0.530459 -1.088962 -1.157356 -1.487037 -2.216662 -0.034091 -0.652887 -0.697953 -0.645887 0.481133 -0.321193 -1.498509 -0.830599 -0.116148 -0.409412 -0.474745 -0.293304 -1.024988 -0.476500 -0.159694 -0.135145 -0.195032 -0.623619 -1.498907 -2.511745 -1.353357 -0.187521 -0.774127 -1.574456 -2.252744 -2.824655 -2.207107 -1.058119 -1.744971 -2.277182 -1.942848 -3.351964 -2.528844 -1.997429 -2.118290 -2.647592 -2.826246 -4.039304 -3.013049 -2.340588 -1.545878 -2.771504 -2.479280 -3.918776 -3.411694 -2.223832 -1.440209 0.066275 -0.535543 -1.515940 -2.337458 -1.243611 0.398761 1.227608 1.033207 0.902095 -0.890696 -2.172718 0.430377 1.205431 0.576864 0.597274 -1.021225 -1.517382 -0.355118 0.349603 1.362801 1.055879 0.826111 -0.456776 -1.349325 0.676200 0.944431 1.235587 0.075989 -2.200107 -0.783367 1.097276 1.855174 1.272121 0.750102 0.762199 1.189252 2.029044 3.098567 1.773602 0.473597 1.857072 0.848387 0.667730 2.173311 1.497502 0.643819 0.354556 0.108524 -0.041557 -0.397205 0.183793 -0.462575 -1.108408 -0.615962 -2.881879 -2.830936 -1.539870 -1.084241 -1.098682 -2.387228 -2.373681 -3.432426 -2.544409 -2.703986 -1.930926 -2.662347 -3.629477 -2.680598 -3.290265 -3.252544 -2.057895 -3.979625 -5.505016 -4.203040 -5.066048 -4.249458 -4.000048 -4.949739 -6.077769 -5.469905 -5.581218 -4.867754 -3.596764 -3.606542 -3.611336 -3.487764 -4.384823 -3.683609 -2.909125 -1.593851 -3.121800 -2.970691 -3.613067 -3.223726 -1.665124 -1.355534 -1.989252 -3.396195 -2.742593 -1.642069 -0.417330 0.262665 -2.117200 -1.989056 -1.812017 -2.291761 -1.344163 -0.236445 -1.055852 -0.901413 -0.963992 -2.095394 -2.309250 0.158109 -0.150474 -1.060366 -0.069865 -0.287483 -0.168098 -0.301305 -0.074193 -0.155417 -0.183074 0.093520 0.431210 -0.768325 0.126815 -0.143493 -0.750729 -1.368566 -2.306103 -2.055832 -1.402118 -0.669085 -1.582518 -1.616823 -1.520035 -0.259212 -0.828220 -1.549831 0.125437 0.681898 0.978404 0.614122 -1.574673 -2.784056 -0.882056 1.852705 1.068315 0.275676 -1.036233 -0.706246 0.224250 0.465787 0.651290 0.573979 0.533743 0.440914 -0.418832 -0.832684 0.243051 -0.177843 0.791781 0.875284 0.499694 0.573141 0.612918 0.093708 0.852777 0.911697 1.258429 0.173059 0.085136 0.670429 0.710877 2.037535 0.421926 1.014156 1.778179 1.938793 3.114802 2.775418 3.634973 2.275448 2.552834 1.959983 1.559668 2.309497 3.359654 2.084222 1.246765 0.706531 0.619567 2.009786 3.778225 1.977137 1.338008 1.303478 2.009898 3.080373 3.399358 3.086527 2.914733 3.533820 4.596479 4.479095 3.727307 3.557326 3.502438 4.198907 3.764486 3.703270 3.296327 2.533868 3.261872 3.040666 4.779642 4.334204 4.663463 4.283954 2.928216 3.104537 4.552075 4.238826 4.072626 3.605244 2.725334 2.291033 2.744906 3.709321 3.384348 3.967472 3.288857 3.339933 3.572114 3.153579 2.469158 1.530493 2.491439 2.779871 2.579978 1.911892 0.552188 0.950703 0.500302 1.129512 1.800693 1.655762 0.269352 0.194951 -0.469604 -0.588500 0.489154 0.914707 0.567148 -0.241950 1.481009 1.119028 0.358653 3.150164 2.166797 2.501987 2.480463 1.128110 0.545685 0.691566 2.951507 1.228146 -0.859759 -1.706660 -0.678177 0.511408 0.499407 0.797053 -0.757847 -1.342509 -0.630055 1.485370 0.966060 -0.314040 1.049909 1.706030 1.846284 1.218818 1.085328 0.252374 1.499881 1.756193 2.614977 1.838850 0.871557 1.617523 0.714526 2.804617 2.821053 3.121640 1.739253 1.671177 1.417254 2.514382 2.993928 1.201681 2.452707 1.031634 0.876918 3.210233 3.780292 1.947578 2.034095 0.701148 0.240925 1.708768 2.165676 0.005544 -1.259049 -0.528415 -0.944984 0.108728 -0.098122 -0.696643 0.630448 1.633988 1.466285 1.330294 -0.482148 1.600435 0.544928 1.559974 0.950789 -0.285488 -0.467863 -1.816586 -0.869794 -0.022279 0.434629 -0.390455 -1.517259 -2.468336 -0.350482 1.539225 0.406192 -1.131349 -1.380613 -0.366695 0.316484 1.265729 0.722281 0.228152 1.366515 0.859286 0.657527 0.814436 2.190618 2.101679 2.389143 1.574341 -0.755357 0.402263 1.779127 1.453948 2.196222 1.155690 -0.971718 0.304594 0.756769 2.660271 2.285235 0.385729 1.440187 0.945724 1.930480 2.459392 3.150676 2.516191 2.094907 2.299184 2.324076 3.017675 3.403685 3.749413 2.684890 1.680138 2.124757 1.070613 2.006462 3.606976 1.131862 0.627708 -0.044107 -0.330292 0.821615 0.426578 -0.139895 -1.404032 -1.718077 -1.717660 -3.462048 -1.059644 -1.558623 -1.575735 -2.783008 -3.137008 -2.789938 -2.109029 -1.533417 -2.169637 -1.831577 -2.294538 -3.424767 -2.615485 -3.538774 -3.283530 -3.789521 -3.571679 -2.559447 -4.718682 -5.378886 -4.967313 -4.442342 -2.398665 -3.687612 -3.463057 -4.648222 -5.135044 -4.003696 -3.857896 -3.326883 -3.269315 -3.500397 -5.183645 -4.691964 -4.010268 -3.132023 -3.417782 -3.503598 -4.347554 -3.926217 -3.789912 -3.828107 -3.743522 -2.045074 -2.547713 -2.304312 -5.085805 -4.986463 -2.801461 -2.069122 -2.735343 -3.623529 -3.773756 -3.267973 -1.193779 -1.130591 -1.200234 0.012262 0.348275 0.672630 0.204797 1.660127 1.618865 1.597105 1.590705 0.690431 1.559071 2.417111 3.315051 3.281501 2.549199 1.758559 2.393526 3.633444 5.330154 4.530071 3.107408 2.173431 2.425769 3.310326 4.057694 3.417132 0.968757 1.168206 0.741585 0.756368 0.457210 1.155554 0.601690 -0.207559 1.499087 0.432211 -1.640316 -0.148548 -0.422676 -0.733049 0.092862 -0.543023 -1.980357 -1.274463 -1.882251 -1.679882 -1.192331 -1.326397 -2.184932 -1.563525 -1.445089 -2.094928 -1.952631 -2.086954 -1.326753 -1.232039 -1.221226 -0.985678 -2.211671 -2.375100 -1.700389 -1.758481 -0.633461 -1.531106 -2.905144 -3.175617 -2.162007 -1.998008 -0.889873 -1.702464 -2.684927 -4.380138 -3.585308 -2.975126 -2.930009 -2.412099 -3.807361 -4.544412 -4.369423 -3.834386 -3.001432 -2.677840 -3.382644 -4.339038 -3.265483 -3.882644 -2.171092 -1.622583 -3.357096 -3.695639 -3.497413 -3.060378 -1.934055 -1.650188 -1.829203 -1.975600 -1.748172 -2.493532 -1.143600 -2.086054 -1.830802 -0.405009 -0.679202 -1.621140 -2.143643 -3.621565 -2.609632 -1.349267 -0.697160 -0.956473 -1.555493 -2.838560 -3.410616 -1.735363 -1.203640 -0.621214 -1.006742 -1.265039 -3.002886 -2.244236 -0.066736 0.032055 0.236819 0.533715 -1.028920 -0.572545 -0.237716 -0.452921 0.605952 -1.048554 -0.169997 -0.521979 -0.192094 -0.275442 -0.310622 1.046126 0.484569 0.696904 1.222177 1.285077 1.510759 0.571243 2.328061 1.073360 1.498196 1.944284 2.124914 2.562958 2.978404 3.756772 2.584044 2.195171 4.202230 3.099531 1.971205 2.080264 1.296025 1.527409 2.968786 1.514070 -0.101158 -0.510456 1.042614 2.745985 2.673522 1.300930 0.734398 0.302899 1.472062 2.802908 2.595873 1.711731 1.600329 1.834532 2.248427 1.570933 2.852247 1.711039 1.609108 1.765350 1.337256 0.125881 0.547785 1.453447 1.446740 0.392353 0.128392 -0.181305 -0.677583 0.232486 0.080414 0.121945 -0.952145 -0.660787 0.061720 -0.770293 -0.093097 0.599530 0.528932 -0.489283 0.546703 -0.507377 -0.766907 0.945780 -0.231630 -0.993821 -0.004484 -1.717008 -1.108477 -0.467318 0.458478 0.314812 -0.236289 -0.396050 -0.798000 -0.093809 1.425099 1.464192 0.789587 0.445000 -0.917799 -0.307074 0.024005 0.126034 0.486177 1.255606 -0.714554 -0.296125 -1.699335 -2.815402 -0.501421 0.701592 0.492955 -0.730533 -0.931263 -2.606941 -1.915990 0.238657 0.362605 -0.616134 -0.840601 -1.456289 -2.164877 -2.755238 -1.761359 -1.680128 -1.121092 -1.642387 -2.015938 -2.163398 -2.295796 -2.293864 -1.750553 -0.337517 0.111520 -0.452901 -0.448562 -1.560209 -1.170055 -0.218867 -0.166418 0.062757 -1.446673 -2.442960 -2.367967 -2.853808 -2.334109 -2.931278 -3.068652 -3.092603 -2.900273 -3.364004 -4.218252 -3.136968 -2.088241 -2.331231 -1.499425 -2.097523 -2.741913 -1.964783 -1.282150 -1.041294 -0.915775 -2.425495 -1.741447 -2.083067 -2.325135 -2.321036 -2.705998 -2.068506 -1.379900 -0.979619 -2.329207 -2.637899 -1.839708 -0.817658 -0.553220 -0.436183 -1.420964 -1.574067 -0.737919 -0.635671 0.202429 0.436179 2.649448 0.845251 1.280223 1.220953 1.429300 2.666800 3.186425 2.391969 2.283974 2.501599 2.203766 2.183978 2.593843 2.126813 2.167700 2.468748 2.492471 3.308897 4.236750 3.756139 2.876077 3.454919 3.365383 3.125688 3.747841 4.603495 3.915964 3.668091 3.455160 3.897858 3.647514 4.056051 4.701554 3.961161 4.483006 3.882798 3.748439 3.718945 2.690409 2.381471 2.201362 3.336994 2.457637 2.941465 1.390511 -0.586528 0.063193 0.958658 1.046518 0.624530 -0.169519 -0.444865 -1.769877 0.156459 1.585058 1.214959 0.128317 0.776359 0.465730 0.292370 1.396590 0.825973 0.196657 0.803039 1.508440 0.251087 2.021082 2.459960 1.501140 2.442688 3.433365 2.541543 2.452567 2.188216 1.297973 1.886656 2.719110 2.404928 1.493753 1.542636 1.961009 2.623430 2.557545 3.454443 3.391199 3.173130 2.058334 2.774008 2.719019 4.245330 5.086112 4.723028 4.042074 2.914628 3.759019 3.711707 3.671988 4.289479 3.019419 2.634444 2.005975 1.240830 1.967493 2.057121 4.499142 3.310775 2.445574 1.605954 1.433362 2.118059 1.837226 1.770158 0.804962 0.321751 0.657505 1.298435 0.299762 -0.370476 0.991333 0.390654 2.904878 3.144376 1.094666 -0.090522 -0.090112 1.674184 0.775067 1.200570 0.791718 1.371211 0.944894 0.294032 0.806034 0.848907 3.143313 3.927138 2.781338 0.837639 1.646138 1.714314 3.084720 2.352775 1.086828 1.200261 0.878744 1.807624 2.001613 1.731134 2.764817 2.238398 2.716823 1.995787 1.912804 2.269930 3.556534 3.080344 3.462529 1.635091 1.381538 0.942992 1.616388 2.729998 3.116879 0.962869 1.437885 0.655706 -0.730346 1.447208 0.580633 1.016750 0.637951 -0.054624 -0.519100 0.369050 0.418315 0.289758 0.400041 -0.445118 -0.475900 -1.083037 -0.408057 -1.048976 -0.980950 -2.389194 -2.588962 -1.677650 -0.590042 -0.639646 -1.632745 -1.332381 -2.104135 -1.714495 -1.559656 -0.983613 -1.167011 -2.123936 -2.719693 -3.012723 -2.441539 -1.711893 -2.161322 -4.046136 -3.623777 -2.852890 -3.471197 -2.789843 -4.341834 -4.435775 -3.546082 -2.821124 -3.085711 -3.239272 -2.124668 -2.471215 -2.427323 -3.211503 -3.707319 -3.495116 -3.701115 -3.403092 -3.859907 -4.341473 -4.616279 -4.207159 -4.066080 -3.187071 -4.398860 -3.634467 -2.952070 -3.792129 -3.231990 -2.265663 -1.733090 -2.605798 -2.156692 -2.806073 -3.031420 -2.034421 -2.456298 -1.414253 -0.773691 -2.167915 -1.784546 -2.131815 -2.292346 -1.846350 -0.875433 -0.326638 0.335164 -0.868502 -2.005708 -2.241258 -1.204930 0.374003 0.074487 0.649696 -1.032065 -0.566669 -0.305609 0.421684 0.148943 0.210407 0.480479 -0.465973 0.141211 -0.817478 0.823726 1.850498 2.345398 1.377427 0.250872 0.280727 0.749134 2.301921 1.908514 0.852145 -0.449006 -0.629363 -0.013771 0.129721 0.870824 1.272735 -0.194305 -0.235400 0.358563 -0.733451 -0.744552 0.572144 0.047675 0.573116 -0.246474 -0.455883 -0.840596 0.654779 1.275904 0.346903 1.775245 0.430549 0.395054 0.993590 1.830833 2.827718 2.543749 1.378062 1.180515 0.482144 2.444431 2.065171 2.442754 1.253090 1.251953 1.087568 1.092883 1.427850 1.113309 0.949805 1.131590 -0.642224 -0.282715 -0.564913 0.966278 0.507327 0.474000 -0.201957 0.214706 0.098278 0.713399 2.201458 1.607702 0.336939 -0.320401 -0.593196 0.237680 0.948988 1.617158 -0.142530 -0.181263 -0.126053 -0.391669 -0.524479 0.568601 0.647467 1.331853 0.754633 -0.652133 -0.703687 -1.208324 1.090010 2.584137 1.328260 0.954184 -0.583742 0.328032 0.387194 1.712871 1.077313 0.292092 1.453357 -0.674065 -1.227354 -0.092692 0.225712 0.854980 -1.000899 -2.545607 -3.603103 -1.371007 -0.961698 -0.459820 -2.125823 -3.206454 -3.870061 -1.757924 -1.722998 -1.042539 -1.041690 -1.887502 -2.360186 -2.788856 -2.514967 -2.360629 -1.520880 -1.187701 -0.453810 -1.684002 -2.549815 -2.198959 -1.450410 -0.478808 1.013431 -0.454168 -1.691279 -1.865072 -1.218484 -1.189425 -1.154006 -1.481564 -1.368646 -1.540966 -0.991749 -0.906309 -2.862581 -1.412379 -0.144516 -1.076069 -0.725663 -0.893416 -1.178285 -2.858602 -1.312284 -1.244331 -1.564819 -2.128959 -2.708660 -3.273752 -3.618974 -3.103537 -3.390888 -3.607054 -2.968553 -2.834819 -2.583900 -4.292484 -3.533502 -4.065403 -2.331347 -2.612488 -3.377924 -3.225189 -3.994158 -3.147120 -2.164749 -1.942528 -2.035548 -1.667461 -2.557640 -0.665912 -2.477681 -1.546739 -0.605154 -1.010794 -1.715348 -2.915771 -2.855885 -3.655500 -1.887370 -0.513689 -1.384420 -2.430121 -2.703564 -1.332213 -1.894958 -1.514649 -1.795718 -1.970597 -1.141536 -0.999667 -1.591928 -2.079013 -2.784883 -1.844991 -0.491449 1.029770 0.796168 -1.492076 -2.381091 -2.188736 -0.120006 1.272749 0.089772 -0.765821 -2.170836 -2.418353 -0.405327 1.061221 -0.609394 -0.409268 -0.762780 -1.071685 -0.293203 0.510164 -0.229782 -0.257849 0.293916 0.918969 0.743436 1.294536 1.378041 0.026091 0.501020 1.395523 1.620629 -0.087388 -0.335320 0.455852 -0.312297 0.383819 0.650112 -1.165719 -0.726779 0.040445 -0.599303 -1.318652 0.321523 -0.084255 -0.996917 -0.564184 -1.489656 -0.944088 -0.706952 -1.441666 -2.113941 -2.334579 -1.832570 -2.511240 -3.774191 -5.243844 -4.571315 -4.113771 -3.508230 -3.689835 -4.930936 -5.002362 -4.294605 -4.141080 -4.055767 -3.009803 -3.700233 -4.132734 -6.097389 -5.213195 -5.073090 -4.264008 -3.487464 -4.733959 -5.735480 -4.940890 -3.470389 -2.871149 -1.829684 -3.639372 -3.798666 -2.539892 -2.340257 -2.168692 -2.565385 -2.021540 -1.664676 -1.121657 -2.230931 -1.411629 -1.610016 -0.039525 0.729153 -0.330581 -0.759601 -0.255576 -0.403678 0.294874 0.742178 0.432178 -0.081411 0.548438 0.268410 0.197244 0.957634 1.472335 0.353699 -0.045160 1.088902 0.937155 1.978499 1.769314 1.184027 1.263332 1.811106 2.083603 2.515564 1.351620 1.326659 0.898826 0.647313 0.730953 1.086584 0.886634 0.542093 0.480790 0.367518 -1.099952 -0.746299 0.673406 -0.384493 -0.992328 -0.609493 -1.682651 -1.068397 -0.243787 0.253365 0.642840 1.405366 0.751233 0.629257 0.458103 0.412763 1.489535 -0.089529 -0.788515 -0.131627 -1.186745 -1.790272 -1.001427 1.587772 0.376227 0.837642 0.069834 -1.177535 0.834872 1.233630 0.536951 -0.371703 0.483224 -1.606401 -0.855087 -1.012496 -0.919462 -1.015304 -1.500514 -1.531833 -2.375889 -2.228998 -1.743814 -1.666161 -1.020230 -1.171128 -1.332062 -0.583127 -1.094281 0.211228 1.316846 -0.371199 1.505424 0.512142 -0.569077 0.929864 2.014826 0.980702 1.860225 2.528821 0.512254 1.447410 2.083685 1.412070 2.780553 1.378222 1.237624 1.198827 0.585012 1.022504 -0.186135 0.417584 1.982909 0.845869 0.199341 0.567939 -1.027948 0.798724 1.064397 0.663748 0.313053 0.101926 0.674091 0.032870 1.549708 0.927983 1.399560 2.360757 1.849466 1.621710 1.474914 0.882667 0.785463 1.646886 1.568147 1.254968 -0.168976 -0.903282 -0.975689 -0.184189 0.610612 0.836655 -0.186945 -1.756753 -1.054702 -0.180752 1.761470 1.794858 -0.185384 -1.237054 -0.695789 0.094586 -0.186552 -0.900304 -0.744899 -0.562905 0.515445 -0.288993 -1.383296 -0.594460 1.535428 1.921553 0.989734 0.729224 -0.746779 0.103054 0.319821 0.412930 0.652797 0.481429 -0.315187 -0.681616 -1.044290 -0.258581 2.240735 1.585507 0.936449 -0.514699 -0.254346 0.127505 0.591624 1.431818 1.902560 1.255163 -0.784051 0.023940 1.437351 1.063240 2.501746 2.747373 0.842227 1.329398 1.701796 1.327094 2.206775 2.827207 3.247828 1.713741 2.122447 3.166013 2.477312 2.991201 2.706389 2.591186 2.666491 1.689974 1.699767 1.228373 0.838127 1.393050 2.325560 2.681334 1.436645 0.346058 0.037485 0.734884 1.794635 1.299309 1.323976 1.360515 0.184855 -0.671472 -0.984627 -0.897719 0.255785 -0.007326 0.107438 -0.932122 -2.411622 -1.281159 -1.328836 -1.250988 -0.501826 0.500410 -0.119747 -0.021842 -0.820701 -0.393050 0.660480 1.888229 1.430882 0.497313 0.029259 -0.616300 -0.377745 0.235381 0.168637 -0.744725 0.020797 -0.489615 0.032748 0.116493 0.664187 1.050567 0.219925 0.771337 0.201267 -0.024711 0.493521 0.300431 -0.288473 -1.199455 -1.463989 -1.467341 0.642994 0.220041 -0.940980 -0.808636 -1.342594 -0.275285 -0.169526 -0.147787 -0.041388 -1.097329 -0.734001 -0.591464 -1.057103 0.254630 0.751812 -0.690343 0.062568 -0.065851 -0.735533 0.097855 0.210929 -0.774603 -1.040444 -1.869812 -3.192502 -1.688954 -1.322813 -3.001283 -2.645851 -2.706366 -2.447619 -2.066304 -1.937362 -1.605784 0.047512 -0.865560 -1.013179 -0.481101 -1.974409 -0.573440 0.578073 -0.904676 -0.869626 -1.954251 -2.789497 -2.696995 -2.554259 -3.124393 -3.301161 -3.082399 -3.884370 -3.903401 -4.318329 -2.969872 -1.962910 -0.969161 -1.417151 -2.466797 -2.393594 -1.238612 0.181136 -1.375445 -0.564228 -1.150103 -0.649376 0.209820 -0.332806 -0.584179 0.273036 0.459378 0.953591 0.530411 0.585695 1.407411 2.444746 1.703950 1.442199 1.116041 1.920158 4.018251 2.620401 2.077894 0.987816 0.683136 2.366183 3.535306 2.745995 2.783100 3.179462 3.130892 4.102401 5.372124 5.044679 6.748382 5.573483 4.735302 4.194624 4.120517 3.850284 5.911571 4.851312 3.495766 3.244933 2.984644 3.649599 3.829007 4.960437 4.217535 4.033921 2.235731 2.574822 2.282897 3.922396 3.802426 1.490063 0.563678 -0.141611 3.370702 3.023499 2.875978 2.204248 1.190036 1.344205 2.046554 2.154650 0.937347 1.671547 1.259796 0.614238 -0.143793 -1.028941 -1.689276 -2.125961 0.209423 0.415422 -0.901788 -1.211791 -2.113782 -1.677578 -1.513869 -0.067107 -0.624714 -0.498247 -0.583875 -1.883744 -2.917156 -1.866222 -1.800911 -1.348859 -1.199160 -2.328568 -1.973288 -1.416804 -1.635892 -1.714171 -1.141320 -1.731519 -1.244400 -1.071513 -0.188637 -0.874567 -0.320840 -0.451955 -0.975885 0.087788 -0.183528 -0.616651 -1.767304 -1.296492 -1.423843 -2.160008 -1.263948 -2.414002 -3.779291 -1.891366 -1.172112 -1.209920 -1.834030 -3.280268 -3.338521 -3.149171 -2.201833 -1.841115 -2.296588 -2.588424 -2.495368 -2.789650 -1.900977 -0.474935 -0.038691 0.011494 -0.074903 -1.835683 -1.407058 -0.762034 1.003906 0.145181 -0.357713 -0.289911 -1.335069 -0.585463 0.106302 2.058393 2.096434 2.110711 0.565493 0.507815 0.841847 1.995818 3.497391 1.886421 0.441381 -0.005274 0.113337 -0.053638 1.796454 2.280294 0.473718 0.060920 0.701446 1.429020 0.785772 1.930917 1.042437 0.430563 0.565113 -0.066571 0.371652 -0.044398 -0.635501 -0.368782 -0.069313 -0.783653 1.052303 1.430563 0.476641 -0.723505 -1.277508 0.397797 0.846510 0.990152 -0.477129 -0.923469 -1.630277 0.017517 1.203030 0.273577 -0.627914 0.145871 0.005124 -1.460678 -0.345656 -0.523172 -0.290299 0.580614 -0.395635 -1.904849 -1.275434 -0.266454 -0.301942 -0.238616 0.480647 -0.767254 -0.449192 -0.260985 -1.798080 0.398670 0.223422 -0.774456 -1.087190 -0.085532 -0.158738 1.336211 0.536175 -1.766854 -0.677469 0.144302 -0.694819 0.491954 -0.986887 -1.553716 -1.103926 -1.635259 -1.897289 -0.570198 -0.622046 -0.342691 0.528156 -0.663038 0.553085 1.594558 0.848965 0.825279 0.903215 2.509672 2.598056 1.797783 1.546183 0.237385 0.588505 1.293260 1.130573 0.429238 -0.150381 -1.424813 -0.417860 -1.088446 -0.870539 -1.257151 0.803350 1.397640 1.215738 0.830664 0.484123 1.871375 3.483716 3.214069 2.070296 1.479451 