5.341085 -2.216220 0.397246 0.466174 -2.009414 3.142768 5.750477 5.813735 -1.320365 -2.346643 -1.704675 -2.070628 -5.435743 -2.737565 0.465734 1.003471 1.587991 4.552881 4.229145 1.100149 6.035735 2.116350 1.595711 3.892363 0.732954 0.638516 -4.466142 1.542106 -4.339298 -8.784291 2.891569 -0.341713 -2.675499 3.417400 -1.284641 -3.225516 2.586682 -0.925384 3.490333 -2.084249 -3.541083 0.075892 -2.345642 -0.050339 6.842675 0.724593 1.293625 -0.216805 -2.202078 0.031849 -1.041798 8.442678 -3.411688 -1.359713 -2.529860 3.345748 1.594935 0.171702 -4.769742 7.064654 -1.014331 -3.545527 7.206245 -2.011920 -4.185986 -3.305193 -2.442914 -2.766299 2.563618 -3.171183 2.917488 3.520448 -1.794424 -1.432352 3.775129 -5.112399 -2.196701 0.816087 0.578474 3.134981 -2.087833 -1.168018 -0.742505 -0.726547 6.066602 -3.135700 8.171142 -2.793393 -1.355572 1.269735 0.419927 1.896879 -6.501494 -1.882433 1.208757 -1.362622 -1.770417 1.079165 -1.262477 -0.810025 -2.953013 2.447418 1.656792 3.815698 0.747125 1.303473 -3.444879 -2.940814 -0.630263 3.451986 -0.198914 -4.710344 0.022187 0.567278 10.147323 -2.929180 0.416927 1.201976 -3.436528 -0.844105 0.817585 0.118610 -7.659771 -0.043362 -2.466116 0.296917 -0.267482 -2.880688 0.625323 0.930901 3.419266 -2.734865 -1.925772 3.522686 0.055662 -0.326598 -5.414880 -1.422340 1.166721 2.997410 4.461802 1.513174 -0.062819 -1.904671 -6.830304 -1.766227 -0.353036 -1.112095 -3.116025 1.408157 4.647695 -1.244114 1.256888 5.662061 -0.650821 2.023050 -5.766679 0.527863 -2.648781 -0.197553 1.683945 -0.938872 -2.418905 -1.457739 1.508105 -2.238414 -2.278675 0.541375 0.668713 3.349355 -2.200273 -1.489016 1.380258 0.803159 -2.593626 0.237130 0.466546 -4.559578 -6.100433 -0.141474 1.754158 3.384229 2.947365 0.898767 1.939350 -0.647375 1.196164 -0.305121 -0.863970 6.934759 1.021133 -0.944017 -5.256538 0.932582 -0.439513 0.998381 0.441449 6.214234 -1.238992 2.338529 -0.594015 6.432925 1.806479 3.776558 -1.442960 -2.823772 5.753355 1.224617 -2.253059 -1.894533 -0.675593 4.657389 3.591043 0.300358 5.812295 0.578087 3.313750 -0.157326 2.144909 -1.219033 -5.982125 0.370368 2.635930 -3.023757 7.790171 -0.539747 2.939287 5.492212 2.055925 -1.344797 -1.080988 -0.836504 -3.807178 2.008368 3.926608 1.015501 6.875460 1.457756 1.791569 1.462409 0.809804 2.426801 1.772575 -0.691455 2.556412 0.249614 2.795329 -0.425020 2.246697 7.004232 0.937954 -3.713112 0.138259 -2.313061 -0.177917 -3.366709 4.911866 2.044481 -2.198423 -0.854224 -2.950742 7.329809 -2.770776 2.853441 8.072739 -2.259530 1.505264 3.887579 -2.357753 -0.244210 -0.091456 -5.174847 -3.817313 -2.598491 -5.058605 -1.832412 1.163049 3.647630 -1.420421 -0.044583 5.612058 -3.226193 -0.536953 -0.868603 -0.791709 6.876153 -1.782079 -0.879801 2.504652 -2.656207 -2.911397 -0.364205 -3.179613 -0.164614 2.962752 -2.373680 1.110604 -1.160212 -6.180535 -0.411774 -3.391456 -3.305319 -2.695465 -1.611691 -3.653949 -0.181146 2.278403 1.499119 1.455646 1.628529 -3.350530 -0.161994 -3.258163 4.090780 0.126955 -2.122882 -0.943380 2.439663 4.282934 2.696905 2.142747 -0.408844 -4.697928 -3.942193 3.446129 1.521546 3.405459 1.188708 -2.530471 1.359178 -1.953398 7.152099 -3.028460 0.561313 1.388926 -0.512716 -0.565101 -1.101994 6.294321 2.102521 2.426816 0.149691 3.504898 -4.915194 -2.143780 -2.599124 -0.220259 2.306758 -0.220633 0.821751 1.481717 4.091781 -2.405403 2.842224 -0.408283 -2.765393 -2.081491 0.823586 2.901588 -0.395484 0.190406 3.232928 -1.975062 0.848519 5.362970 3.993631 -4.267752 -5.136342 -6.297749 4.350226 -5.554962 -5.216634 4.128849 -3.068279 0.720533 0.571883 0.327743 -0.228322 2.525816 1.886450 1.633655 1.909925 1.615627 -3.756083 -0.676889 -1.028577 3.668056 -2.360186 -1.395330 -5.475700 -4.127739 3.659879 -0.785878 -0.904805 0.044696 -1.216346 -0.746983 1.521478 -4.733972 -1.774334 -1.260757 -3.559230 -0.382834 -0.275000 -0.283280 4.895313 -0.835365 -0.480673 -0.116054 -0.234811 -3.496492 4.319674 0.658360 0.710280 -6.294739 -4.621984 -4.191941 -2.093075 2.147951 -1.131829 0.325280 -0.939834 -0.022154 -0.713337 -1.636250 5.444472 -0.928565 2.489229 0.197204 -1.890713 -1.952003 -4.956487 -2.406178 2.396463 2.038859 -3.006109 -3.809424 0.059280 1.886886 -2.274549 0.016749 0.344153 -1.507720 -3.403561 -2.994292 1.927871 0.763357 0.423594 0.777483 -1.030744 -0.464601 4.258986 0.007020 -0.474132 -2.591215 -4.239770 -1.065848 -4.119041 -1.591296 0.892641 -1.423837 1.883030 -0.505385 2.286959 -1.070910 1.411684 -4.402990 6.489466 -2.578787 2.987919 0.119679 0.344403 -4.858572 -1.729347 3.108998 -3.508201 2.468335 -2.778694 -4.007356 -3.226172 -0.602428 3.420059 -0.337904 0.433575 1.254974 1.824083 1.119627 -2.408524 0.028124 2.240392 1.792870 1.518106 -0.851795 -2.798298 2.718345 6.559787 -3.113385 -2.201242 1.635483 1.488664 0.575703 -0.051783 5.010487 -3.195198 3.142443 -2.648064 -2.360798 -4.911720 0.660834 -2.549756 -2.147006 -1.128317 1.953870 -5.752718 -2.197481 3.029225 4.351459 8.466325 2.376199 0.763365 1.556207 -1.508867 -2.895068 1.303409 -2.048250 -1.307550 0.012976 0.657532 0.536192 2.737094 -0.649849 -0.525201 2.474254 -0.552536 -0.558318 -5.591324 0.527041 5.073992 1.224464 -1.330493 -0.074319 0.706023 -4.921256 0.317813 1.836042 -1.281937 2.119742 -5.080304 -3.553150 -3.134409 6.711631 4.160028 3.660689 2.056554 -1.804089 -0.940568 8.069217 -2.938610 -5.670116 -1.072059 2.478574 -0.702804 -0.881160 4.379587 1.195867 1.636276 1.485817 3.780349 -7.251536 1.735489 0.908616 5.279942 -3.335676 -1.848000 -3.205146 -2.635538 -2.968578 -1.138842 4.033749 1.202582 -2.792043 -1.316182 -0.868459 3.376953 -1.028252 -1.093157 -0.174447 -1.732647 -1.258481 -4.125086 -1.380780 -1.664281 -1.338840 -3.450806 -2.334153 0.873320 -4.690867 1.023620 -1.997543 3.549039 -2.153589 3.718214 -4.514048 1.479983 -1.687116 -2.061813 0.552492 0.283961 -9.652048 -0.013475 2.444756 -1.539922 3.632827 5.981712 -2.015449 -0.876982 4.488882 2.356053 -4.103765 1.727121 1.581044 -3.550370 -2.698817 2.580663 1.520680 -4.064786 2.164629 4.517911 -1.247164 -5.992576 -2.327170 0.115809 4.300925 -2.141217 -1.240658 0.244785 0.813383 0.015803 4.159016 -2.074954 -1.315176 -2.956189 0.082116 1.934038 3.475047 -2.281118 1.456428 2.018683 -1.050422 1.169524 2.914884 4.711446 1.518665 -3.062294 3.065748 -2.809835 -5.588202 -0.294129 1.893754 1.498136 -3.183543 -1.496918 -0.865039 -1.023374 -1.896235 2.865823 -5.118915 1.708287 -0.657519 1.921459 -1.375463 -1.220233 1.537567 -1.394535 1.536153 -4.092565 -5.617472 -2.204361 2.801774 4.022579 5.823075 0.829053 -0.451656 2.876976 -3.683947 -4.558160 0.286997 -2.662093 -1.892630 1.812923 -3.087247 -2.334217 0.571763 -5.297035 2.779675 -2.947907 -4.742243 4.091035 -4.177684 -3.693192 4.399273 -4.229640 3.887905 -4.181443 -0.550107 4.399637 0.902475 0.250549 2.879594 2.918823 -0.391993 -2.746893 -0.094937 4.430748 3.097330 2.466195 -4.849158 -2.925350 2.570370 3.272145 3.923007 -1.662522 2.760993 3.288836 7.750277 -2.327692 2.919780 0.010085 5.234095 1.529661 1.197703 -6.277956 0.339952 2.545415 -1.538050 1.181818 -6.076348 1.212633 3.561676 -2.624610 2.499056 2.447493 0.029428 2.826014 0.043618 7.370428 0.728029 -1.611672 -1.050416 -3.137963 -5.603651 -0.300715 4.343755 5.959570 0.978297 -0.079301 1.030922 0.538793 1.542009 7.592509 -4.043792 0.603455 1.829720 -0.957931 -1.610984 3.133438 -2.851970 3.143223 3.453535 -1.960506 -1.163659 -0.794723 3.908919 -0.090715 0.158524 3.233224 -1.606783 -0.915583 4.054888 0.233305 -2.621472 -1.593266 -0.904568 4.255617 0.689086 -1.948874 -0.969747 -2.660519 2.698466 -1.101274 -6.224883 -2.161290 1.288790 3.351893 2.454101 -2.531422 -1.167478 4.698461 -1.880312 0.154282 2.548358 -7.746230 1.852591 -3.576940 -0.864727 1.319892 -1.209315 1.853166 2.108453 2.242898 -3.520379 4.992850 3.549535 2.588191 -0.162169 3.042440 -2.262566 -2.000122 0.376816 2.031645 -1.011711 -0.304266 -1.970679 -1.220628 1.411890 -2.109193 3.054910 2.708723 0.331078 0.874659 3.675448 -4.920932 5.800529 -3.327257 4.796535 -0.945790 -5.189560 1.157061 3.245851 -3.022836 -0.305379 3.116428 -2.321334 -1.427101 -3.704876 1.631112 0.820735 -1.944734 1.255125 -0.798437 -0.151273 4.709476 -1.604536 -3.985057 -0.302536 4.854570 0.795150 -1.835957 -0.880868 -0.231920 -5.329719 -2.482751 -2.770293 -2.593024 -1.910111 -1.146442 4.520149 3.882878 0.919804 -4.042338 2.181843 -1.336428 3.008271 1.771447 1.708355 2.330580 2.674030 2.250661 -3.814107 -3.368984 1.740580 0.869151 0.442169 0.895940 -3.423237 -4.771624 -1.586630 2.597391 1.009911 1.047753 2.037077 2.869564 0.211973 -2.853788 -0.592548 3.822072 2.685097 -0.104278 -1.600777 -2.951128 0.038861 -1.095367 -1.997441 -4.325229 2.311094 -0.159333 5.156225 -5.938713 0.575948 -2.092541 0.347149 -0.453780 -0.602260 0.034109 8.092756 4.447727 3.610562 3.568757 0.681584 -2.166667 5.195751 5.857852 1.786847 -0.110023 -6.474213 -2.211659 -0.211939 -1.807154 -4.933027 -3.124411 -1.251156 -0.492259 -3.054404 7.256084 3.193033 3.085083 3.420671 6.096647 -0.131798 -0.469306 -5.961716 -2.984518 -0.339660 -0.846079 -0.584735 0.397702 1.428620 1.488426 -1.378558 1.017888 5.618961 -3.203877 -2.249781 3.733415 2.960660 -3.104363 -2.388678 0.841612 0.562277 0.286383 2.557666 2.375204 -2.478037 -6.569158 -0.415776 -1.296775 5.593899 -3.349602 -1.584550 5.195887 -5.536710 2.564131 1.078272 -4.549275 1.416550 4.357637 1.006298 -1.551250 -5.647547 -2.304666 -2.531307 2.031313 -1.624220 1.973087 0.304062 3.627858 0.395359 -0.198500 -3.112910 -0.331671 -3.041588 -2.760720 0.336508 0.271335 0.462592 -1.894069 -1.154992 -3.579712 -0.663630 -1.227369 1.146377 3.625652 -1.595535 -3.067271 -2.199398 -2.295435 -3.096447 1.790647 6.397267 -1.786600 -2.592335 1.266237 -2.014106 -0.453794 -1.475287 -1.437967 1.910599 -0.186318 0.055764 -5.118501 -4.268370 0.858966 4.918797 3.554999 3.624629 4.520429 2.078073 4.189415 -5.313142 2.308975 1.109920 -1.827706 1.353353 -3.322661 0.307555 5.042902 -3.909839 1.580338 1.735943 1.707639 -1.253918 -0.765827 -5.893362 2.575503 -0.890628 -1.294299 -3.202325 -1.866172 1.256534 5.671845 -3.378797 -0.020173 3.330590 2.734286 1.839984 -3.754269 2.243033 -3.362897 4.781833 -4.444232 4.192124 -1.349038 -0.663952 2.143341 -1.116897 -0.988200 -1.103192 -0.644008 -0.854268 -5.579169 0.537539 0.209905 2.599890 -0.435204 0.253811 3.298392 -2.359537 -4.671790 0.719169 0.100249 2.143506 1.980897 -0.175442 0.650500 3.432818 -2.891964 -0.503654 4.446933 -1.644690 1.520012 -0.778442 2.191876 1.538221 1.103162 -1.897129 1.209155 3.778876 -2.297952 -1.712468 3.808711 0.484619 -2.302265 0.875265 0.807895 0.615758 3.079404 -0.077154 0.185229 -1.949334 3.491922 4.828966 -3.904063 -5.255072 -1.189610 -1.188707 0.557629 2.497017 -2.717175 -0.996988 -2.420872 0.256969 -0.831683 -1.290174 -1.073780 -0.326710 0.323835 2.821981 2.194231 1.679698 4.163818 3.617148 -2.011633 -6.604676 2.088339 0.719791 -2.814440 2.869722 -7.013376 5.458785 -5.717511 2.585310 -1.291463 -0.914356 7.095284 0.877444 -1.070641 -0.698322 4.884617 -2.222749 -4.733436 1.236333 -4.104156 -3.145911 -0.190749 -0.298260 2.238408 2.277717 -2.778320 3.230499 5.335260 3.774443 2.823365 0.293163 3.333877 0.196766 2.324679 -1.335140 1.479549 1.400081 1.383178 -1.148411 -0.718887 -2.981830 -2.720434 2.546810 -0.887649 2.108533 -2.653317 -1.295105 -3.487895 -0.719760 -1.464607 0.895694 -1.418611 2.109197 -2.615578 3.153993 -2.813387 -0.145420 2.185184 -3.374179 0.101763 -4.840643 -1.202331 -1.559935 -4.060634 -1.028116 -3.200300 2.868173 -2.853150 0.547334 2.961468 -0.089184 -5.165391 -1.652545 -6.639647 1.444743 -2.045754 0.630006 -1.497333 2.330828 4.765917 0.984865 -6.930291 1.815815 3.687327 -0.482507 -3.098857 -1.921028 -6.154646 -2.681827 -0.617411 -4.218896 1.713729 -0.464262 0.338045 -1.944779 1.002620 -2.487399 4.988056 -1.416306 4.043694 -3.768424 -2.623180 0.147681 -3.417070 1.449805 -1.870135 -0.880249 4.784689 1.803036 -6.321215 2.489656 -0.889090 5.999099 -3.192110 -4.642872 -0.606280 2.113817 3.296875 -3.358899 0.459560 3.482084 -1.875412 5.678229 -0.978060 -0.774924 -0.503802 -0.306187 -3.359248 -3.076521 5.018403 1.078570 1.335512 4.247869 1.541485 -1.176876 -3.785527 3.877010 4.670202 -4.028368 5.021133 2.418717 -2.620016 2.760593 4.248428 0.165010 -2.259345 -6.165866 -2.440760 -2.417039 -0.387072 -1.003832 -0.191818 3.511025 1.012857 1.074515 3.141643 4.808225 3.576655 -1.980475 -3.608436 2.297766 1.230926 -2.490118 0.410611 -1.577050 -5.736277 3.161629 -3.112653 -0.556138 -0.348239 7.825751 -3.619311 5.429106 2.202393 -0.970652 -0.908177 -1.164538 1.203705 3.104423 2.892144 -2.445857 1.604300 -0.991849 -1.359195 0.679533 0.116398 0.236856 -1.739153 -5.847214 2.885206 -0.733078 1.295111 3.575312 -3.918277 0.232536 -7.196341 -1.291881 0.086325 -0.533591 2.160385 -4.793458 2.529436 -5.580420 5.204344 0.358334 -2.510641 -1.489412 -5.572383 0.743839 -0.435308 -0.937077 -1.123959 -0.033521 0.510983 0.424748 0.149705 -2.894174 -2.402368 0.402821 2.508667 -3.277678 0.211548 0.562089 0.460378 2.594290 -0.747249 4.506206 -1.262984 4.392644 -1.741334 1.115202 0.623036 0.206594 -7.599856 1.431285 1.048511 -4.814629 1.362143 3.878302 3.414658 -2.069956 -3.639591 1.957444 3.519634 1.963877 3.866021 1.555685 2.365223 -2.773571 4.892370 0.281775 -2.840264 0.439907 -1.741046 1.405606 -1.606740 1.224445 0.773217 3.544657 5.602463 2.237585 2.420642 -5.354664 3.337888 -0.809180 1.079912 0.633175 3.793040 9.074518 -4.795644 1.916307 -1.270302 6.087217 -3.849106 2.050277 2.289190 -2.457608 3.721511 2.596493 -0.542780 2.037442 2.238829 -0.715926 -2.854442 -2.144247 5.449859 -1.048294 -3.187952 0.662946 -1.349726 -1.163612 -1.375690 1.151594 -1.660675 -3.233099 -4.786286 1.192155 -1.995329 3.027026 0.025130 -1.752752 -0.558627 -0.289785 4.250202 2.631529 2.296838 -0.043963 0.973143 0.917534 2.658954 -1.093009 4.008523 -1.428756 1.964070 -3.184173 -2.600336 2.539589 3.999789 0.603905 1.131232 -2.887880 3.143053 2.090916 -1.776432 -1.742204 -0.887959 -2.831165 -2.368954 2.991323 -3.094315 0.352944 0.800338 -6.653669 -2.759057 -0.018563 1.749988 3.482812 -6.596072 0.844586 1.240863 -4.537376 0.287354 2.331071 -0.600259 -2.487421 -3.646202 1.995445 -6.613144 -0.875371 -1.307886 -0.919462 -0.375837 2.686254 -5.240791 0.866552 -4.497067 5.759948 1.532699 -1.141987 -0.178581 3.082938 2.406462 -4.043695 -0.902034 -1.109499 -0.900850 4.059370 0.653992 3.488118 0.939060 1.229085 0.676101 2.651148 -3.499397 -0.486477 -0.222083 -2.825670 0.228404 -5.004658 -4.031555 -0.869984 1.636440 0.886342 3.631404 1.194391 1.613365 4.145953 -2.243618 -4.916586 0.741150 -4.967414 3.154710 -0.027142 -2.104280 4.059474 3.815543 -2.196822 -1.990448 -1.525569 3.185507 4.628645 1.107059 -3.509179 -1.654621 1.350376 -2.646517 4.414373 3.239654 3.443843 -1.029999 -2.397435 0.363467 -5.975157 1.651903 -2.038193 -1.132379 -2.567671 -1.159898 4.112876 5.252886 -1.028014 -0.498930 -4.560098 -3.682427 3.699763 6.790717 -2.535460 -0.669510 -1.370136 -3.422354 -1.292331 -2.624833 -0.468814 -0.028959 1.105455 1.573634 -0.816634 -3.281901 1.888886 -1.705842 5.759514 2.213292 -2.511400 -6.224609 -2.204447 -0.398994 -2.025086 -2.155183 3.865184 -3.224298 -4.244600 -5.933566 -0.658214 0.573069 2.211719 2.170533 -4.528209 -7.255326 -0.939622 -2.454563 -4.000052 1.288987 -0.772130 -1.905872 1.947483 1.386876 0.176319 -0.394174 -0.517750 -0.490700 -5.366584 -1.972437 -4.733618 -1.840721 0.522373 -4.755046 1.616448 4.209881 -1.583761 3.649376 0.476735 -2.391180 5.378136 -3.655147 -0.906598 -0.777030 -3.140458 -3.077039 -2.658325 -2.515447 0.063140 2.758679 -0.370794 -2.357285 -1.464998 1.057697 -0.028821 -0.762137 1.792106 -0.744368 2.380478 -3.171926 -2.828764 -2.838013 2.169944 -1.498853 1.289088 4.191927 -3.731111 -0.037726 -0.418923 3.890179 -0.352094 -0.153550 2.885149 0.277963 0.358677 -2.789078 -0.098742 4.417124 0.787009 -1.757407 1.794017 1.899391 3.688266 2.490218 -3.231629 2.817054 5.056359 1.183806 -1.805861 1.510461 6.400756 -2.727994 2.897629 -2.731462 -7.016509 1.830112 0.743137 -0.141743 -2.367958 -3.194309 0.384103 2.748621 3.982222 0.213169 -1.506046 -0.331396 2.404763 -1.366739 3.226337 5.059169 4.594302 -3.009337 -1.584598 1.170713 -5.236168 -2.752158 -0.266885 -2.490384 3.752597 1.259816 -1.140979 -0.623240 4.643669 2.989506 2.078829 4.690977 -8.319342 1.586551 -1.765332 -0.075320 -3.520407 -2.417093 -1.259212 1.969344 -8.411329 -2.122395 -4.354427 -1.546523 -1.697245 1.223603 -6.145863 -1.722452 1.441917 0.253685 4.765540 1.291445 -0.737201 -4.976334 3.788554 1.753207 2.844785 -2.854071 -3.971707 -2.357244 0.250955 -1.010649 -6.917706 2.392864 -0.207732 2.743377 -0.256685 -2.507443 -4.531211 -3.997108 3.504670 1.628297 1.455265 -2.953687 1.466244 -1.243831 -4.477504 -7.355061 -1.695736 3.355971 0.028652 0.755025 -0.905205 5.112744 3.673645 -0.440983 1.694901 -1.024928 -0.632044 -3.372784 -0.578804 1.438844 -1.571165 -3.595189 0.010878 5.262647 -3.832066 -0.622112 -0.409173 -0.352791 -3.129233 -2.839444 -0.055217 9.905884 0.459656 3.386867 3.847698 1.069244 -2.163172 -2.708470 -0.642371 1.243986 6.277721 -4.746359 -0.069030 0.695815 2.613316 -6.707122 1.714726 6.467114 -2.231172 1.601817 4.339772 -1.414284 6.117849 7.191814 -2.209685 1.442741 2.027676 -3.848087 3.847552 2.608588 -3.311006 0.648361 -1.096564 4.082897 5.458753 -0.747193 -2.803536 3.769232 3.078082 1.715603 1.284962 1.419110 4.344212 -1.202145 -0.995567 1.526529 -4.000703 -3.441686 4.807482 3.841008 3.395668 3.871017 1.622902 -3.294911 -0.272389 3.754058 4.458420 1.232211 -0.257688 1.285914 1.575310 -1.872926 2.607370 -0.836367 -0.258772 3.133595 3.106441 2.758051 2.520170 -0.177152 5.007336 1.563753 6.282733 -2.372482 -3.740726 2.445280 1.586488 -1.919052 3.492994 -3.940229 -2.418537 3.698272 -0.025918 -0.526878 0.011367 3.246068 5.443812 -0.220324 2.648345 -0.089203 2.701933 -3.258481 -5.326075 -1.820168 -4.167643 6.667075 2.689527 0.576225 1.836095 2.661030 -0.608019 1.205828 2.942072 -0.497169 -2.171651 1.551222 -1.082820 1.480762 -1.562200 -1.262374 -3.257666 2.813494 -2.930478 -2.420755 5.981709 -5.262688 6.317646 -2.283512 3.594429 5.386187 2.105872 -0.729368 -0.190943 0.232534 -5.707972 -2.277981 -2.411733 5.625502 -2.787117 1.205372 -0.635063 5.014016 3.678641 5.017928 1.769318 2.150090 -2.505221 2.854403 -0.889105 1.092247 -1.625995 -3.299535 0.543379 0.513408 2.775545 -0.505805 -2.305922 1.224578 -3.888262 1.619512 0.779698 -1.922760 -1.131303 -0.212594 2.533351 4.317580 3.566505 -1.907880 1.896485 4.380989 -2.062540 0.463896 -4.768428 1.410801 -1.459971 -1.193872 -0.982418 -2.924274 0.566873 5.382534 1.789181 -3.434284 3.268714 -4.744129 0.861308 2.519017 -1.031735 -0.555066 -4.531562 -0.571680 4.140074 -4.803847 0.851483 3.733489 1.021797 -1.435786 -0.740471 1.751185 -4.186657 -6.108810 -0.223492 -0.338259 -2.886951 -2.047888 -1.154878 -0.721381 1.913897 -1.362736 -1.200606 -3.147878 -4.953512 0.671377 -5.227837 -2.065879 3.427992 3.112885 7.981913 -0.457491 -2.120086 -1.658036 2.993972 0.659383 -0.298669 -4.702839 -2.751799 -1.666114 2.927381 -6.337262 -0.218809 -2.218364 3.643336 0.376989 -2.264112 -1.614796 -1.324911 3.707399 -0.438654 -0.284357 2.728130 -4.832619 -3.868753 1.391722 -2.386957 5.000655 1.804789 -0.216962 -1.760209 1.591300 -2.265368 -3.015670 -0.401276 -0.554721 0.017401 3.001063 0.187737 0.274070 0.308998 -2.627497 2.484775 1.618329 3.727108 -4.304897 -5.215018 -4.129124 0.861706 -0.697979 1.316139 -0.663310 0.777760 1.548835 6.029262 -3.584388 4.372677 3.605795 2.992474 0.151278 3.013182 -5.203225 -4.530883 0.939825 2.135343 1.435693 1.880888 0.287907 -1.477967 -3.649138 -1.485961 2.605543 1.503039 -0.853628 3.106976 -1.563931 -1.139993 -4.129762 3.306880 -3.233266 2.636695 -2.307490 -1.114304 -3.046690 -5.423842 2.455518 3.583465 2.979038 0.632299 2.088328 -0.296536 -0.665478 -1.669276 0.085258 -2.716891 -1.814718 -0.936436 1.983419 -1.030456 -3.478469 2.349530 -0.791862 1.798270 -3.701469 2.360030 -0.644541 -5.645444 -2.213413 5.411840 1.423146 3.709662 1.420792 -0.574334 5.032014 -1.665384 0.190011 -5.400647 -1.584520 -1.486568 -1.347213 3.843961 -1.872636 4.344474 -1.207334 1.889055 3.671092 0.074242 2.424191 -0.464716 0.036801 -2.656913 -7.283995 -1.377003 3.301961 -0.307926 2.645149 0.867641 1.685928 1.577813 -1.809901 0.160828 2.226843 -0.741209 7.269088 3.913525 1.201409 -6.082590 0.339496 -3.345204 -3.986192 -3.850411 -0.470462 -7.202080 -2.586156 0.586724 -2.723714 2.697042 -2.807352 0.776865 -1.564831 1.405120 3.012826 -5.520539 0.826087 0.652009 -2.076650 -4.601735 -3.683610 -0.762358 4.024334 0.539362 -1.885017 -0.494196 2.588323 -1.065780 -1.712315 3.262570 0.030784 2.956552 -4.900611 -1.185182 -3.840550 -3.821843 -4.054574 -1.199860 4.289479 -1.268767 2.449352 -0.091777 5.164366 0.994567 0.284193 -2.503568 0.601537 0.398536 -2.768725 -2.374304 0.544846 0.488306 2.803132 -5.234542 1.175554 3.577771 2.478442 -3.452292 2.614078 7.480471 -4.298732 1.801149 -1.232372 1.389036 -1.849078 -1.695722 -4.118700 -0.588508 2.137774 -3.894903 2.203298 4.590229 1.451223 -3.693032 -2.626480 0.073886 1.709882 0.663152 0.443116 -1.241609 -0.072242 -0.014469 -3.310377 -3.385563 2.000021 -1.057468 1.902951 -2.992306 -4.474222 4.017107 -0.007033 1.779824 -3.592862 0.503805 -1.885469 0.835167 2.447358 4.011369 -1.407852 2.128004 -0.255447 1.999081 -1.535007 -1.809412 -4.153095 -0.737345 -3.198867 2.172132 -3.345284 -2.481790 0.936814 0.667285 2.794309 -0.430105 -5.050577 -1.304610 -1.204355 5.664110 1.337119 1.555089 2.357644 2.816111 -2.942012 -0.629391 3.745828 -2.834542 3.032934 0.421279 -1.631598 4.039351 0.522882 4.942211 1.370181 -3.423300 0.087843 5.213170 -4.172280 1.286083 -1.171886 1.812485 1.724610 -3.600797 -0.388429 -0.294379 2.186347 1.254283 3.880914 3.643563 -1.417411 1.881918 1.192709 5.450495 -1.205592 -0.646506 -4.995797 -1.134368 3.669178 -3.084052 0.050953 -1.777519 2.010975 4.206517 -4.367929 6.562514 -2.209262 3.620405 -2.217703 0.949756 -7.047705 1.858098 1.136140 2.878336 0.399323 -1.409915 2.355688 1.781823 -1.616946 0.558319 3.118280 0.147851 5.689424 -5.183322 -1.326342 1.445778 -4.601889 -1.905783 -1.554017 -0.923282 -3.019925 -1.854737 -4.210704 4.078903 -2.049563 3.307667 3.181827 -1.864329 -1.028894 4.156591 -2.458095 2.413515 4.675355 -3.666544 0.329830 -4.415663 -1.568935 2.874238 -0.749800 -0.621285 0.537412 -1.183912 -6.159839 -7.910369 2.733065 -1.442154 1.228426 -3.254467 1.299016 -0.868289 1.419069 2.639814 -1.133571 -0.484867 -2.490967 0.769370 0.051779 2.093446 3.936189 -1.557229 2.032504 -3.165094 2.252729 0.936336 -2.356922 0.626150 0.938789 3.644785 -4.768518 1.450356 0.858517 0.386364 0.055020 -2.450986 -1.651207 1.244181 0.761853 0.068086 2.835318 -2.392343 -1.563717 -3.799339 1.430131 0.317677 2.518799 4.976181 4.897966 -7.786181 1.737526 -4.368019 2.522065 -1.602736 -1.240834 2.553708 3.170915 3.029144 -5.587444 -4.432982 -1.711777 2.873234 3.977380 -1.593983 0.209998 -6.177424 0.190450 -1.364043 -0.077623 -0.515313 3.003583 -1.435100 2.093204 4.305719 -2.409553 0.266802 0.081950 0.028913 -2.598109 -4.472216 1.299757 3.291454 5.030686 1.720195 -0.085433 3.348956 0.082932 4.283117 2.553695 -0.475767 -2.280423 -3.706257 1.910892 3.157957 1.994891 -0.647207 -1.799947 -0.612498 -0.778680 -1.611927 -2.147949 -1.696181 6.740763 -1.733531 -0.812460 2.367130 -0.712146 1.422736 -1.826921 -1.522095 6.537622 0.554599 -4.528164 -0.629353 -0.407299 -1.122956 -4.044416 -0.844871 -0.468582 -4.919022 6.354595 -0.207382 5.051545 -0.605943 0.100973 2.684351 -0.727143 -3.687044 1.613672 -1.105284 1.529590 -0.932959 -0.476006 -2.728282 2.908955 1.869843 -3.938532 -2.713613 3.195171 -2.653768 0.025754 -7.646160 -3.558984 -0.403514 -0.859798 -1.188256 -0.606468 -2.124994 -1.407097 -1.213293 3.296908 2.134668 -3.206078 -1.904397 -1.112872 -3.856088 -1.528969 -4.520172 -3.882463 -2.824241 0.474201 -4.896487 1.157113 -1.619540 6.156624 4.928505 4.182176 3.981321 -3.880206 -0.559901 -4.163447 0.387813 -0.924167 -0.637945 2.847543 3.244746 -1.902376 -1.667158 -1.739893 2.685947 -6.221320 7.607996 -1.205951 -2.789168 3.446454 2.545818 1.355930 0.723381 0.913430 -1.818142 -8.675185 -2.378729 -0.461997 -1.256189 1.388371 4.507265 7.320400 1.710218 -0.700592 1.587875 0.456003 -0.713024 -6.286036 -2.333748 0.925767 0.732941 -2.142961 3.630250 3.405837 0.468447 -1.945805 0.869443 2.859269 -0.772691 -0.787157 2.114942 -0.398764 -0.165766 4.845653 1.091325 3.535097 0.758391 0.943698 3.356200 -0.010564 -0.349749 -2.918845 0.384460 0.091586 -0.016293 -2.513378 -1.658440 6.623774 0.076518 -2.350572 1.090385 1.188979 -4.418052 -1.337353 -1.420794 8.789746 2.257304 2.527499 -4.469146 2.303652 1.220114 -0.521688 1.390325 -6.221516 1.276075 1.353126 0.864847 7.815700 -1.017338 2.529759 -2.335821 -1.701124 -4.895551 -2.244204 2.555733 1.933602 0.051174 -1.355757 2.441715 1.675962 0.538466 4.889300 1.501915 -3.087996 0.813021 -1.921880 -2.317849 0.002752 -0.307750 -0.038027 3.331871 0.742331 -4.244804 -0.677801 -3.589414 -1.163858 1.084945 5.986239 -7.261300 3.080972 -2.102604 -2.323844 2.339515 1.174565 -1.519738 -2.903526 3.692223 -0.025645 2.252084 -1.064691 -0.695934 -2.702073 0.399167 4.923726 0.947416 1.205185 1.727457 -3.052477 -5.118983 0.283583 -0.940043 1.175673 -1.096202 -2.416648 1.483238 1.276764 5.402324 -1.284188 -0.575634 0.137971 0.327760 2.300712 1.283135 3.622185 -4.254182 -5.153493 5.972887 1.386751 2.959893 2.756047 -1.656405 2.127440 -0.734323 -4.120851 -1.736649 -1.570081 3.695487 -1.724608 -0.532528 -4.904942 -1.185500 0.816663 -0.363497 -0.485727 0.253453 -1.307151 -3.273476 -0.299542 1.432269 0.551217 -4.505663 -5.477723 1.099002 0.413882 2.044899 6.520269 -1.615920 2.475467 -2.454287 5.105017 0.285529 -7.998098 -1.235947 -3.289568 -0.214058 -3.337018 -2.619710 8.200787 1.979515 -3.026050 -1.959272 -1.320739 -2.048821 -0.259416 4.162134 -4.061598 -1.891685 -3.332829 -0.550758 -4.106286 -1.680007 -6.746877 0.023374 0.445257 2.746782 4.812585 -0.881378 -0.079624 -2.515222 2.520093 3.283419 2.055805 -0.586071 -1.999472 4.122615 -4.911088 2.822817 -6.132387 0.122620 0.228533 2.826944 2.309577 -5.450585 -1.228914 -3.929011 3.745360 -5.857582 2.891900 -2.231949 1.498208 -6.138047 4.881858 0.721898 -2.544081 -1.684008 -1.159112 -0.808327 1.338105 0.698608 -4.809077 6.936434 -1.971353 0.825388 -4.458686 3.950133 5.165661 -1.226312 -3.170263 -4.597088 -0.924969 -4.507797 -2.163545 0.167970 3.184175 3.459342 1.027407 3.935065 3.084857 4.566040 0.488908 -4.785901 -3.686524 -0.657149 1.135895 0.133660 -2.134569 -0.767619 0.175957 -2.529751 -0.235047 -3.362810 -0.354335 4.906510 4.161377 -1.298197 4.857177 -3.381860 -0.604798 1.269969 2.616645 -0.745601 0.152104 0.975963 0.948253 0.650912 -0.123127 2.205125 -3.229820 0.284358 2.803589 -3.002809 0.068164 0.120312 -2.481880 0.477212 0.414635 5.213330 1.813512 -0.454431 0.090936 -2.298359 0.148900 -0.817226 -1.109318 -0.769462 -5.008354 1.450447 0.958169 2.933414 2.221891 2.383095 -2.478553 0.930281 -2.159492 2.361173 1.323306 1.101694 -3.466775 3.118776 -2.479446 7.577070 0.519685 -2.034743 1.723885 -3.249429 7.262132 -0.085971 -2.609378 5.907820 -2.083890 -1.626882 3.576411 0.043084 -0.393754 0.224768 5.556508 -5.651460 -1.478743 3.690034 4.972041 -1.234296 -2.945192 -1.498239 1.455706 0.612975 4.616040 -1.272715 0.088977 1.103248 0.904460 2.628787 -6.018413 2.888642 -2.651373 0.682270 0.464855 -2.008087 -3.952559 -0.483448 4.536545 0.499388 0.855366 -1.148158 -5.287095 0.772691 -0.346500 1.241815 0.954393 -3.304465 -1.699423 -1.055031 -1.521904 0.247508 2.462655 -5.328266 4.251417 -1.170669 3.940527 -2.280415 -1.877149 6.079434 2.266815 -5.690925 -1.794912 -3.653792 3.906008 -2.747566 0.064983 0.634993 1.565629 -0.980917 -6.191585 2.312904 1.047019 -2.008149 6.116929 3.128623 -4.345323 2.155929 -1.148433 5.536766 -3.806685 -2.865721 0.721552 -1.482494 1.020859 0.220516 2.814042 2.499709 0.218078 -4.683281 -1.224952 -1.564437 0.238400 -2.831853 -1.931160 -3.314561 -2.218298 5.558764 1.206945 3.554266 -1.506214 -0.262594 2.372272 -1.352582 5.606642 1.587366 -0.569051 0.346726 0.809909 -4.962626 -2.189610 -2.394578 2.625639 -0.191637 0.514716 3.761620 -1.530994 -1.202428 -1.539036 -1.858391 0.445487 5.421344 4.614956 -0.511582 0.780088 -1.656133 0.516124 1.729875 -4.525072 -3.436593 -1.970944 3.785938 -5.003731 1.034736 -1.625208 1.465166 1.246748 0.911552 3.372129 5.487470 -0.274333 -0.119861 0.128507 2.194311 -6.492992 -0.436911 -5.579146 0.617933 0.449600 -2.216024 1.144707 -6.192444 0.390704 7.290823 -2.260389 0.719231 -3.564893 -2.323320 0.142500 -0.771486 -1.586524 1.493178 -0.436123 5.143555 -3.202892 -0.102684 -0.381612 4.345526 0.423378 3.025451 0.570692 -4.086647 7.121162 2.317636 -1.241879 -0.811058 0.074426 -2.477989 -2.283500 0.142625 2.090738 -3.046304 -4.392941 -0.534089 4.480268 5.509101 -0.832179 2.742008 0.717894 0.894925 -0.034266 -3.470102 -0.685647 -0.512299 -2.743009 -2.088817 -1.366925 1.373679 3.463315 5.384710 -0.337671 0.657560 -1.523837 3.402779 -0.826127 -3.831614 -2.917617 0.632858 0.608572 -4.838454 1.342480 1.134510 -4.005664 -3.172755 -0.068438 -0.414470 -3.141054 2.648853 -2.877169 3.234026 -4.842513 -1.468747 -1.544048 0.891120 2.818926 -0.242672 -1.932564 -1.029305 -3.265946 -3.591588 -1.248748 0.925462 -1.737872 4.438925 -5.923453 0.714980 -4.818716 0.297918 -0.792857 -0.900775 4.777705 -0.629293 2.837882 2.207344 -3.461892 -5.989594 4.857380 -2.060965 -2.049731 4.049346 -1.307929 -0.635443 -3.011436 2.061809 -1.829783 3.492698 2.766479 0.200428 3.525280 2.988600 2.093578 1.166827 -1.706087 0.980776 -1.826779 0.854663 5.471765 1.946394 -3.025325 -1.704905 -1.272829 3.159201 -6.034161 -2.572775 -1.653052 1.691260 -1.284575 -1.112697 -3.258645 2.581334 7.058994 0.135485 -1.962884 6.866949 0.633835 -5.069941 3.152192 -3.127941 4.826771 1.465986 -3.525295 5.363034 -2.793026 -0.067860 1.807922 3.862755 0.359483 3.629620 -1.527984 -3.603137 -2.937764 -0.852446 0.892013 0.498057 1.153208 -5.636017 4.012001 0.313642 -0.610894 -6.039683 0.503889 0.518406 2.857544 -0.189044 5.229090 2.418825 2.330590 1.965627 -1.273368 1.296846 -1.884001 0.828145 3.056088 -2.271581 1.146782 1.308043 3.624233 0.109595 0.270502 5.482275 2.061313 -5.721113 0.618739 -2.177325 0.160573 -0.303348 -0.161164 0.445271 -1.301467 -0.727911 1.564502 0.975288 0.534674 -4.328726 -0.442039 4.780327 -1.620746 3.613336 3.282164 0.752830 1.063249 -4.073326 -1.236335 0.862763 0.204569 -2.595546 -3.810603 -4.864918 -1.421662 -4.399338 -4.394420 -1.121978 4.553560 -3.492466 0.453552 -6.800444 -0.580285 3.701999 1.916590 1.418030 -0.253829 3.674866 0.433283 2.377334 3.425677 -5.169418 -1.258222 -3.374879 -3.044793 -5.731784 2.670311 1.848812 -0.617571 -2.019698 4.060248 0.660319 4.989423 1.015878 3.432533 -4.234066 -0.453931 1.697587 0.409865 -0.115912 0.100119 -1.690556 1.587037 3.812893 2.480581 1.986203 4.686695 1.714472 -3.443847 -0.275797 -3.437714 -1.002042 -3.838802 -0.479411 -2.548226 3.659014 -4.468978 -3.496579 2.303338 1.369892 3.288585 -2.245706 -3.487326 0.141384 2.391948 0.753455 -2.380414 -1.286448 7.213602 3.417548 2.625216 4.899331 -0.650997 -0.316268 -0.578857 -1.292536 3.306314 0.165588 0.578497 1.265324 -3.411950 2.161943 1.142684 5.452970 -0.700424 -4.641463 2.105338 -3.512761 -3.665018 -1.335970 3.858166 0.762151 1.679602 2.294736 7.322140 -1.730417 0.830890 -2.149226 0.579386 -2.380423 5.494068 -3.166295 0.630214 1.283847 -4.067704 4.110931 2.834970 -5.424827 -3.949350 0.090257 -3.029577 -0.518013 -3.188038 -4.979846 4.309542 -3.950302 -0.839836 -0.641511 -2.913816 -0.021726 -0.082204 2.292716 -0.708081 0.081708 0.173770 2.684343 -3.264567 2.173274 1.670808 -1.197175 -0.727499 -2.993264 -0.024587 2.055649 1.341834 -4.069509 -2.529066 0.844958 0.154689 -5.626873 2.865507 2.421971 -2.834269 0.728810 -4.357844 -6.319104 1.936780 3.179833 4.452759 -0.564548 -3.967865 -2.477069 -0.018967 -1.899100 -5.542051 3.290139 0.827067 1.584522 -3.279793 0.004324 -3.124926 -0.806768 1.062423 5.611164 -2.468394 4.108168 1.401187 3.406085 -0.419769 -3.420804 -0.455978 1.982813 1.432505 8.583347 2.436213 2.863476 3.145119 2.497393 1.147511 2.767681 -0.609788 -0.317031 -4.710403 -1.179428 -3.908430 1.402349 -1.765645 1.463587 1.977559 -0.246742 5.294830 6.642862 -2.348854 -4.219088 -0.449258 1.576903 -4.724635 1.001014 -1.478312 4.703289 1.876286 -0.764619 -0.418718 -0.238404 -0.556146 1.415081 1.081778 -1.394659 -5.402368 1.116989 0.425464 -0.329243 -0.415450 -4.894476 1.847020 4.117199 0.370680 2.682926 0.278460 3.315123 0.212803 0.004120 -3.013212 0.030914 -2.696770 0.151381 -4.894876 -1.200941 -3.333650 2.289636 4.160917 -1.661384 -3.120457 -4.430353 -3.678574 -4.191389 5.711986 1.488595 -5.454366 -7.723219 -0.434666 0.991127 -1.100355 3.440093 -4.139027 -4.098096 2.553366 3.685617 -1.064620 3.978351 3.802784 1.265573 1.715361 -1.377758 0.690733 -0.162588 -0.627247 -3.231580 -2.130734 6.135138 -2.954632 2.750063 -0.133380 -2.324154 -1.935000 -4.453508 0.758957 -0.010625 -2.379128 -1.610438 1.974489 -0.917484 -1.059788 -1.114666 6.430526 2.571971 -2.699425 0.948547 0.977553 -4.796864 -2.150653 0.157464 -2.821524 -1.900753 3.980865 3.280819 -2.179304 -1.343206 -6.260387 4.602213 2.687353 1.528957 1.779266 2.853953 -7.129824 -0.939199 3.120738 -1.684197 -1.557366 -2.963434 -3.988836 -2.988542 -0.489096 -4.259394 -1.227393 -0.577871 2.500648 2.368511 -0.396854 7.411185 5.850464 -2.940890 2.868576 -0.195177 -3.264745 -3.272873 4.449899 0.501293 -1.634779 2.135399 -0.466040 -2.857500 -0.267385 -0.992380 -3.873490 -0.319051 5.012816 -3.528887 0.212453 2.992310 -2.924723 4.996247 1.226531 -1.623903 -5.992425 -1.857903 -2.354703 2.231293 -3.766683 -5.264818 1.911519 6.859636 -2.566625 0.380462 0.745448 0.672335 -4.786485 -1.850755 0.414252 0.047402 -2.346019 3.429674 -1.905592 1.247858 3.446856 4.853555 1.238494 -3.618078 -2.482861 -2.368792 2.293949 3.209583 5.073566 2.635933 1.159179 -0.830498 -1.198645 0.246889 -3.680789 -0.773696 -2.762585 3.598372 0.687036 -4.329943 -3.383302 -0.378699 -0.989195 1.027906 0.908264 -1.227864 2.499006 2.264851 -3.701526 -5.900875 5.112743 -1.690037 -4.118167 -2.845334 5.755140 -3.091953 2.543275 -3.136809 0.069404 0.223787 4.866968 -1.625793 1.497396 6.988612 -2.033543 -4.002201 -0.870935 -3.846602 -4.023001 1.442724 -1.603979 -0.733954 0.397401 0.581206 -4.846916 8.555257 -6.491052 -0.206270 2.742281 2.227835 -3.465770 -2.555410 -2.069491 -4.853321 0.878020 -0.170876 -2.592111 1.185866 -0.966857 4.265283 -1.982325 -1.786666 -1.665940 -1.429923 0.952571 0.335443 -7.269710 -0.450883 4.838775 0.670743 0.318727 3.315317 -1.908254 -1.319071 1.076417 2.309962 1.315108 -1.161254 4.731083 1.647295 -1.075670 3.909717 -2.347385 -2.135918 3.265406 -2.686344 -2.313285 -1.544652 1.263182 3.189087 0.100715 -2.223683 -1.291734 -5.922939 7.218014 -0.291908 2.114620 0.007907 1.211325 -1.319752 -1.561749 5.465064 0.927195 1.217142 1.733619 -2.844260 2.859613 4.208100 2.538440 -0.576964 0.528516 -1.553491 1.223296 -7.289917 1.034938 0.508587 0.506847 0.918991 4.073063 -1.256498 -5.917230 0.177345 -3.520456 -1.025291 -1.093081 -0.434966 -2.153814 -3.548724 2.130617 0.944045 -2.144561 0.889481 6.292377 2.793592 -2.499999 0.851151 2.983455 -3.263295 -0.602593 -3.301412 -7.647874 1.651675 -1.639803 0.717797 0.852874 -1.034922 -2.932175 5.446975 -1.375822 3.301278 0.308403 3.184478 -4.693064 -1.050256 1.123310 -2.569416 -2.344814 3.206901 3.011040 0.253558 -4.250268 1.731152 3.443569 -0.522105 -3.304134 2.831526 2.741215 4.807465 1.287384 3.744534 0.907413 0.935794 -2.156159 0.252027 -0.172796 -2.903784 2.960553 0.038802 -7.176977 -0.402196 -0.570537 -3.778397 6.831684 0.586481 1.194224 2.141186 -0.343509 -0.893817 -1.342972 0.767394 -2.388453 1.161068 -1.261168 1.901345 -3.448302 2.231124 1.509938 -1.491049 4.106259 3.524593 3.184754 -4.778782 1.647490 3.342461 2.059876 -1.186685 -3.070602 -1.694099 -1.313230 -1.655429 0.363889 2.864167 -2.172173 -3.400526 2.820135 -0.694826 1.329486 0.798786 0.937244 1.345225 4.142306 0.696511 -7.203312 -0.565433 1.504750 0.449791 0.147971 -4.267710 -2.501304 -1.679082 10.680111 4.903928 4.423591 2.682754 1.131898 1.040445 -2.985985 -1.360444 -4.612764 4.253901 -6.335838 -1.670058 1.683813 -1.334019 1.088869 -1.796444 1.425717 -1.202520 -0.530780 -0.761401 -3.301063 -2.748292 0.067597 4.978075 -1.148777 -0.205179 -4.543853 -0.912185 8.675573 3.328349 2.670936 0.944572 -0.281093 2.328830 8.480214 2.904694 -0.204366 -1.297653 2.382433 4.182031 -2.659576 -0.093637 -2.383823 1.214704 0.983337 3.248770 -2.415996 8.832272 -0.113683 2.669694 -0.131137 -0.083866 -0.370483 1.884346 1.327425 -3.944757 -2.259912 -1.660314 3.500952 -0.325381 2.364964 0.051839 0.998944 3.728553 0.123952 -2.765224 2.793896 -2.776660 2.783780 4.902927 4.169318 -1.155710 2.556030 -0.311293 -3.308160 -3.192278 -5.797466 -4.860556 1.204189 3.594671 0.668138 1.705369 -5.199518 -1.335253 -1.858861 2.226576 -4.172426 -2.762403 3.936257 1.140880 -1.515141 1.162300 -1.646455 -1.537337 3.754514 -2.422663 -1.827920 1.621401 -6.255474 -0.203182 2.038576 -1.363156 -3.556724 3.009193 5.102713 -3.593876 2.487922 -3.187377 -2.591225 2.621947 4.033221 0.420469 -6.420734 -1.538953 1.016712 -0.129977 -3.710815 -0.409191 0.403441 -1.618377 3.890297 0.186342 0.118317 0.303171 -2.188275 0.533473 0.132735 -0.197227 -0.279096 2.717559 -0.190057 0.024780 2.615171 1.863612 -3.695953 -0.350362 4.709792 -1.646498 -3.809288 -2.809403 -2.256554 0.288217 -0.328372 7.128969 1.209552 -0.306220 0.493106 2.792136 -3.835267 1.126826 5.609401 -0.460647 -4.457333 2.278668 -0.880226 1.045193 -2.298083 0.537813 0.884953 1.334427 -3.912610 -3.204527 -2.700449 -0.300570 1.728701 -1.247977 2.310769 2.736097 0.127984 -0.060432 2.150332 -1.326775 -1.281409 -0.948650 4.310833 -1.588191 -1.003668 -0.575115 -0.432985 1.924721 1.158641 -1.593885 4.239527 -1.165341 4.175509 -4.394553 -6.093264 -2.638260 -0.165805 1.605831 -1.372083 2.506719 0.437126 -4.003228 4.037187 -0.256319 4.232790 0.926473 -0.956397 2.435367 -2.907969 2.193100 -4.241627 1.520726 1.109673 -3.736635 2.476663 -0.400773 -5.430501 0.399510 -2.439482 -2.487893 0.565665 -1.880290 1.150620 3.871992 0.669179 -7.083473 -0.266542 -3.291196 1.470369 0.530395 -1.984322 4.389587 4.389701 -1.374669 1.193088 0.814594 -5.037997 -1.864619 0.648495 2.626630 4.857338 -0.468900 -4.632408 1.934489 -1.642639 2.345423 1.137107 -3.782127 0.526959 -1.412560 -4.047765 3.498119 4.816096 -1.344233 -2.612211 1.474005 -1.516478 0.561453 -0.461512 -5.809153 3.510053 -1.873163 0.988392 -1.835682 -1.270301 1.365861 -1.584380 1.120852 3.299119 3.040428 2.662146 2.639399 -0.224862 2.272110 1.465544 8.261830 -1.092259 2.374736 -2.472464 -1.781838 -4.658181 -4.760781 5.596540 -3.361342 0.862345 1.729757 -0.266653 -0.354672 1.790814 -1.792403 0.853692 1.162413 -1.472914 1.686262 -1.060295 4.066633 -2.013532 6.207505 -2.550949 -1.598491 -1.161637 -3.849325 -6.244725 4.576736 -4.170729 1.954042 -2.520851 -3.983616 -0.648265 -3.642218 -1.305645 -1.595607 1.729287 -5.946760 -1.502741 1.245557 2.880406 1.834805 -3.459760 0.528162 0.726604 -4.866668 -2.303825 -7.510493 -6.338584 2.256671 -3.621093 4.675558 -0.634767 0.423622 3.150593 -2.723273 -3.033418 6.973444 0.091191 -0.030726 -1.669783 -3.417922 -3.093900 1.688177 0.088057 2.283268 2.847651 -1.818593 1.738237 -1.439209 0.401130 -0.656929 -3.296307 0.067286 -2.128508 -1.599749 0.948103 -1.968300 -1.763596 3.779695 5.588835 1.972298 2.193331 7.369643 3.421610 0.055021 -0.232431 -0.505105 -0.780839 4.061476 0.434197 0.740283 -1.030567 -5.451189 0.400858 -0.568183 3.820043 -2.058497 -3.048394 3.601574 0.504562 -0.180508 1.809804 1.562219 1.534543 -8.378695 6.129657 -0.773151 -1.006775 4.173681 -1.257518 -0.368882 0.073667 2.435693 -1.445323 -3.544148 -2.801771 -4.789140 1.128285 -4.764485 1.160154 3.738870 6.164498 2.978939 -1.950948 -3.636811 -0.893204 3.147596 1.076101 -4.185552 -2.120549 -0.572469 1.996195 3.191691 -0.581589 -2.599144 -6.272980 -4.822618 2.759940 -1.616036 0.838484 -1.005856 0.555962 3.558167 -2.520725 4.866614 -6.810527 2.347361 -3.370778 -2.730360 -5.068570 0.843037 0.374652 7.703441 -3.404852 0.551831 -6.380336 -0.457193 -1.845540 -0.326784 -0.542624 -2.216457 2.023534 -3.261289 2.277789 -1.634791 -1.719824 0.987323 -4.136582 1.870937 3.868406 -2.068558 -1.694577 -0.992679 -1.055152 3.600459 -0.102830 2.368177 0.008770 -1.890039 0.857507 -2.482758 2.316521 -1.182402 -3.216756 5.400349 -0.489241 2.099992 1.601829 -1.132934 1.470627 -3.977558 4.059124 -2.345037 0.832683 0.699916 0.894375 0.812261 0.597946 -2.089954 3.135664 -5.134143 0.735316 -2.075477 3.315140 -0.022551 0.273766 3.165192 5.283770 1.850312 -3.708879 -0.175237 -0.522971 -1.042886 -4.045834 -0.741662 2.271528 4.735159 -1.012989 2.164448 -2.888236 0.142517 -5.689191 -0.313072 -0.791875 -0.571523 0.081328 5.716737 -2.536286 -1.858397 3.581725 2.160072 1.286500 1.162587 4.028241 -1.410196 1.757744 3.477784 -2.790304 0.277463 5.400213 -3.264389 0.168735 0.494097 2.746266 -0.577955 -0.317369 -5.266940 -1.454626 1.236268 2.768850 2.105656 2.422053 -2.000675 -0.981699 -1.062171 0.556265 -5.525445 -1.937455 3.941886 3.534788 0.747319 1.191941 4.019511 -1.925365 3.220917 1.939118 -3.680079 -0.019403 2.798131 -0.495548 -0.472339 -0.086428 -5.111428 -3.958113 -0.938660 -1.528912 3.583656 -1.758291 -0.525805 -2.164988 0.932971 -0.114231 -0.826627 -0.777251 -0.267065 -2.187552 3.372135 -2.593909 -2.303031 -1.840437 -1.571965 -4.120776 1.580601 6.222970 2.528734 2.933987 0.666775 0.947228 -2.260967 4.836871 -4.807723 3.776794 1.058983 -3.653726 -2.564995 5.424818 3.610127 -5.180173 -0.816637 -5.335700 0.867021 4.865486 0.526679 3.292712 -0.975380 2.835636 -5.607997 -0.086694 -1.357979 3.374344 0.324216 -1.423022 -0.010227 -2.265898 2.838599 -1.405950 1.084900 -3.974671 0.137173 -4.816213 3.441218 -0.397874 -0.579498 0.031916 5.652788 -0.264503 2.325676 1.947520 3.880490 0.604615 -4.589364 1.454926 0.855849 -2.191901 -4.609537 -0.871466 1.920219 -1.049410 -0.823671 -3.037253 0.523534 2.842900 1.867564 -1.151436 -0.365503 -4.879506 8.588398 1.051923 -7.115673 2.508696 -0.017988 -0.284626 4.340483 0.859180 -4.213461 2.689284 -0.423342 -3.693750 1.849629 1.230294 6.105896 2.989093 5.768463 -2.463463 1.036039 0.232252 -0.947577 -3.993396 -0.706543 -2.667172 -1.852887 6.383779 4.924899 -0.731284 2.863673 2.945710 -2.954279 4.741044 -2.004416 -1.842745 -1.009134 -2.981146 -0.048282 -2.733943 0.255920 2.618997 5.169410 -0.524880 0.329982 0.704986 2.764679 -0.970428 3.859466 0.716006 -1.311515 -0.399707 2.191491 1.302807 -4.372886 -0.745269 -3.013890 -4.828175 -1.619726 0.846876 3.083878 0.444062 6.427654 0.766019 3.729137 -2.226110 5.359536 1.153185 0.813172 -4.046082 -0.211477 -0.018447 -5.653071 -4.847912 