-0.00000000000000002126 0.00000000000000005442 -0.00000000000000010544 
-0.00000000000000002189 0.00000000000000000000 0.00000000000000012245 
0.00000000000000006647 0.00000000000000005442 -0.00000000000000014625 
-0.00000000000000010184 0.00000000000000005442 0.00000000000000005442 
0.00000000000000008514 0.00000000000000005442 0.00000000000000002721 
0.00000000000000001675 0.00000000000000010884 -0.00000000000000003401 
0.00000000000000002752 -0.00000000000000010884 -0.00000000000000003741 
0.00000000000000001831 -0.00000000000000005442 -0.00000000000000008163 
-0.00000000000000006011 0.00000000000000000000 -0.00000000000000003401 
0.00000000000000012653 0.00000000000000010884 0.00000000000000004762 
-0.00000000000000002994 0.00000000000000000000 -0.00000000000000006462 
0.00000000000000009271 0.00000000000000000000 0.00000000000000003911 
0.00000000000000002772 0.00000000000000010884 -0.00000000000000005102 
0.00000000000000004097 -0.00000000000000010884 0.00000000000000001701 
0.00000000000000001667 0.00000000000000000000 -0.00000000000000003741 
-0.00000000000000010500 0.00000000000000000000 -0.00000000000000001531 
-0.00000000000000002937 0.00000000000000010884 -0.00000000000000003741 
0.00000000000000004081 0.00000000000000000000 -0.00000000000000009353 
0.00000000000000003983 0.00000000000000005442 -0.00000000000000005442 
0.00000000000000003335 -0.00000000000000010884 -0.00000000000000003401 
0.00000000000000002183 0.00000000000000010884 -0.00000000000000001701 
0.00000000000000005191 0.00000000000000005442 -0.00000000000000004252 
0.00000000000000001675 0.00000000000000000000 -0.00000000000000008163 
0.00000000000000007308 0.00000000000000000000 -0.00000000000000003401 
-0.00000000000000003823 0.00000000000000010884 0.00000000000000008673 
0.00000000000000002144 -0.00000000000000005442 -0.00000000000000004422 
0.00000000000000004561 0.00000000000000005442 0.00000000000000000170 
-0.00000000000000002790 0.00000000000000000000 -0.00000000000000003231 
0.00000000000000001039 0.00000000000000000000 0.00000000000000007993 
-0.00000000000000004524 0.00000000000000010884 0.00000000000000015306 
0.00000000000000006494 0.00000000000000005442 -0.00000000000000007143 
-0.00000000000000000338 0.00000000000000005442 -0.00000000000000004422 
-0.00000000000000007633 0.00000000000000005442 -0.00000000000000009098 
0.00000000000000003210 -0.00000000000000010884 0.00000000000000008673 
0.00000000000000006532 0.00000000000000010884 -0.00000000000000009439 
0.00000000000000002354 0.00000000000000010884 0.00000000000000004762 
-0.00000000000000006949 -0.00000000000000005442 -0.00000000000000001105 
0.00000000000000000378 0.00000000000000000000 0.00000000000000003996 
0.00000000000000003238 0.00000000000000000000 -0.00000000000000005527 
0.00000000000000010915 -0.00000000000000005442 -0.00000000000000004677 
-0.00000000000000000672 0.00000000000000000000 0.00000000000000003316 
0.00000000000000004319 0.00000000000000000000 -0.00000000000000000170 
0.00000000000000004677 0.00000000000000000000 0.00000000000000004252 
0.00000000000000006846 0.00000000000000000000 0.00000000000000004592 
0.00000000000000005152 -0.00000000000000005442 -0.00000000000000002211 
-0.00000000000000000862 -0.00000000000000005442 0.00000000000000002041 
0.00000000000000006219 -0.00000000000000005442 -0.00000000000000005867 
-0.00000000000000001441 0.00000000000000000000 -0.00000000000000010459 
-0.00000000000000005502 0.00000000000000000000 -0.00000000000000002764 
0.00000000000000003747 0.00000000000000005442 0.00000000000000000850 
0.00000000000000005023 0.00000000000000010884 -0.00000000000000001105 
-0.00000000000000004347 0.00000000000000000000 0.00000000000000001020 
0.00000000000000002834 0.00000000000000000000 -0.00000000000000003316 
0.00000000000000002520 -0.00000000000000010884 -0.00000000000000004804 
0.00000000000000001819 0.00000000000000000000 0.00000000000000004422 
0.00000000000000003656 0.00000000000000000000 0.00000000000000003911 
-0.00000000000000002572 0.00000000000000000000 0.00000000000000000723 
0.00000000000000007062 -0.00000000000000005442 0.00000000000000003231 
0.00000000000000007824 0.00000000000000010884 0.00000000000000007058 
0.00000000000000003551 -0.00000000000000010884 -0.00000000000000002041 
-0.00000000000000007700 0.00000000000000000000 0.00000000000000004634 
0.00000000000000011086 0.00000000000000005442 -0.00000000000000001063 
-0.00000000000000001694 0.00000000000000010884 -0.00000000000000001573 
-0.00000000000000005229 -0.00000000000000010884 -0.00000000000000004337 
-0.00000000000000001059 0.00000000000000005442 -0.00000000000000006335 
-0.00000000000000000474 0.00000000000000000000 0.00000000000000002976 
0.00000000000000001982 0.00000000000000000000 -0.00000000000000009630 
-0.00000000000000004725 0.00000000000000005442 0.00000000000000001531 
-0.00000000000000002027 0.00000000000000016326 0.00000000000000006229 
-0.00000000000000000000 0.00000000000000005442 -0.00000000000000004592 
-0.00000000000000007135 0.00000000000000005442 0.00000000000000006207 
-0.00000000000000006947 -0.00000000000000005442 -0.00000000000000014243 
-0.00000000000000008685 -0.00000000000000005442 0.00000000000000004592 
0.00000000000000004385 -0.00000000000000010884 0.00000000000000000446 
-0.00000000000000002366 0.00000000000000010884 -0.00000000000000002827 
0.00000000000000007638 -0.00000000000000005442 0.00000000000000007058 
0.00000000000000005570 0.00000000000000000000 -0.00000000000000001913 
-0.00000000000000000610 0.00000000000000000000 -0.00000000000000001531 
0.00000000000000008059 0.00000000000000000000 0.00000000000000005144 
-0.00000000000000009406 -0.00000000000000010884 -0.00000000000000008939 
-0.00000000000000009339 0.00000000000000000000 -0.00000000000000000829 
0.00000000000000000983 0.00000000000000005442 -0.00000000000000002955 
0.00000000000000002082 0.00000000000000010884 0.00000000000000004655 
0.00000000000000005642 0.00000000000000005442 -0.00000000000000005187 
-0.00000000000000000438 0.00000000000000005442 -0.00000000000000009800 
0.00000000000000004159 -0.00000000000000010884 0.00000000000000004135 
0.00000000000000002260 0.00000000000000010884 0.00000000000000008035 
-0.00000000000000000226 0.00000000000000000000 0.00000000000000000085 
-0.00000000000000012533 0.00000000000000000000 0.00000000000000001201 
0.00000000000000004425 -0.00000000000000010884 -0.00000000000000001361 
0.00000000000000004607 0.00000000000000016326 0.00000000000000002328 
0.00000000000000003844 -0.00000000000000005442 -0.00000000000000008280 
-0.00000000000000006371 -0.00000000000000005442 0.00000000000000002955 
-0.00000000000000003260 0.00000000000000005442 0.00000000000000003725 
0.00000000000000001079 0.00000000079581147402 -0.00000000000000007557 
-0.00000000000000001049 0.00000006783503706911 -0.00000000000000003263 
-0.00000000000000008230 0.00000079354332809243 -0.00000000000000003045 
-0.00000000000000003695 0.00000432183450716906 0.00000000000000004278 
-0.00000000000000000341 0.00001563218221822115 -0.00000000000000004400 
-0.00000000000000006833 0.00004378847683631584 -0.00000000000000002317 
-0.00000000000000003522 0.00010297087485801044 0.00000000000000002083 
0.00000000000000007714 0.00021319336253682278 0.00000000000000000850 
0.00000000000000003949 0.00040066966310991993 0.00000000000000008726 
0.00000000000000001687 0.00069783110257253152 -0.00000000000000004438 
-0.00000000000000011849 0.00114302666181757113 0.00000000000000007929 
0.00000000000000000717 0.00177995130151254117 -0.00000000000000000489 
0.00000000000000003385 0.00265685660858697636 -0.00000000000000005187 
0.00000000000000004807 0.00382560011958910182 -0.00000000000000002041 
-0.00000000000000004035 0.00534058806548259532 -0.00000000000000002655 
0.00000000000000008686 0.00725766209009650991 -0.00000000000000003489 
0.00000000000000006093 0.00963297473206581496 -0.00000000000000004132 
0.00000000000000005947 0.01252189188151478332 -0.00000000000000010238 
0.00000000000000000965 0.01597795357764912952 -0.00000000000000001275 
0.00000000000000002023 0.02005191779135371763 -0.00000000000000006449 
0.00000000000000009970 0.02479090550287831735 0.00000000000000001719 
0.00000000000000004879 0.03023765960801406971 -0.00000000000000001483 
0.00000000000000005000 0.03642992506360397120 -0.00000000000000007204 
0.00000000000000003550 0.04339995325751127425 -0.00000000000000000723 
-0.00000000000000000973 0.05117412986270201275 0.00000000000000009699 
0.00000000000000008040 0.05977272238549979216 -0.00000000000000006324 
-0.00000000000000004952 0.06920974120124906426 0.00000000000000000311 
0.00000000000000006573 0.07949290603165086455 0.00000000000000002113 
0.00000000000000009859 0.09062370849552815744 0.00000000000000003534 
0.00000000000000009139 0.10259756049479865081 -0.00000000000000006284 
-0.00000000000000000138 0.11540401771638066075 0.00000000000000006918 
-0.00000000000000001203 0.12902706737744407128 0.00000000000000004408 
0.00000000000000006546 0.14344546945846098351 -0.00000000000000007040 
-0.00000000000000010402 0.15863314100314115929 -0.00000000000000004598 
-0.00000000000000007762 0.17455957356899803878 -0.00000000000000005538 
-0.00000000000000003237 0.19119027454473030980 -0.00000000000000004937 
0.00000000000000010980 0.20848722377389589111 0.00000000000000006452 
0.00000000000000003168 0.22640933770670590430 0.00000000000000004843 
0.00000000000000001531 0.24491293411623787923 0.00000000000000001121 
0.00000000000000004767 0.26395219123949220652 0.00000000000000000679 
0.00000000000000008523 0.28347959601913236272 0.00000000000000001266 
-0.00000000000000009578 0.30344637691375198063 -0.00000000000000000087 
-0.00000000000000003587 0.32380291750166206866 0.00000000000000001636 
0.00000000000000009406 0.34449914781692186905 0.00000000000000003248 
0.00000000000000003805 0.36548491102048485946 0.00000000000000007479 
0.00000000000000008652 0.38671030361992225766 -0.00000000000000001651 
0.00000000000000000241 0.40812598800593818948 -0.00000000000000016317 
0.00000000000000007156 0.42968347657206834578 0.00000000000000004433 
0.00000000000000016306 0.45133538712593251896 0.00000000000000003787 
0.00000000000000000307 0.47303566968763866019 -0.00000000000000010295 
0.00000000000000000639 0.49473980510548071221 -0.00000000000000002914 
-0.00000000000000000942 0.51640497620370007237 -0.00000000000000000880 
0.00000000000000003329 0.53799021241483446776 -0.00000000000000004539 
0.00000000000000000899 0.55945650904349397692 -0.00000000000000003534 
-0.00000000000000002519 0.58076692246278360798 0.00000000000000000814 
-0.00000000000000003125 0.60188664266266178604 0.00000000000000001593 
0.00000000000000005559 0.62278304465488676378 0.00000000000000002955 
-0.00000000000000008172 0.64342572029536271305 -0.00000000000000006214 
-0.00000000000000011652 0.66378649211510343253 0.00000000000000006456 
0.00000000000000001214 0.68383941075889931316 0.00000000000000003981 
0.00000000000000009597 0.70356073744724156871 0.00000000000000002477 
0.00000000000000004550 0.72292887894014934425 -0.00000000000000001149 
-0.00000000000000004857 0.74192399461731717292 0.00000000000000003350 
-0.00000000000000000165 0.76052701484829254852 0.00000000000000008306 
-0.00000000000000001249 0.77871831980031580578 0.00000000000000002589 
0.00000000000000001161 0.79647639678413229003 0.00000000000000001286 
-0.00000000000000008886 0.81377667963577970944 0.00000000000000001487 
-0.00000000000000005160 0.83059068331900109960 -0.00000000000000004959 
0.00000000000000004847 0.84688548251756690100 0.00000000000000010095 
-0.00000000000000013424 0.86262353853116169322 0.00000000000000002134 
-0.00000000000000012893 0.87776284953484795537 -0.00000000000000001962 
0.00000000000000001711 0.89225738142150057275 0.00000000000000001169 
0.00000000000000010990 0.90605772702162212795 0.00000000000000001927 
-0.00000000000000000128 0.91911193813281866216 -0.00000000000000005387 
-0.00000000000000005867 0.93136647566155150724 0.00000000000000006461 
-0.00000000000000001488 0.94276722687384217902 0.00000000000000004049 
0.00000000000000015348 0.95326054419892847225 0.00000000000000005976 
0.00000000000000006845 0.96279426909195731099 0.00000000000000000774 
-0.00000000000000001063 0.97131881180085866134 -0.00000000000000003288 
-0.00000000000000004252 0.97878862899645091566 0.00000000000000001790 
0.00000000000000002466 0.98516412982265766374 0.00000000000000007250 
-0.00000000000000005017 0.99041366467819735853 0.00000000000000000219 
-0.00000000000000002381 0.99451531760020539519 0.00000000000000003411 
0.00000000000000006462 0.99745833593263222294 0.00000000000000006676 
0.00000000000000009694 0.99924411386521028167 0.00000000000000013883 
-0.00000000000000001361 0.99988670528493961420 -0.00000000000000009081 
-0.00000000000000000255 0.99941288167084629812 -0.00000000000000001672 
-0.00000000000000009183 0.99786177688491306537 -0.00000000000000008562 
0.00000000000000010204 0.99528417618159847891 0.00000000000000006046 
-0.00000000000000007823 0.99174151436285162831 -0.00000000000000012022 
-0.00000000000000006803 0.98730464993972499865 -0.00000000000000004226 
0.00000000000000006973 0.98205248013833312815 0.00000000000000000060 
0.00000000000000005612 0.97607045692977700835 0.00000000000000003360 
-0.00000000000000002721 0.96944905797958269567 0.00000000000000000906 
-0.00000000000000003231 0.96228225925960519938 0.00000000000000009537 
0.00000000000000001531 0.95466604860184489656 -0.00000000000000002010 
0.00000000000000003401 0.94669701209904344452 0.00000000000000003855 
0.00000000000000002041 0.93847101824761125499 -0.00000000000000007676 
0.00000000000000003401 0.93008201826532244105 0.00000000000000002562 
0.00000000000000001361 0.92162097520696406594 -0.00000000000000004192 
0.00000000000000012585 0.91317492939867450641 -0.00000000000000004089 
0.00000000000000001361 0.90482620332822705222 -0.00000000000000004289 
0.00000000000000002041 0.89665174544725345651 0.00000000000000001956 
0.00000000000000004422 0.88872260932532209932 0.00000000000000003663 
0.00000000000000008843 0.88110356219486929419 0.00000000000000002281 
0.00000000000000010204 0.87385281508225753910 -0.00000000000000007935 
0.00000000000000001361 0.86702186537219338991 -0.00000000000000001431 
0.00000000000000005442 0.86065544173804042760 0.00000000000000007330 
0.00000000000000003401 0.85479154082841091178 0.00000000000000000549 
-0.00000000000000002721 0.84946154487300173930 0.00000000000000000053 
-0.00000000000000007483 0.84469040940417305929 -0.00000000000000002850 
-0.00000000000000015646 0.84049691053602770818 0.00000000000000002440 
0.00000000000000010204 0.83689394165553920857 0.00000000000000007879 
0.00000000000000007483 0.83388884992124023832 -0.00000000000000003721 
0.00000000000000000680 0.83148380359988327548 -0.00000000000000002994 
-0.00000000000000003401 0.82967618197054282536 -0.00000000000000003210 
0.00000000000000003401 0.82845898026369313438 0.00000000000000008065 
-0.00000000000000007483 0.82782122285862758115 -0.00000000000000004948 
-0.00000000000000003401 0.82774837871875051043 0.00000000000000004336 
0.00000000000000000000 0.82822277378659792113 -0.00000000000000001291 
0.00000000000000003401 0.82922399577775185442 0.00000000000000009699 
0.00000000000000003401 0.83072928749649055380 -0.00000000000000002662 
0.00000000000000002041 0.83271392543973032918 -0.00000000000000002242 
-0.00000000000000002721 0.83515158105509501585 0.00000000000000002336 
0.00000000000000011564 0.83801466257107060098 0.00000000000000009137 
-0.00000000000000005442 0.84127463582067030234 -0.00000000000000010712 
-0.00000000000000006122 0.84490232293462619317 0.00000000000000002297 
-0.00000000000000014966 0.84886817818637660960 -0.00000000000000009274 
0.00000000000000006803 0.85314254063046934817 -0.00000000000000003283 
0.00000000000000001361 0.85769586349026338823 0.00000000000000002109 
-0.00000000000000000680 0.86249892052238708029 0.00000000000000003557 
-0.00000000000000004762 0.86752298981687570034 0.00000000000000000181 
-0.00000000000000002721 0.87274001568611936364 0.00000000000000005023 
-0.00000000000000013605 0.87812274945560264694 0.00000000000000009101 
-0.00000000000000010884 0.88364487009792691552 -0.00000000000000001452 
-0.00000000000000002721 0.88928108575167719163 -0.00000000000000004186 
0.00000000000000002721 0.89500721724126763856 -0.00000000000000003609 
0.00000000000000001361 0.90080026396991652593 -0.00000000000000008169 
-0.00000000000000012245 0.90663839112112443175 0.00000000000000006321 
0.00000000000000001361 0.91250050397250626055 0.00000000000000001345 
0.00000000000000000000 0.91836524682137443687 0.00000000000000000125 
0.00000000000000000000 0.92420973034344833241 0.00000000000000002635 
-0.00000000000000013605 0.93000828333504415024 -0.00000000000000003444 
-0.00000000000000005442 0.93573141177155794157 -0.00000000000000002321 
0.00000000000000002721 0.94134506355898217578 0.00000000000000002799 
-0.00000000000000002721 0.94681023740016168055 -0.00000000000000002619 
-0.00000000000000002721 0.95208293315984793281 0.00000000000000004447 
0.00000000000000000000 0.95711441444432221459 -0.00000000000000000536 
0.00000000000000005442 0.96185173819508162918 0.00000000000000003985 
0.00000000000000000000 0.96623849807444339710 -0.00000000000000010649 
0.00000000000000000000 0.97021572605486527952 -0.00000000000000005540 
0.00000000000000000000 0.97372289817486190611 -0.00000000000000009028 
0.00000000000000000000 0.97669899455790198939 0.00000000000000016040 
0.00000000000000000000 0.97908356966733445237 -0.00000000000000006394 
-0.00000000000000010884 0.98081782920169113815 0.00000000000000005494 
-0.00000000000000005442 0.98184596464788187475 -0.00000000000000008004 
-0.00000000000000005442 0.98211698356717036518 0.00000000000000009471 
-0.00000000000000005442 0.98158676993670079813 -0.00000000000000015131 
0.00000000000000000000 0.98022004557649666801 0.00000000000000008694 
-0.00000000000000005442 0.97799202329710877013 -0.00000000000000016585 
0.00000000000000000000 0.97488963702150654989 -0.00000000000000001137 
-0.00000000000000016326 0.97091230215533730341 -0.00000000000000006884 
-0.00000000000000005442 0.96607220686620665084 0.00000000000000004887 
-0.00000000000000010884 0.96039416648704956092 0.00000000000000000356 
0.00000000000000000000 0.95391509282569963979 0.00000000000000003383 
-0.00000000000000010884 0.94668314080189897020 0.00000000000000004639 
-0.00000000000000010884 0.93875659896153829109 0.00000000000000002939 
-0.00000000000000010884 0.93020258993021709415 -0.00000000000000003956 
0.00000000000000000000 0.92109564323459591773 -0.00000000000000000500 
0.00000000000000005442 0.91151619726846355718 -0.00000000000000003764 
-0.00000000000000005442 0.90154908036433889507 0.00000000000000008226 
0.00000000000000010884 0.89128201358490943829 0.00000000000000003029 
0.00000000000000005442 0.88080417043232228647 0.00000000000000003476 
0.00000000000000000000 0.87020482151145339689 -0.00000000000000007183 
-0.00000000000000010884 0.85957208549394148456 0.00000000000000000480 
0.00000000000000000000 0.84899180164942922300 0.00000000000000010678 
0.00000000000000010884 0.83854653381370902743 0.00000000000000011261 
0.00000000000000000000 0.82831471097886000265 -0.00000000000000003271 
-0.00000000000000005442 0.81836990571293133367 -0.00000000000000001071 
0.00000000000000005442 0.80878024831763806191 0.00000000000000005630 
0.00000000000000000000 0.79960797196738375714 0.00000000000000006882 
0.00000000000000000000 0.79090908198723963718 -0.00000000000000008284 
0.00000000000000000000 0.78273314086156220437 -0.00000000000000005849 
-0.00000000000000021768 0.77512315945701326658 -0.00000000000000001590 
-0.00000000000000021768 0.76811558423276227181 0.00000000000000018164 
-0.00000000000000010884 0.76174036983783288690 -0.00000000000000005755 
0.00000000000000000000 0.75602112640576057956 0.00000000000000004194 
0.00000000000000000000 0.75097533099908619914 0.00000000000000003882 
-0.00000000000000010884 0.74661459298466004153 0.00000000000000006157 
-0.00000000000000010884 0.74294496359413109143 -0.00000000000000001629 
-0.00000000000000010884 0.73996728050609783534 0.00000000000000006826 
-0.00000000000000010884 0.73767753894575660567 0.00000000000000003104 
-0.00000000000000010884 0.73606728150747491313 0.00000000000000003692 
-0.00000000000000005442 0.73512399964278929421 0.00000000000000001510 
-0.00000000000000010884 0.73483154050189591899 0.00000000000000001761 
-0.00000000000000005442 0.73517051355525542267 -0.00000000000000003954 
0.00000000000000000000 0.73611869214109360016 0.00000000000000008929 
-0.00000000000000016326 0.73765140577460808213 -0.00000000000000004092 
-0.00000000000000005442 0.73974191970833913512 -0.00000000000000002781 
0.00000000000000000000 0.74236179884510689053 0.00000000000000000523 
0.00000000000000005442 0.74548125367171125255 0.00000000000000006495 
-0.00000000000000005442 0.74906946640113325486 -0.00000000000000007573 
-0.00000000000000016326 0.75309489598251033726 0.00000000000000003258 
0.00000000000000000000 0.75752556106182322715 -0.00000000000000005078 
0.00000000000000010884 0.76232930035303381189 0.00000000000000012240 
-0.00000000000000005442 0.76747401021096950391 0.00000000000000001334 
-0.00000000000000010884 0.77292785948564446397 -0.00000000000000007383 
-0.00000000000000005442 0.77865948198539736147 -0.00000000000000007100 
-0.00000000000000005442 0.78463814708588552893 0.00000000000000012604 
0.00000000000000000000 0.79083390919644991346 -0.00000000000000002740 
-0.00000000000000016326 0.79721773693755515477 0.00000000000000005158 
0.00000000000000005442 0.80376162299583298054 0.00000000000000001054 
-0.00000000000000010884 0.81043867570958671998 0.00000000000000010609 
0.00000000000000000000 0.81722319347930716393 -0.00000000000000007004 
0.00000000000000005442 0.82409070645048421166 0.00000000000000003279 
0.00000000000000005442 0.83101776785849357232 0.00000000000000000950 
0.00000000000000005442 0.83798116310487713587 0.00000000000000015464 
-0.00000000000000010884 0.84495670479217455107 -0.00000000000000001172 
-0.00000000000000010884 0.85191794850689728236 -0.00000000000000000709 
0.00000000000000000000 0.85883505448008812255 0.00000000000000000705 
0.00000000000000000000 0.86567392399173570539 0.00000000000000007162 
0.00000000000000010884 0.87239567034532339296 -0.00000000000000003921 
0.00000000000000000000 0.87895643624055264098 0.00000000000000006993 
0.00000000000000000000 0.88530753744019219376 -0.00000000000000000800 
0.00000000000000005442 0.89139589279372899444 0.00000000000000001192 
0.00000000000000000000 0.89716468980316588233 -0.00000000000000010485 
0.00000000000000000000 0.90255423052392769190 0.00000000000000002773 
0.00000000000000005442 0.90750290276039502491 0.00000000000000000891 
-0.00000000000000010884 0.91194822475540560092 0.00000000000000005586 
0.00000000000000010884 0.91582791675412333898 -0.00000000000000005867 
-0.00000000000000016326 0.91908095909622011810 0.00000000000000005288 
0.00000000000000005442 0.92164861043813706143 0.00000000000000007235 
-0.00000000000000010884 0.92347551594080357074 0.00000000000000004186 
0.00000000000000010884 0.92451125365788344723 -0.00000000000000009159 
-0.00000000000000010884 0.92471223993866080715 0.00000000000000000719 
-0.00000000000000005442 0.92404364409947181702 0.00000000000000003041 
0.00000000000000000000 0.92248106096528570408 0.00000000000000008052 
0.00000000000000005442 0.92001179622537054836 -0.00000000000000006899 
0.00000000000000000000 0.91663569673323463949 -0.00000000000000000293 
0.00000000000000010884 0.91236551223625395046 -0.00000000000000001195 
0.00000000000000000000 0.90722681179906838889 -0.00000000000000001281 
-0.00000000000000010884 0.90125750160063122784 -0.00000000000000006426 
0.00000000000000000000 0.89450700419657136475 0.00000000000000008903 
-0.00000000000000005442 0.88703516540560412018 -0.00000000000000013367 
-0.00000000000000016326 0.87891095579001643490 0.00000000000000009548 
0.00000000000000016326 0.87021103088171136708 -0.00000000000000009814 
-0.00000000000000005442 0.86101820910858739566 0.00000000000000003497 
-0.00000000000000010884 0.85141991975211483989 0.00000000000000004527 
0.00000000000000010884 0.84150666592639578045 0.00000000000000010483 
0.00000000000000005442 0.83137054003154953197 -0.00000000000000004373 
-0.00000000000000010884 0.82110382176951823840 0.00000000000000006176 
0.00000000000000000000 0.81079768187066347807 0.00000000000000006557 
-0.00000000000000010884 0.80054100832672892007 0.00000000000000009103 
-0.00000000000000005442 0.79041936625287001483 -0.00000000000000008765 
0.00000000000000010884 0.78051409754993317236 0.00000000000000003764 
-0.00000000000000010884 0.77090156231167439316 -0.00000000000000001579 
0.00000000000000010884 0.76165252039686048846 0.00000000000000004417 
-0.00000000000000010884 0.75283164872164443082 0.00000000000000002648 
0.00000000000000010884 0.74449718756988814139 0.00000000000000001555 
-0.00000000000000005442 0.73670070750823424266 0.00000000000000006723 
-0.00000000000000016326 0.72948698726588367958 0.00000000000000011174 
-0.00000000000000005442 0.72289399213327076854 -0.00000000000000001065 
0.00000000000000000000 0.71695294198830372689 -0.00000000000000006560 
0.00000000000000005442 0.71168845791594537165 -0.00000000000000001349 
0.00000000000000000000 0.70711877649343224395 0.00000000000000006837 
0.00000000000000005442 0.70325602112084428796 -0.00000000000000001227 
0.00000000000000010884 0.70010652024164476970 0.00000000000000011739 
0.00000000000000010884 0.69767116288179253925 -0.00000000000000004150 
-0.00000000000000005442 0.69594578260565387318 0.00000000000000003281 
0.00000000000000000000 0.69492156171345798032 0.00000000000000005897 
-0.00000000000000005442 0.69458544826404322592 -0.00000000000000007032 
0.00000000000000000000 0.69492057927782180382 0.00000000000000000130 
0.00000000000000005442 0.69590670424151745976 0.00000000000000004350 
0.00000000000000010884 0.69752060378490166048 0.00000000000000001706 
0.00000000000000000000 0.69973649911990898342 0.00000000000000010987 
0.00000000000000000000 0.70252644851616274924 0.00000000000000002712 
-0.00000000000000010884 0.70586072772825025901 0.00000000000000003945 
0.00000000000000000000 0.70970819188509304265 -0.00000000000000000080 
0.00000000000000005442 0.71403661689811759317 0.00000000000000000376 
-0.00000000000000010884 0.71881301894152815901 0.00000000000000001023 
0.00000000000000000000 0.72400395100489423061 0.00000000000000008016 
0.00000000000000005442 0.72957577591630995428 0.00000000000000003022 
0.00000000000000010884 0.73549491558519852763 0.00000000000000010462 
0.00000000000000000000 0.74172807651943684082 -0.00000000000000002582 
0.00000000000000000000 0.74824245193443239543 0.00000000000000003172 
-0.00000000000000005442 0.75500590099475917150 -0.00000000000000006507 
-0.00000000000000005442 0.76198710591494300814 0.00000000000000004006 
0.00000000000000000000 0.76915570779794817380 0.00000000000000008448 
0.00000000000000000000 0.77648242221089847082 0.00000000000000009138 
-0.00000000000000005442 0.78393913559056616069 0.00000000000000000443 
-0.00000000000000005442 0.79149898363909620969 0.00000000000000010792 
0.00000000000000000000 0.79913641025417536667 0.00000000000000008351 
-0.00000000000000005442 0.80682710499127607839 0.00000000000000012512 
-0.00000000000000005442 0.81454745266499350986 0.00000000000000005938 
0.00000000000000010884 0.82227344646776723280 0.00000000000000005403 
-0.00000000000000005442 0.82997939806039855437 0.00000000000000006455 
0.00000000000000010884 0.83763671671415951270 0.00000000000000003777 
-0.00000000000000010884 0.84521292125968938702 -0.00000000000000002307 
0.00000000000000005442 0.85267096947735143697 0.00000000000000018836 
-0.00000000000000010884 0.85996893380559236153 -0.00000000000000000905 
0.00000000000000000000 0.86706001440981661510 -0.00000000000000001212 
0.00000000000000005442 0.87389285639773517378 0.00000000000000002362 
0.00000000000000000000 0.88041212383532152508 -0.00000000000000001106 
-0.00000000000000005442 0.88655927648724464074 0.00000000000000005526 
0.00000000000000000000 0.89227349374667686011 0.00000000000000000769 
-0.00000000000000010884 0.89749269238120388259 0.00000000000000000018 
0.00000000000000000000 0.90215458924007163599 0.00000000000000011511 
0.00000000000000005442 0.90619776598836043746 -0.00000000000000000247 
-0.00000000000000005442 0.90956269954731028271 0.00000000000000005742 
0.00000000000000000000 0.91219272871276346759 -0.00000000000000007527 
0.00000000000000000000 0.91403493403379798554 0.00000000000000008839 
0.00000000000000005442 0.91504091421751243551 0.00000000000000000324 
0.00000000000000000000 0.91516744793061965968 0.00000000000000008668 
0.00000000000000005442 0.91437703480950405233 0.00000000000000001616 
0.00000000000000010884 0.91263831373393089486 0.00000000000000009752 
0.00000000000000000000 0.90992635996868231896 0.00000000000000007592 
0.00000000000000000000 0.90622286566077159264 0.00000000000000006604 
-0.00000000000000005442 0.90151621044352570067 -0.00000000000000003719 
-0.00000000000000010884 0.89580143059917438642 0.00000000000000008028 
0.00000000000000000000 0.88908009643084906504 0.00000000000000003042 
0.00000000000000010884 0.88136010825696597948 0.00000000000000004093 
-0.00000000000000021768 0.87265542182904887181 -0.00000000000000008280 
0.00000000000000005442 0.86298571404855395350 0.00000000000000005775 
0.00000000000000000000 0.85237599967556798575 0.00000000000000001510 
0.00000000000000010884 0.84085620933401283850 0.00000000000000010494 
-0.00000000000000005442 0.82846073857058299961 0.00000000000000007963 
0.00000000000000000000 0.81522797705913518929 0.00000000000000003881 
0.00000000000000000000 0.80119982629437158650 0.00000000000000007685 
0.00000000000000005442 0.78642121331911751803 0.00000000000000006980 
0.00000000000000000000 0.77093960720416543353 0.00000000000000012441 
0.00000000000000005442 0.75480454417004361201 0.00000000000000004876 
0.00000000000000000000 0.73806716642365777226 -0.00000000000000002886 
0.00000000000000010884 0.72077977899344436441 0.00000000000000005659 
-0.00000000000000010884 0.70299542809520954023 0.00000000000000005484 
0.00000000000000000000 0.68476750385515017250 0.00000000000000006003 
0.00000000000000010884 0.66614936956227421838 -0.00000000000000002180 
0.00000000000000000000 0.64719401902307105434 0.00000000000000006029 
-0.00000000000000010884 0.62795376304867756012 -0.00000000000000001987 
-0.00000000000000021768 0.60847994561940899061 0.00000000266192931949 
-0.00000000000000005442 0.58882268984259455991 0.00000012186810266724 
-0.00000000000000016326 0.56903067344563562635 0.00000116481041912203 
0.00000000000000005442 0.54915093322467811721 0.00000573746754636499 
-0.00000000000000005442 0.52922869759748558671 0.00001954123295108770 
0.00000000000000000000 0.50930724618371847612 0.00005258980245987379 
-0.00000000000000005442 0.48942779515343975971 0.00012018371711934410 
-0.00000000000000010884 0.46962940694164895250 0.00024355903306662134 
0.00000000000000000000 0.44994892281934112388 0.00045018229811894227 
0.00000000000000000000 0.43042091673636961868 0.00077370179440717352 
0.00000000000000000000 0.41107766880470825166 0.00125358920549780459 
-0.00000000000000005442 0.39194915676915897951 0.00193451993878592031 
0.00000000000000000000 0.37306447211633686489 0.00286554700360997297 
-0.00000000000000016326 0.35444753930817207710 0.00409912474357698557 
0.00000000000000000000 0.33612153723560295182 0.00569003649916162597 
0.00000000000000000000 0.31810745529067191439 0.00769427569844914009 
-0.00000000000000010884 0.30042415060172067420 0.01016792389521801315 
-0.00000000000000010884 0.28308841390750799638 0.01316606260339395901 
-0.00000000000000005442 0.26611504272223263090 0.01674174892971250564 
-0.00000000000000016326 0.24951692052307258840 0.02094507834420807763 
-0.00000000000000016326 0.23330510077484525877 0.02582235169467431493 
0.00000000000000010884 0.21748889469135951336 0.03141535791961801855 
-0.00000000000000005442 0.20207596171876349156 0.03776077892906402889 
-0.00000000000000005442 0.18707240181166401305 0.04488971883766558479 
0.00000000000000000000 0.17248284865710181157 0.05282735614694495513 
0.00000000000000005442 0.15831056308388813392 0.06159271455436419324 
-0.00000000000000005442 0.14455752597469920251 0.07119854577033647713 
0.00000000000000000000 0.13122453007522555390 0.08165131599365564596 
-0.00000000000000016326 0.11831127016814101116 0.09295128646895819968 
-0.00000000000000021768 0.10581643114943634076 0.10509267776267436356 
-0.00000000000000005442 0.09373777361050286694 0.11806390698320708144 
0.00000000000000005442 0.08207221659111112178 0.13184788707629685467 
0.00000000000000010884 0.07081591722605551364 0.14642237749113740097 
0.00000000000000000000 0.05996434706164334438 0.16176037588508829224 
-0.00000000000000005442 0.04951236486747179200 0.17783054106825868512 
0.00000000000000005442 0.03945428581408129409 0.19459763804261831499 
0.00000000000000005442 0.02978394692819881159 0.21202299672779451045 
0.00000000000000005442 0.02049476877451598608 0.23006497675648343582 
0.00000000000000010884 0.01157981334641743770 0.24867943154047764120 
-0.00000000000000010884 0.00303183817793924951 0.26782016563202892812 
0.00000000000000000000 -0.00515665328431465057 0.28743938021707338137 
-0.00000000000000005442 -0.01299336498738369421 0.30748810236269169538 
0.00000000000000000000 -0.02048616517424037969 0.32791659439025083733 
-0.00000000000000027210 -0.02764304678284304484 0.34867474044989871240 
0.00000000000000005442 -0.03447209122805504344 0.36971240802578375639 
-0.00000000000000010884 -0.04098143544041982222 0.39097978270092093034 
0.00000000000000000000 -0.04717924202598780536 0.41242767505408939321 
0.00000000000000005442 -0.05307367240367438788 0.43400779904800063091 
0.00000000000000005442 -0.05867286277087100516 0.45567302169888812546 
-0.00000000000000005442 -0.06398490274400595035 0.47737758419414766387 
-0.00000000000000016326 -0.06901781651832213094 0.49907729494900671119 
-0.00000000000000010884 -0.07377954639013369065 0.52072969536817803604 
0.00000000000000000000 -0.07827793848508435293 0.54229419930725542009 
0.00000000000000005442 -0.08252073053732945918 0.56373220741464236117 
0.00000000000000000000 -0.08651554156694070408 0.58500719768163944590 
0.00000000000000000000 -0.09026986330608334497 0.60608479363955336527 
0.00000000000000005442 -0.09379105322850063431 0.62693281172193282558 
0.00000000000000010884 -0.09708632904145983455 0.64752128936078767740 
0.00000000000000010884 -0.10016276450445910084 0.66782249541127358672 
0.00000000000000000000 -0.10302728644457143092 0.68781092450308323194 
0.00000000000000000000 -0.10568667284421906505 0.70746327610585679757 
0.00000000000000000000 -0.10814755188335570257 0.72675835759625861954 
0.00000000000000005442 -0.11041640182439781126 0.74567657742408377519 
0.00000000000000000000 -0.11249955163474782693 0.76419886611575327251 
0.00000000000000005442 -0.11440318224829149063 0.78230532912514783028 
0.00000000000000000000 -0.11613332837382663032 0.79997392762447983028 
-0.00000000000000005442 -0.11769588076489162498 0.81717937026816833690 
0.00000000000000000000 -0.11909658887190290033 0.83389231436836386280 
0.00000000000000005442 -0.12034106380383112478 0.85007891493130682825 
0.00000000000000005442 -0.12143478153280899690 0.86570071893525757378 
0.00000000000000000000 -0.12238308628104865861 0.88071487553515770408 
-0.00000000000000005442 -0.12319119403523150214 0.89507461693888490384 
0.00000000000000000000 -0.12386532918947740223 0.90872995665746814087 
0.00000000000000010884 -0.12440954124002673309 0.92162854944757643949 
-0.00000000000000010884 -0.12482839592244723836 0.93371665880047538533 
0.00000000000000000000 -0.12512663639367607726 0.94494018195243545399 
0.00000000000000010884 -0.12530889530733868575 0.95524568808593535163 
0.00000000000000000000 -0.12537969824540984298 0.96458143456726896936 
0.00000000000000000000 -0.12534346703455356842 0.97289843342360571299 
-0.00000000000000010884 -0.12520452292958317297 0.98015191132792078843 
0.00000000000000005442 -0.12496708964993935576 0.98630319486500006576 
0.00000000000000000000 -0.12463529625825853220 0.99132167648578073393 
-0.00000000000000005442 -0.12421317987301795649 0.99518658298143392038 
-0.00000000000000005442 -0.12370468820990801473 0.99788838098103493923 
0.00000000000000010884 -0.12311368194898703043 0.99942973674151791563 
0.00000000000000005442 -0.12244393692684953090 0.99982600622328388074 
0.00000000000000000000 -0.12169914615497365307 0.99910527161185536116 
0.00000000000000000000 -0.12088292166713365816 0.99730796645797392674 
0.00000000000000000000 -0.11999850806102578538 0.99448614698045656457 
0.00000000000000010884 -0.11904854429175759645 0.99070247459583804517 
0.00000000000000010884 -0.11803759055645388076 0.98602897660075516928 
0.00000000000000000000 -0.11696894604971265486 0.98054564984937730987 
0.00000000000000005442 -0.11584583607121434756 0.97433896756083715474 
0.00000000000000000000 -0.11467141296871911915 0.96750034306842369602 
0.00000000000000005442 -0.11344875696257174236 0.96012459713965037089 
0.00000000000000005442 -0.11218087686166364203 0.95230846801074819918 
0.00000000000000000000 -0.11087071068101310434 0.94414919588939139050 
0.00000000000000000000 -0.10952112617124647176 0.93574320666097143828 
0.00000000000000000000 -0.10813492127025767231 0.92718491306636674487 
0.00000000000000000000 -0.10671482448724960157 0.91856564580983235402 
0.00000000000000010884 -0.10526349522919017931 0.90997272195640555026 
0.00000000000000005442 -0.10378352407948540637 0.90148865360063312746 
0.00000000000000000000 -0.10227743303836418776 0.89319049611506406983 
0.00000000000000000000 -0.10074767573412257704 0.88514933228026393408 
0.00000000000000000000 -0.09919663761396840806 0.87742988620759587715 
0.00000000000000005442 -0.09762663612276922809 0.87009025913333803981 
0.00000000000000016326 -0.09603992087753208950 0.86318177782601890335 
0.00000000000000005442 -0.09443867384494625261 0.85674894544552493425 
0.00000000000000008163 -0.09282500952880039236 0.85082948416158921123 
0.00000000000000008163 -0.09120097517355560401 0.84545445862269696935 
0.00000000000000005442 -0.08956855098981233998 0.84064846941031345917 
0.00000000000000000000 -0.08792965040687195089 0.83642990586838150691 
0.00000000000000002721 -0.08628612035703764338 0.83281124811990003831 
0.00000000000000008163 -0.08463974159577361545 0.82979940863180778887 
0.00000000000000000000 -0.08299222906130419852 0.82739610433192656291 
-0.00000000000000002721 -0.08134523227671247581 0.82559825098776418173 
0.00000000000000002721 -0.07970033579709868976 0.82439837230124579648 
0.00000000000000010884 -0.07805905970386491088 0.82378501693481720469 
0.00000000000000002721 -0.07642286014772488312 0.82374317744535796582 
0.00000000000000005442 -0.07479312994158487937 0.82425470584889870551 
0.00000000000000005442 -0.07317119920401771171 0.82529872126003334110 
0.00000000000000012245 -0.07155833605364192440 0.82685200573665618151 
0.00000000000000008163 -0.06995574735434237357 0.82888938510687837358 
0.00000000000000006803 -0.06836457951090724183 0.83138409215633513050 
0.00000000000000008163 -0.06678591931432910356 0.83430811010782490733 
-0.00000000000000001361 -0.06522079483571148473 0.83763249482994406314 
0.00000000000000020408 -0.06367017636743693698 0.84132767466685309810 
-0.00000000000000002721 -0.06213497741001040159 0.84536372718817298644 
0.00000000000000005442 -0.06061605570274494759 0.84971063251766620894 
0.00000000000000009524 -0.05911421429626716878 0.85433850321372217795 
0.00000000000000001361 -0.05763020266463157043 0.85921779094613470740 
0.00000000000000007483 -0.05616471785467450073 0.86431947044483636855 
0.00000000000000003401 -0.05471840567011013179 0.86961520139005732410 
0.00000000000000000000 -0.05329186188775413696 0.87507746907268291192 
0.00000000000000005442 -0.05188563350316819506 0.88067970478146384572 
-0.00000000000000004082 -0.05050022000295214392 0.88639638697310885185 
-0.00000000000000002041 -0.04913607466085759268 0.89220312435509130378 
0.00000000000000005102 -0.04779360585485419033 0.89807672126623327991 
0.00000000000000008333 -0.04647317840228029628 0.90399516430252535582 
0.00000000000000000340 -0.04517511491019028658 0.90993719600327416241 
0.00000000000000003869 -0.04389969713803815871 0.91588131310739129276 
0.00000000000000009013 -0.04264716736985800505 0.92180449321076896041 
0.00000000000000005102 -0.04141772979314553571 0.92768094578386350868 
0.00000000000000001361 -0.04021155188169450723 0.93348107049024964255 
-0.00000000000000002041 -0.03902876577970790933 0.93917072119008015996 
0.00000000000000005782 -0.03786946968457154117 0.94471081405659851349 
-0.00000000000000002041 -0.03673372922576386562 0.95005727719549837307 
0.00000000000000001020 -0.03562157883745698667 0.95516131248795677067 
0.00000000000000000340 -0.03453302312246629008 0.95996992446125795073 
0.00000000000000004082 -0.03346944650877350241 0.96442666296868095888 
0.00000000000000001361 -0.03242931131622669993 0.96847252409371031856 
-0.00000000000000006803 -0.03141254492548186533 0.97204695524418271990 
-0.00000000000000000680 -0.03041904999550350264 0.97508891453500401436 
0.00000000000000006803 -0.02944870576323106032 0.97753794026297569086 
0.00000000000000004762 -0.02850136932229071010 0.97933520000768992109 
0.00000000000000004082 -0.02757687687919711111 0.98042464515910343614 
0.00000000000000009524 -0.02667504498560942239 0.98075461527713336807 
0.00000000000000003401 -0.02579567174532698681 0.98027980958416371937 
-0.00000000000000002041 -0.02493853799481993844 0.97896327271321592622 
-0.00000000000000008163 -0.02410340845620969827 0.97677814059546763659 
-0.00000000000000005442 -0.02329003286172471807 0.97370899913241970580 
-0.00000000000000005442 -0.02249814704877133378 0.96975278589174751520 
-0.00000000000000004082 -0.02172747402486580395 0.96491921980455408470 
0.00000000000000000000 -0.02097772500177874297 0.95923078097213265725 
0.00000000000000006803 -0.02024860039835290129 0.95272228642161171930 
-0.00000000000000012925 -0.01953865776115764133 0.94544012133900035000 
-0.00000000000000002721 -0.01884849963554169339 0.93744119161434480425 
-0.00000000000000008163 -0.01817808695712366460 0.92879166454716965973 
-0.00000000000000004082 -0.01752708232715790779 0.91956556190916283189 
-0.00000000000000002721 -0.01689514229370498236 0.90984326449956420824 
0.00000000000000001361 -0.01628191815025752456 0.89970998081096620336 
-0.00000000000000005442 -0.01568705670227550988 0.88925422516293251007 
0.00000000000000008163 -0.01511020100176391212 0.87856634318102044823 
-0.00000000000000005442 -0.01455099105008805446 0.86773711517208540478 
-0.00000000000000001361 -0.01400906446929399939 0.85685646102846146910 
-0.00000000000000001361 -0.01348405714225288203 0.84601226394834327937 
-0.00000000000000010884 -0.01297560382201206133 0.83528932458297433516 
0.00000000000000001361 -0.01248333871078221614 0.82476845225673012241 
-0.00000000000000004082 -0.01200689600904208953 0.81452569565954036079 
-0.00000000000000004082 -0.01154591043528085774 0.80463171186082538267 
0.00000000000000002721 -0.01110001771694305896 0.79515126960014270718 
0.00000000000000006803 -0.01066885505317610207 0.78614288052004455132 
0.00000000000000000000 -0.01025206155000817250 0.77765855026230601421 
-0.00000000000000002721 -0.00984927862862063248 0.76974364008779605495 
0.00000000000000000000 -0.00946015040739926066 0.76243682884065100414 
0.00000000000000009524 -0.00908432405846804937 0.75577016459878976207 
-0.00000000000000005442 -0.00872145013943840565 0.74976919517808682247 
0.00000000000000001361 -0.00837118290110925277 0.74445316673379335892 
0.00000000000000004082 -0.00803318057187608382 0.73983527998182596619 
-0.00000000000000004762 -0.00770710561961207227 0.73592299400109328911 
-0.00000000000000005442 -0.00739262499179249490 0.73271836813779100961 
0.00000000000000003401 -0.00708941033463957558 0.73021843318018675451 
-0.00000000000000002041 -0.00679713819206547408 0.72841558367906500404 
-0.00000000000000001361 -0.00651549018519336116 0.72729798403030043730 
0.00000000000000006122 -0.00624415317323268396 0.72684998169156678216 
0.00000000000000005442 -0.00598281939648054317 0.72705252165814904242 
0.00000000000000005442 -0.00573118660221924418 0.72788355705972118681 
0.00000000000000001361 -0.00548895815426749326 0.72931845145007678788 
0.00000000000000009524 -0.00525584312693630571 0.73133036903703663167 
0.00000000000000006803 -0.00503155638413210933 0.73389064973415829574 
-0.00000000000000006122 -0.00481581864433475691 0.73696916650534138871 
0.00000000000000007483 -0.00460835653216562936 0.74053466301543702244 
0.00000000000000005442 -0.00440890261725152260 0.74455507009338395275 
0.00000000000000001361 -0.00421719544106778643 0.74899779995904369745 
0.00000000000000006122 -0.00403297953243676732 0.75383001756159928597 
0.00000000000000010204 -0.00385600541233364165 0.75901888872757194981 
-0.00000000000000001361 -0.00368602958864069387 0.76453180512216423192 
-0.00000000000000000680 -0.00352281454147020459 0.77033658629116796845 
0.00000000000000000000 -0.00336612869965856754 0.77640165927473281382 
0.00000000000000010204 -0.00321574640901744471 0.78269621647171594425 
0.00000000000000006803 -0.00307144789290754753 0.78919035258707448399 
-0.00000000000000010884 -0.00293301920568052798 0.79585518161775148371 
-0.00000000000000002041 -0.00280025217952055167 0.80266293492774709595 
0.00000000000000012245 -0.00267294436519096342 0.80958704153333138631 
0.00000000000000000680 -0.00255089896717836931 0.81660218910558257654 
0.00000000000000004762 -0.00243392477370256346 0.82368426365333846650 
-0.00000000000000002721 -0.00232183608204780071 0.83080980146160765543 
0.00000000000000005442 -0.00221445261964179794 0.83795490463425326144 
0.00000000000000006803 -0.00211159946130461606 0.84509395366841344455 
0.00000000000000004082 -0.00201310694305517797 0.85219838911592515895 
0.00000000000000002041 -0.00191881057285875106 0.85923572606481257719 
-0.00000000000000002721 -0.00182855093867105058 0.86616888605566044745 
0.00000000000000008163 -0.00174217361412222797 0.87295587529175233676 
0.00000000000000003401 -0.00165952906216556987 0.87954980016992867498 
-0.00000000000000001361 -0.00158047253699669199 0.88589918690453761663 
-0.00000000000000000680 -0.00150571861332017705 0.89194855788689120235 
-0.00000000000000002041 -0.00143478333886049611 0.89763921069413554754 
-0.00000000000000007483 -0.00136695378885125251 0.90291014420408954866 
0.00000000000000003401 -0.00130210745368128421 0.90769907843596786545 
-0.00000000000000001701 -0.00124012589836923872 0.91194351925678762694 
-0.00000000000000004082 -0.00118089466990517608 0.91558182501491769401 
0.00000000000000005442 -0.00112430320411483950 0.91855423894898768911 
-0.00000000000000004082 -0.00107024473225611049 0.92080389192295275524 
0.00000000000000001361 -0.00101861618753634796 0.92227803447136302850 
-0.00000000000000000680 -0.00096931811173391893 0.92292974371082836527 
0.00000000000000000000 -0.00092225456208916000 0.92271984624248137852 
-0.00000000000000005442 -0.00087733301862160263 0.92161873408927796891 
0.00000000000000001020 -0.00083446429201352072 0.91960786948303940846 
0.00000000000000001361 -0.00079356243219824956 0.91668086809992299635 
-0.00000000000000003741 -0.00075454463776823634 0.91284411756061945020 
-0.00000000000000010204 -0.00071733116632020943 0.90811693464849063684 
0.00000000000000000000 -0.00068184524583523611 0.90253129557033273667 
-0.00000000000000004082 -0.00064743998362972073 0.89613119254260686919 
-0.00000000000000001361 -0.00061381385523055960 0.88897168009279281531 
0.00000000000000000680 -0.00058177856841303758 0.88111767813775043745 
0.00000000000000003401 -0.00055126425030603879 0.87264259802978449976 
0.00000000000000006803 -0.00052220378584141934 0.86362685381220727354 
0.00000000000000005782 -0.00049453272668419394 0.85415631502189026669 
-0.00000000000000000680 -0.00046818920214403571 0.84432075036372045140 
0.00000000000000008163 -0.00044311383208754472 0.83421230408880864271 
-0.00000000000000000680 -0.00041924964186998480 0.82392403938896419113 
0.00000000000000001020 -0.00039654197929206772 0.81354857589244478078 
-0.00000000000000002721 -0.00037493843359342940 0.80317684162264169068 
-0.00000000000000005782 -0.00035438875647852725 0.79289695369332502395 
-0.00000000000000005272 -0.00033484478517640051 0.78279323663109146025 
-0.00000000000000003061 -0.00031626036752512308 0.77294538256188427550 
-0.00000000000000006462 -0.00029859128907333099 0.76342775356501868522 
0.00000000000000003741 -0.00028179520218286512 0.75430882325302706093 
-0.00000000000000003911 -0.00026583155711895157 0.74565075203141251148 
-0.00000000000000006122 -0.00025066153510737600 0.73750908847213014763 
0.00000000000000005782 -0.00023624798333791755 0.72993258773650149251 
0.00000000000000001020 -0.00022255535189107760 0.72296313694383196324 
0.00000000000000000680 -0.00020954963256048406 0.71663577673880973773 
-0.00000000000000005442 -0.00019719829954493247 0.71097880800386037414 
-0.00000000000000011224 -0.00018547025198241697 0.70601397263606902044 
0.00000000000000000850 -0.00017433575829106464 0.70175669751047331513 
0.00000000000000006803 -0.00016376640229030703 0.69821639113601263738 
-0.00000000000000000680 -0.00015373503106484734 0.69539678303568364104 
0.00000000000000004422 -0.00014421570454131589 0.69329629651213264818 
-0.00000000000000012585 -0.00013518364673822668 0.69190844616243307730 
0.00000000000000003571 -0.00012661519865994343 0.69122225225422861961 
-0.00000000000000002041 -0.00011848777279027563 0.69122266484704952827 
-0.00000000000000007483 -0.00011077980915848039 0.69189099131862197289 
0.00000000000000007228 -0.00010347073293221608 0.69320532172108295654 
0.00000000000000002466 -0.00009654091350708072 0.69514094713400242931 
-0.00000000000000005102 -0.00008997162504966193 0.69767076689054041694 
-0.00000000000000011139 -0.00008374500846277912 0.70076568122290461282 
0.00000000000000015136 -0.00007784403473044340 0.70439496649849653309 
-0.00000000000000002551 -0.00007225246960690291 0.70852663079553046543 
0.00000000000000001105 -0.00006695483961499974 0.71312774809466150661 
0.00000000000000002296 -0.00006193639931475030 0.71816476984074983925 
0.00000000000000001361 -0.00005718309980484470 0.72360381305668985963 
-0.00000000000000001786 -0.00005268155842449414 0.72941092457051559528 
0.00000000000000001275 -0.00004841902961558687 0.73555232124954161854 
0.00000000000000007143 -0.00004438337691409218 0.74199460642344527983 
-0.00000000000000006803 -0.00004056304603212853 0.74870496292453925236 
-0.00000000000000001105 -0.00003694703899906394 0.75565132338091689501 
-0.00000000000000001701 -0.00003352488932680619 0.76280251856962855150 
0.00000000000000002891 -0.00003028663816686179 0.77012840477564425967 
0.00000000000000000935 -0.00002722281142562738 0.77759997121109636353 
0.00000000000000002551 -0.00002432439780649924 0.78518942863118246223 
0.00000000000000001701 -0.00002158282774832584 0.79287028032007722533 
0.00000000000000004294 -0.00001898995322889785 0.80061735996804495041 
0.00000000000000002806 -0.00001653802840313659 0.80840661889842535537 
0.00000000000000000595 -0.00001421969104713789 0.81621433077767580055 
0.00000000000000004124 -0.00001202794478067106 0.82401588209446718913 
-0.00000000000000004252 -0.00000995614203915382 0.83178448325131093544 
0.00000000000000005952 -0.00000799796776673694 0.83949002544720652264 
0.00000000000000008206 -0.00000614742380772349 0.84709821226192238974 
-0.00000000000000005144 -0.00000439881396617394 0.85457002580799990010 
0.00000000000000003911 -0.00000274672971387452 0.86186153931399078765 
-0.00000000000000001786 -0.00000118603651522753 0.86892405606621248015 
-0.00000000000000002551 -0.00000000000000004082 0.87570453479910970174 
0.00000000000000006675 0.00000000000000002721 0.88214625074329899856 
-0.00000000000000003189 -0.00000000000000004082 0.88818963714451859559 
0.00000000000000003486 -0.00000000000000004082 0.89377325223003667443 
-0.00000000000000000935 -0.00000000000000001361 0.89883481983591140274 
-0.00000000000000000744 -0.00000000000000004082 0.90331229708676730183 
-0.00000000000000002997 0.00000000000000005442 0.90714492879012875726 
0.00000000000000004422 0.00000000000000005442 0.91027425494453262367 
0.00000000000000002593 -0.00000000000000004082 0.91264504451611061508 
0.00000000000000002062 0.00000000000000004082 0.91420613510121939704 
0.00000000000000007823 -0.00000000000000014966 0.91491116405871431017 
0.00000000000000009524 -0.00000000000000005442 0.91471918204137181441 
-0.00000000000000002211 -0.00000000000000014966 0.91359514451946588487 
-0.00000000000000006356 -0.00000000000000002721 0.91151028085303476001 
-0.00000000000000003933 0.00000000000000000000 0.90844234374743992877 
0.00000000000000001934 0.00000000000000002721 0.90437574455589764266 
-0.00000000000000004422 -0.00000000000000008163 0.89930158192368758741 
-0.00000000000000000468 -0.00000000000000006803 0.89321757276090840705 
0.00000000000000003231 -0.00000000000000006803 0.88612789554727744434 
0.00000000000000000319 -0.00000000000000001361 0.87804295657741127101 
0.00000000000000002455 -0.00000000000000010884 0.86897909001057960232 
-0.00000000000000006367 -0.00000000000000004082 0.85895820255399690790 
0.00000000000000004826 0.00000000000000001361 0.84800737333786979644 
0.00000000000000000563 -0.00000000000000002721 0.83615841908323773612 
-0.00000000000000005878 -0.00000000000000006803 0.82344743406436404776 
0.00000000000000003369 0.00000000000000001361 0.80991431366497779187 
-0.00000000000000001477 0.00000000000000002721 0.79560226955575497065 
-0.00000000000000002466 -0.00000000000000006803 0.78055734370771490127 
-0.00000000000000002891 -0.00000000000000016326 0.76482792762686735433 
-0.00000000000000001945 0.00000000000000005442 0.74846429236925526851 
-0.00000000000000008588 -0.00000000000000001361 0.73151813408852206511 
-0.00000000000000005570 0.00000000000000009524 0.71404213909288749562 
-0.00000000000000000616 -0.00000000000000006803 0.69608957165448814841 
-0.00000000000000001616 0.00000000000000000000 0.67771388712843783075 
-0.00000000000000006234 -0.00000000000000014966 0.65896837230636362559 
0.00000000000000002285 0.00000000000000000000 0.63990581435242976927 
0.00000000002093760103 -0.00000000000000009524 0.62057819915023215707 
0.00000001685637612453 0.00000000000000012245 0.60103643942632445363 
0.00000033634540464778 0.00000000000000006803 0.58133013260948440681 
0.00000233428472433102 -0.00000000000000009524 0.56150734803215041069 
0.00000969893327379846 0.00000000000000000000 0.54161444277926151791 
0.00002972148175430011 0.00000000000000001361 0.52169590523693609718 
0.00007443049110409148 -0.00000000000000005442 0.50179422518573391088 
0.00016144253056435182 -0.00000000000000005442 0.48194978911708830083 
0.00031447024276968594 0.00000000000000004082 0.46220079932324525940 
0.00056347701317898942 0.00000000000000013605 0.44258321521706578405 
0.00094449930095450970 -0.00000000000000002721 0.42313071527469725552 
0.00149917746657541044 0.00000000000000002721 0.40387496609718209761 
0.00227404675184992525 -0.00000000000000004082 0.38484586038349272163 
0.00331964440246157412 -0.00000000000000002721 0.36606900533523212271 
0.00468948869844445799 -0.00000000000000008163 0.34756893409958422581 
0.00643898236037200849 -0.00000000000000004082 0.32936796019704389638 
0.00862428756110627213 -0.00000000000000008163 0.31148622893222327468 
0.01130121344454034643 0.00000000000000005442 0.29394177828666190333 
0.01452415025944749777 -0.00000000000000001361 0.27675060790002276034 
0.01834507740721063804 0.00000000000000002721 0.25992675482293753353 
0.02281266618787161984 -0.00000000000000009524 0.24348237480595980031 
0.02797149201411084848 -0.00000000000000001361 0.22742782797302307785 
0.03386136547076872005 0.00000000000000005442 0.21177176781324841270 
0.04051678689075521173 -0.00000000000000005442 0.19652123251068961962 
0.04796652511420655685 -0.00000000000000008163 0.18168173771673923333 
0.05623331778211711901 0.00000000000000005442 0.16725736995355358627 
0.06533368785179387295 -0.00000000000000006803 0.15325087991835537049 
0.07527786895847861370 0.00000000000000017687 0.13966377503722185449 
0.08606983072599838636 0.00000000000000004082 0.12649641069255143644 
0.09770739408601442078 0.00000000000000001361 0.11374807962042773890 
0.11018242603633114640 -0.00000000000000005442 0.10141709904233596473 
0.12348110299144750279 -0.00000000000000001361 0.08950089515991063727 
0.13758423189403237719 0.00000000000000004082 0.07799608470151490891 
0.15246761850960890983 0.00000000000000004082 0.06689855326538177160 
0.16810247276875023292 -0.00000000000000008163 0.05620353025581529410 
0.18445584160714367794 -0.00000000000000005442 0.04590566025653359389 
0.20149106044492753886 0.00000000000000001361 0.03599907072878137659 
0.21916821520892931785 0.00000000000000009524 0.02647743596137817554 
0.23744460760599470084 0.00000000000000012245 0.01733403723558044757 
0.25627521717828810610 -0.00000000000000002721 0.00856181919964113351 
0.27561315449229800700 -0.00000000000000005442 0.00015344247642324108 
0.29541010061620143201 0.00000000000000014966 -0.00789866744745559846 
0.31561672881251001677 0.00000000000000005442 -0.01560227498053198304 
0.33618310510488613740 0.00000000000000006803 -0.02296529274408580512 
0.35705906506258555666 -0.00000000000000004082 -0.02999574334286516861 
0.37819456477836532748 -0.00000000000000013605 -0.03670172446984304448 
0.39954000459294553016 0.00000000000000000000 -0.04309137721473688815 
0.42104652463993463840 -0.00000000000000014966 -0.04917285743708766504 
0.44266627174946826528 -0.00000000000000008163 -0.05495431005779179146 
0.46435263765771972455 0.00000000000000008163 -0.06044384611793510165 
0.48606046882476383608 0.00000000000000001361 -0.06564952245041741352 
0.50774624846751181817 0.00000000000000001361 -0.07057932380802103833 
0.52936825167055423513 -0.00000000000000001361 -0.07524114729109897259 
0.55088667464901341919 0.00000000000000008163 -0.07964278891879862654 
0.57226373940743135993 0.00000000000000005442 -0.08379193218954093803 
0.59346377517088721998 0.00000000000000005442 -0.08769613847923214689 
0.61445327806254024239 -0.00000000000000004082 -0.09136283912923458261 
0.63520095056923531196 0.00000000000000009524 -0.09479932908039098716 
0.65567772237710220118 0.00000000000000009524 -0.09801276191423113904 
0.67585675417558954692 0.00000000000000015646 -0.10101014616783522693 
0.69571342602358021701 0.00000000000000004762 -0.10379834279453956092 
0.71522530464108069470 0.00000000000000005442 -0.10638406364872111942 
0.73437193447715687356 0.00000000000000008843 -0.10877387087915425801 
0.75313408542068660534 -0.00000000000000004082 -0.11097417712187176986 
0.77149252334989038005 -0.00000000000000002721 -0.11299124638997792847 
0.78942664555694941342 -0.00000000000000002041 -0.11483119556443445453 
0.80691322932775855215 0.00000000000000000680 -0.11649999639638886073 
0.82392543950143493081 0.00000000000000016326 -0.11800347793811183372 
0.84043216684624788559 -0.00000000000000003401 -0.11934732932600181088 
0.85639771728100799741 0.00000000000000007483 -0.12053710284538514397 
0.87178183714112744696 0.00000000000000002041 -0.12157821721292857986 
0.88654003768315781109 0.00000000000000004082 -0.12247596101840267646 
0.90062416954581303585 0.00000000000000008843 -0.12323690457668422249 
0.91398319234465663641 -0.00000000000000000680 -0.12386460026264661805 
0.92656408394559297559 0.00000000000000012245 -0.12436397198113653684 
0.93831283667259846037 0.00000000000000010884 -0.12473982768336003280 
0.94917549256094091437 0.00000000000000000340 -0.12499686293286368932 
0.95909917603936600816 -0.00000000000000004762 -0.12513966439189194713 
0.96803312301208921387 0.00000000000000006462 -0.12517271320449668837 
0.97592995990984188204 0.00000000000000002041 -0.12510038825667599283 
0.98274747320441591114 -0.00000000000000004592 -0.12492696929741164968 
0.98845060592072020444 0.00000000000000012245 -0.12465663990782561987 
0.99301335413435398713 0.00000000000000002381 -0.12429349030874026205 
0.99642035577340126729 0.00000000000000014115 -0.12384151999974679637 
0.99866805838276284657 -0.00000000000000011224 -0.12330464022543520530 
0.99976542025899506339 -0.00000000000000005867 -0.12268667626676328652 
0.99973414649556946454 0.00000000000000001275 -0.12199136955760729595 
0.99860849279982966120 0.00000000000000003231 -0.12122237962839689518 
0.99643468930155754126 0.00000000000000004719 -0.12038299774111251017 
0.99327004702971732897 0.00000000000000020195 -0.11947590877255720443 
0.98918181370597102475 0.00000000000000012457 -0.11850571818451299810 
0.98424584488452016018 0.00000000000000012510 -0.11747576985999809429 
0.97854515272650854918 0.00000000000000010788 -0.11638933328648383425 
0.97216838895981860791 -0.00000000000000002849 -0.11524960456897659355 
0.96520831169283649587 0.00000000000000016326 -0.11405970731882135449 
0.95776027835565769042 -0.00000000000000003359 -0.11282269342800287093 
0.94992079959265784961 -0.00000000000000008503 -0.11154154373899705099 
0.94178618174844253019 -0.00000000000000003826 -0.11021916862041211682 
0.93345127889101742191 0.00000000000000000255 -0.10885840845871555538 
0.92500836923616136520 0.00000000000000011479 -0.10746203407631957361 
0.91654616544836664538 0.00000000000000002976 -0.10603274708617248245 
0.90814896362324859513 0.00000000000000011819 -0.10457318019281880428 
0.89989593179766502740 0.00000000000000005782 -0.10308589744961380030 
0.89186053555705258056 0.00000000000000003911 -0.10157339448146877892 
0.88411009566910980784 -0.00000000000000003401 -0.10003809868211652190 
0.87670547061361903118 0.00000000000000009864 -0.09848236939447650717 
0.86970085533938168432 0.00000000000000009013 -0.09690849808223794826 
0.86314368649862249772 0.00000000000000012075 -0.09531870850029808273 
0.85707464372517905282 0.00000000000000003231 -0.09371515687118586735 
0.85152773617618970903 -0.00000000000000003571 -0.09209993207406963478 
0.84653046349230176570 0.00000000000000001361 -0.09047505585242301973 
0.84210404049759379763 0.00000000000000005442 -0.08884248304586710165 
0.83826367531116485754 -0.00000000000000011734 -0.08720410185117141721 
0.83501889103644011403 0.00000000000000012245 -0.08556173411685041863 
0.83237388179537907806 0.00000000000000009524 -0.08391713567525259376 
0.83032789455143585222 0.00000000000000015476 -0.08227199671551961579 
0.82887562889034882563 -0.00000000000000003571 -0.08062794220026871239 
0.82800764767885137729 0.00000000000000005272 -0.07898653232836161386 
0.82771079227931043665 0.00000000000000004762 -0.07734926304563170818 
0.82796859674765221904 -0.00000000000000004082 -0.07571756660498885072 
0.82876169617042805271 -0.00000000000000005272 -0.07409281217686808363 
0.83006822499487520339 0.00000000000000006973 -0.07247630651057916651 
0.83186420186616805150 0.00000000000000002891 -0.07086929464671262724 
0.83412389810352083330 -0.00000000000000001190 -0.06927296068038782395 
0.83682018751803277645 0.00000000000000003401 -0.06768842857478266084 
0.83992487579819496979 -0.00000000000000005782 -0.06611676302406301053 
0.84340900816307695642 0.00000000000000010374 -0.06455897036453429882 
0.84724315440869435445 0.00000000000000000340 -0.06301599953256820097 
0.85139767085095652277 0.00000000000000007313 -0.06148874306761084596 
0.85584293900063246330 0.00000000000000004592 -0.05997803815836259128 
0.86054958109413282052 0.00000000000000003231 -0.05848466773001928520 
0.86548865285107490219 0.00000000000000012245 -0.05700936157029894147 
0.87063181403836509276 -0.00000000000000005272 -0.05555279749182561594 
0.87595147759377156582 0.00000000000000002041 -0.05411560252831964374 
0.88142093820264821868 0.00000000000000014796 -0.05269835416193565519 
0.88701448133256421968 -0.00000000000000007993 -0.05130158157901450883 
0.89270747381502812967 -0.00000000000000005102 -0.04992576695144058246 
0.89847643710315205912 0.00000000000000008673 -0.04857134674076234171 
0.90429908768471001235 0.00000000000000004762 -0.04723871302219972979 
0.91015412707034770712 0.00000000000000008333 -0.04592821482565598995 
0.91602044945402327780 -0.00000000000000008843 -0.04464015949085238522 
0.92187593529836842077 -0.00000000000000009013 -0.04337481403373117522 
0.92769616565787305085 0.00000000000000000340 -0.04213240652129540686 
0.93345328239047820063 -0.00000000000000012245 -0.04091312745210961416 
0.93911512314285128245 -0.00000000000000005442 -0.03971713113973385917 
0.94464469095256287101 0.00000000000000007143 -0.03854453709643558545 
0.94999997031014848936 -0.00000000000000002381 -0.03739543141459576725 
0.95513406959004110153 0.00000000000000005442 -0.03626986814331446818 
0.95999564992426100751 -0.00000000000000003911 -0.03516787065780422467 
0.96452958971369084917 0.00000000000000002551 -0.03409084132273858259 
0.96867782957775117048 0.00000000000000007313 -0.03303725956709018668 
0.97238034270831696926 0.00000000000000002891 -0.03200706906245723987 
0.97557617883211511511 -0.00000000000000003911 -0.03100018795111787392 
0.97820453516556982176 0.00000000000000006803 -0.03001651015735960076 
0.98020581481354984721 0.00000000000000013435 -0.02905590667887865408 
0.98152270127041085779 0.00000000000000010544 -0.02811822685663042942 
0.98210155758401984638 0.00000000000000002041 -0.02720329962161633156 
0.98189429351079826613 -0.00000000000000003061 -0.02631093471722351779 
0.98086038362077809794 0.00000000000000011224 -0.02544092389583720026 
0.97896873250442539849 -0.00000000000000002891 -0.02459304208857401169 
0.97619920088066192143 0.00000000000000001190 -0.02376704854708586862 
0.97254369488418812573 0.00000000000000003061 -0.02296268795651106032 
0.96800678399637851701 -0.00000000000000006632 -0.02217969151874655057 
0.96260585669916587381 0.00000000000000004592 -0.02141777800533294779 
0.95637085157559564852 -0.00000000000000001190 -0.02067665477934250290 
0.94934361893177388048 0.00000000000000011394 -0.01995544578220864729 
0.94157697699432629790 0.00000000000000016326 -0.01925360806735622321 
0.93313352964902607223 -0.00000000000000000340 -0.01857170067549091669 
0.92408431133129220747 -0.00000000000000018707 -0.01790939079915656457 
0.91450732045208749099 0.00000000000000009439 -0.01726633906464988821 
0.90448599670963414354 0.00000000000000013350 -0.01664220035032449446 
0.89410769060163886035 0.00000000000000008673 -0.01603662457276627470 
0.88346216600839633237 -0.00000000000000007738 -0.01544925744092886209 
0.87264016929261611910 0.00000000000000002211 -0.01487974117838331868 
0.86173209125585825685 -0.00000000000000002466 -0.01432771521390588387 
0.85082674170206429309 0.00000000000000000170 -0.01379281684069348819 
0.84001025040668930721 0.00000000000000006292 -0.01327468184454914588 
0.82936510303798138821 0.00000000000000004762 -0.01277294510143867946 
0.81896931604438649721 -0.00000000000000001616 -0.01228724114486957550 
0.80889575069713193223 0.00000000000000014030 -0.01181720470358765471 
0.79921156332620224561 -0.00000000000000008418 -0.01136247121013010675 
0.78997778626323966744 -0.00000000000000006207 -0.01092267728081409116 
0.78124903204970330695 0.00000000000000001871 -0.01049746116777010296 
0.77307331202179818685 -0.00000000000000003146 -0.01008646318366455963 
0.76549195938288372432 -0.00000000000000004592 -0.00968932609978340013 
0.75853964625805569977 -0.00000000000000000255 -0.00930569551816622965 
0.75224448393585885420 0.00000000000000011479 -0.00893522021851114387 
0.74662819548395997771 0.00000000000000007483 -0.00857755248057947249 
0.74170635012896668492 0.00000000000000001871 -0.00823234838284783374 
0.73748864917013023934 -0.00000000000000005782 -0.00789926807816666680 
0.73397925371217465074 0.00000000000000013265 -0.00757797604719229450 
0.73117714511861264803 0.00000000000000006292 -0.00726814133036548290 
0.72907650977304772066 -0.00000000000000007865 -0.00696943773921417879 
0.72766714046602165578 -0.00000000000000002253 -0.00668154404775989259 
0.72693484747697578729 0.00000000000000001956 -0.00640414416480503904 
0.72686187317663542018 0.00000000000000006165 -0.00613692728787660745 
0.72742730471985639351 -0.00000000000000008588 -0.00587958803959853608 
0.72860748012085507774 -0.00000000000000005740 -0.00563182658725433060 
0.73037638369274793249 -0.00000000000000003019 -0.00539334874629940775 
0.73270602748461211018 -0.00000000000000002891 -0.00516386606856912740 
0.73556681595706630006 -0.00000000000000006590 -0.00494309591591804345 
0.73892789169855954690 0.00000000000000004464 -0.00473076152001348019 
0.74275746049744673094 -0.00000000000000001956 -0.00452659202899901702 
0.74702309454901272279 0.00000000000000001786 -0.00433032254171840814 
0.75169201299232790703 -0.00000000000000004039 -0.00414169413018566392 
0.75673133934036485027 -0.00000000000000011012 -0.00396045385096467986 
0.76210833569000069332 -0.00000000000000004209 -0.00378635474610912286 
0.76779061387857905352 -0.00000000000000002721 -0.00361915583429281342 
0.77374632399321063847 -0.00000000000000012882 -0.00345862209274674622 
0.77994432084070364208 0.00000000000000016496 -0.00330452443059363159 
0.78635430915286641529 0.00000000000000002742 -0.00315663965416523862 
0.79294696843685053000 0.00000000000000002147 -0.00301475042485374774 
0.79969405848618624333 -0.00000000000000006186 -0.00287864521004073219 
0.80656850664807089313 0.00000000000000004485 -0.00274811822762293517 
0.81354447782717953519 0.00000000000000001339 -0.00262296938463774934 
0.82059739433359868421 0.00000000000000001934 -0.00250300421046828481 
0.82770362487837656484 -0.00000000000000010268 -0.00238803378509371564 
0.83483958163543581232 0.00000000000000007164 -0.00227787466282706845 
0.84198047431427558429 0.00000000000000005697 -0.00217234879196761925 
0.84909903918818507851 0.00000000000000001764 -0.00207128343077360444 
0.85616444646393219386 0.00000000000000004507 -0.00197451106014330871 
0.86314149910509019303 0.00000000000000005718 -0.00188186929337591166 
0.86999017184153271121 0.00000000000000011586 -0.00179320078336442888 
0.87666549467400511908 0.00000000000000001786 -0.00170835312755393065 
0.88311775595754027357 -0.00000000000000010905 -0.00162717877098512227 
0.88929298233198661450 -0.00000000000000005336 -0.00154982304696839909 
0.89513364336489342765 -0.00000000000000007196 -0.00147696380372201600 
0.90057952542882691027 0.00000000000000005506 -0.00140728578480753784 
0.90556872022172729686 -0.00000000000000006675 -0.00134066399163956752 
0.91003867704652485759 0.00000000000000003369 -0.00127697755553857618 
0.91392727342474988639 0.00000000000000006101 -0.00121610964546201646 
0.91717386768988218293 0.00000000000000002583 -0.00115794737513014450 
0.91972040455217662913 -0.00000000000000005761 -0.00110238170975875496 
0.92151291574563787279 0.00000000000000008631 -0.00104930737260112766 
0.92250344646902593393 0.00000000000000003029 -0.00099862275148728278 
0.92265206208908689955 0.00000000000000003252 -0.00095022980553292511 
0.92192865613379604284 0.00000000000000003157 -0.00090403397218322948 
0.92031439341502518925 0.00000000000000003327 -0.00085994407474002566 
0.91780270502121119591 -0.00000000000000005655 -0.00081787223051252962 
0.91439981077399490328 0.00000000000000001924 -0.00077773375971843201 
0.91012478502805504998 -0.00000000000000005559 -0.00073944709525470523 
0.90500920781123606051 0.00000000000000005235 -0.00070293369344490337 
0.89909645876674315623 0.00000000000000006399 -0.00066811794586050469 
0.89244071895833809727 0.00000000000000009093 -0.00063379404191906807 
0.88510574752792547937 -0.00000000000000004193 -0.00060081281524373075 
0.87716349816551575369 0.00000000000000001924 -0.00056939414415530139 
0.86869263568717491886 -0.00000000000000004655 -0.00053946926995733567 
0.85977700672602919152 0.00000000000000006473 -0.00051097215509377338 
0.85050411138228798613 0.00000000000000002753 -0.00048383939286601550 
0.84096361520816176327 0.00000000000000008386 -0.00045801011914415365 
0.83124593352240161437 0.00000000000000003981 -0.00043342592608525398 
0.82144091303338451215 0.00000000000000004443 -0.00041003077787415726 
0.81163662928012925146 0.00000000000000004052 -0.00038777092849419631 
0.80191831258511769853 0.00000000000000002110 -0.00036659484153341368 
0.79236741010422229170 0.00000000000000015771 -0.00034645311202557652 
0.78306078716965743514 0.00000000000000002277 -0.00032729839032004864 
0.77407006743488471212 0.00000000000000011631 -0.00030908530797468933 
0.76546110830886315846 -0.00000000000000001730 -0.00029177040565899653 
0.75729360576086679480 0.00000000000000000877 -0.00027531206305511061 
0.74962082072840197089 0.00000000000000005067 -0.00025967043073584883 
0.74248941800800560831 -0.00000000000000000441 -0.00024480736400414929 
0.73593940758954412562 0.00000000000000010076 -0.00023068635866813173 
0.73000417784833659951 0.00000000000000010485 -0.00021727248872918463 
0.72471060977809498294 0.00000000000000002487 -0.00020453234595654152 
0.72007926147758827273 -0.00000000000000007107 -0.00019243398131850204 
0.71612461234584912084 0.00000000000000010976 -0.00018094684824375299 
0.71285535685043455167 0.00000000000000007276 -0.00017004174767827458 
0.71027473827140741314 0.00000000000000002261 -0.00015969077490696369 
0.70838091345601672533 0.00000000000000009412 -0.00014986726810772532 
0.70716734031579531194 0.00000000000000001986 -0.00014054575860117591 
0.70662318053376649285 0.00000000000000001240 -0.00013170192276244403 
0.70673371070342649869 0.00000000000000005781 -0.00012331253555934512 
0.70748073587567927856 -0.00000000000000000898 -0.00011535542567985649 
0.70884300023079915842 0.00000000000000009307 -0.00010780943221299175 
0.71079659030855923962 0.00000000000000006748 -0.00010065436284390733 
0.71331532691228594079 0.00000000000000008992 -0.00009387095353155743 
0.71637114244542843267 -0.00000000000000007811 -0.00008744082962324361 
0.71993444103779291598 0.00000000000000011485 -0.00008134646837653500 
0.72397443937014782644 0.00000000000000009098 -0.00007557116284600141 
0.72845948660893922177 0.00000000000000012478 -0.00007009898710260674 
0.73335736231714376832 -0.00000000000000003833 -0.00006491476274152961 
0.73863555161337079991 0.00000000000000007822 -0.00006000402665015627 
0.74426149721058287856 0.00000000000000009793 -0.00005535299999317474 
0.75020282828010020904 0.00000000000000007397 -0.00005094855838351993 
0.75642756635824404121 0.00000000000000016133 -0.00004677820320016513 
0.76290430874461112598 -0.00000000000000000688 -0.00004283003401914411 
0.76960239003544916869 0.00000000000000015478 -0.00003909272212465768 
0.77649202259577121410 0.00000000000000001460 -0.00003555548506297320 
0.78354441690271170451 0.00000000000000009166 -0.00003220806220873191 
0.79073188279312756066 0.00000000000000005915 -0.00002904069130878731 
0.79802791272345541262 -0.00000000000000004297 -0.00002604408597235787 
0.80540724740634173084 0.00000000000000014778 -0.00002320941407556381 
0.81284586275228465357 0.00000000000000007005 -0.00002052827704886280 
0.82032054391351993949 0.00000000000000005769 -0.00001799269001838928 
0.82780788392346982274 0.00000000000000004287 -0.00001559506276995828 
0.83528301074758382061 0.00000000000000009128 -0.00001332818150828239 
0.84271833869092627189 -0.00000000000000001556 -0.00001118519138140448 
0.85008252709085474486 0.00000000000000008037 -0.00000915957974538421 
0.85733974466760776156 0.00000000000000012225 -0.00000724516013977957 
0.86444927795109482993 0.00000000000000012644 -0.00000543605694841348 
0.87136548116506262751 -0.00000000000000001080 -0.00000372669072267061 
0.87803803828200333026 -0.00000000000000000567 -0.00000211176413809461 
0.88441249204638816561 0.00000000000000006180 -0.00000058624856288697 
0.89043098674263010395 0.00000000000000005894 0.00000000000000005144 
0.89603316911854868909 0.00000000000000000371 0.00000000000000006292 
0.90115719342662792268 0.00000000000000010143 0.00000000000000005527 
0.90574078067924590485 0.00000000000000009475 0.00000000000000000808 
0.90972228791912312929 0.00000000000000003557 0.00000000000000001679 
0.91304174982912433833 0.00000000000000004596 0.00000000000000007802 
0.91564186179683992872 0.00000000000000007100 -0.00000000000000006781 
0.91746888021985151251 -0.00000000000000001044 0.00000000000000005697 
0.91847342212240301595 0.00000000000000004174 0.00000000000000006973 
0.91861115188420883193 0.00000000000000001021 0.00000000000000002508 
0.91784334796069688700 0.00000000000000006228 0.00000000000000002381 
0.91613734685839520733 0.00000000000000009477 0.00000000000000008397 
0.91346686531608844994 -0.00000000000000004528 0.00000000000000008843 
0.90981220465614853765 0.00000000000000009071 0.00000000000000003444 
0.90516034365415187768 -0.00000000000000003814 -0.00000000000000006377 
0.89950492808342430440 0.00000000000000009903 0.00000000000000000085 
0.89284616638579605841 0.00000000000000007769 0.00000000000000003082 
0.88519064176448525316 0.00000000000000007200 -0.00000000000000007525 
0.87655105145315048709 0.00000000000000005669 0.00000000000000002487 
0.86694588404784167501 0.00000000000000002713 0.00000000000000002764 
0.85639904565313096363 0.00000000000000013063 0.00000000000000008854 
0.84493944524275099717 0.00000000000000005428 0.00000000000000006930 
0.83260054911605452244 0.00000000000000007045 -0.00000000000000001488 
0.81941991368667776996 0.00000000000000006385 0.00000000000000011352 
0.80543870510574855359 0.00000000000000003151 0.00000000000000000723 
0.79070121343047017337 -0.00000000000000000983 -0.00000000000000003231 
0.77525436822682336491 0.00000000000000003830 0.00000000000000003965 
0.75914726166473200930 0.00000000000000002470 0.00000000000000003954 
0.74243068434365921959 0.00000000000000000976 -0.00000000000000007536 
0.72515667829078955808 0.00000000000000009267 0.00000000000000008386 
0.70737811081404333713 -0.00000000000000006426 -0.00000000000000004964 
0.68914827217669771819 -0.00000000000000000511 0.00000000000000000351 
0.67052049939529534406 0.00000000000000007869 -0.00000000000000005538 
0.65154782785184650606 0.00000000000000010128 0.00000000000000007217 
0.63228267185712094811 0.00000000000000002496 -0.00000000000000001525 
0.61277653480485716475 -0.00000000000000004986 0.00000000266192931075 
0.59307974911645766625 0.00000000000000007284 0.00000012186810272111 
0.57324124579071011887 -0.00000000000000001824 0.00000116481041909210 
0.55330835304113035189 0.00000000000000001756 0.00000573746754646866 
0.53332662322183721493 0.00000000000000007113 0.00001954123295113825 
0.51333968700833909615 0.00000000000000003804 0.00005258980245993495 
0.49338913360874808722 0.00000000000000000486 0.00012018371711934452 
0.47351441563020252312 0.00000000000000003281 0.00024355903306667637 
0.45375277711097472544 0.00000000000000003851 0.00045018229811900077 
0.43413920314725917837 -0.00000000000000002290 0.00077370179440718208 
0.41470638949140065099 0.00000000000000006878 0.00125358920549776707 
0.39548473047187754359 -0.00000000000000013178 0.00193451993878603935 
0.37650317821022916132 0.00000000000000009719 0.00286554700361013950 
0.35778720449243883728 0.00000000000000005560 0.00409912474357700552 
0.33935980346715660660 -0.00000000000000000316 0.00569003649916157220 
0.32124235604144091294 -0.00000000000000003252 0.00769427569844928841 
0.30345409890942137698 0.00000000000000000848 0.01016792389521804264 
0.28601218875299844191 0.00000000000000005238 0.01316606260339396248 
0.26893177400276024880 0.00000000000000002962 0.01674174892971255074 
0.25222607287456116909 0.00000000000000009773 0.02094507834420806375 
0.23590645647958782827 0.00000000000000015811 0.02582235169467432187 
0.21998253589035252076 0.00000000000000004212 0.03141535791961796303 
0.20446225213066801518 -0.00000000000000001058 0.03776077892906395950 
0.18935196814321988978 0.00000000000000001602 0.04488971883766575827 
0.17465656187291356272 0.00000000000000009184 0.05282735614694494819 
0.16037951968698502259 -0.00000000000000002587 0.06159271455436419324 
0.14652302943329303941 0.00000000000000003804 0.07119854577033649101 
0.13308807251569362839 -0.00000000000000005385 0.08165131599365553494 
0.12007451443958687409 0.00000000000000002086 0.09295128646895821356 
0.10748119335122038875 0.00000000000000001898 0.10509267776267436356 
0.09530600616098471034 -0.00000000000000003202 0.11806390698320719246 
0.08354599190350045501 0.00000000000000007257 0.13184788707629702120 
0.07219741204574735283 -0.00000000000000005717 0.14642237749113731771 
0.06125582750874042359 -0.00000000000000002109 0.16176037588508829224 
0.05071617221834286149 0.00000000000000000282 0.17783054106825862961 
0.04057282304677036627 0.00000000000000005209 0.19459763804261839826 
0.03081966604827171205 -0.00000000000000009802 0.21202299672779448270 
0.02145015893046954558 0.00000000000000003741 0.23006497675648354684 
0.01245738973706943427 0.00000000000000003904 0.24867943154047764120 
0.00383413174822447907 0.00000000000000000214 0.26782016563202887260 
-0.00442710536802636348 -0.00000000000000004975 0.28743938021707343689 
-0.01233402809599503172 0.00000000000000004760 0.30748810236269175089 
-0.01989451522625817689 -0.00000000000000002849 0.32791659439025083733 
-0.02711657752741625238 -0.00000000000000006253 0.34867474044989871240 
-0.03400832082474030543 0.00000000000000008905 0.36971240802578370088 
-0.04057791236215523706 -0.00000000000000000736 0.39097978270092115238 
-0.04683355031373194477 -0.00000000000000005008 0.41242767505408933770 
-0.05278343630274748288 0.00000000000000010490 0.43400779904800063091 
-0.05843575078020514513 -0.00000000000000008404 0.45567302169888818097 
-0.06379863111034457523 -0.00000000000000006496 0.47737758419414777489 
-0.06888015220791199322 -0.00000000000000005602 0.49907729494900671119 
-0.07368830957067475096 0.00000000000000002362 0.52072969536817803604 
-0.07823100455066542280 0.00000000000000003600 0.54229419930725542009 
-0.08251603170880918159 -0.00000000000000006020 0.56373220741464236117 
-0.08655106809976644000 -0.00000000000000008258 0.58500719768163933487 
-0.09034366433689514087 0.00000000000000009344 0.60608479363955325425 
-0.09390123729107172079 -0.00000000000000016694 0.62693281172193260353 
-0.09723106428159729309 -0.00000000000000001449 0.64752128936078767740 
-0.10034027862245205320 -0.00000000000000002877 0.66782249541127358672 
-0.10323586639264975551 0.00000000000000000537 0.68781092450308323194 
-0.10592466430528300891 -0.00000000000000012753 0.70746327610585679757 
-0.10841335855598646654 -0.00000000000000000026 0.72675835759625850852 
-0.11070848453785982202 -0.00000000000000015103 0.74567657742408377519 
-0.11281642731636752630 -0.00000000000000003864 0.76419886611575338353 
-0.11474342276426403864 -0.00000000000000009230 0.78230532912514771926 
-0.11649555926314804355 -0.00000000000000004246 0.79997392762447971926 
-0.11807877988477981368 -0.00000000000000009536 0.81717937026816833690 
-0.11949888497174580848 -0.00000000000000005929 0.83389231436836375178 
-0.12076153504338982270 -0.00000000000000001726 0.85007891493130671723 
-0.12187225395913238446 -0.00000000000000007905 0.86570071893525746276 
-0.12283643227731154413 -0.00000000000000005187 0.88071487553515759306 
-0.12365933075350317438 -0.00000000000000006775 0.89507461693888490384 
-0.12434665693144035525 -0.00000000000000010817 0.90872995665746814087 
-0.12490365319918653175 -0.00000000000000007440 0.92162854944757632847 
-0.12533433247543770972 -0.00000000000000022563 0.93371665880047516328 
-0.12564347654302376878 -0.00000000000000000483 0.94494018195243534297 
-0.12583575517087555729 -0.00000000000000003201 0.95524568808593535163 
-0.12591572957919211495 0.00000000000000002399 0.96458143270115104251 
-0.12588785579420810889 -0.00000000000000005860 0.97289837939054002458 
-0.12575648787421478403 -0.00000000000000002927 0.98015154006082971794 
-0.12552588099198450089 -0.00000000000000005352 0.98630177923196060696 
-0.12520019436198415175 -0.00000000000000004757 0.99131776743504784744 
-0.12478349400372758249 -0.00000000000000007515 0.99517778165581050054 
-0.12427975533533421049 0.00000000000000000646 0.99787116813877374533 
-0.12369286559381681423 -0.00000000000000005610 0.99939937107098786306 
-0.12302662608084284634 -0.00000000000000005452 0.99977649358827447301 
-0.12228475423470172578 -0.00000000000000016616 0.99902940092002068262 
-0.12147088553097123986 -0.00000000000000004899 0.99719740391429401161 
-0.12058857521592718232 0.00000000000000003255 0.99433157834318275370 
-0.11964016682770514666 -0.00000000000000009709 0.99049378420081501950 
-0.11862998054466566966 0.00000000000000000230 0.98575545197676706088 
-0.11756162693879447512 -0.00000000000000005648 0.98019620141569796523 
-0.11643835050606765602 0.00000000000000005093 0.97390235395248447858 
-0.11526332210478977547 -0.00000000000000001160 0.96696539390527125324 
-0.11403963982304272939 -0.00000000000000004870 0.95948042641777120387 
-0.11277032973548903327 -0.00000000000000003322 0.95154467265868492021 
-0.11145834655962073845 -0.00000000000000009168 0.94325603533653701316 
-0.11010657422167606512 -0.00000000000000016808 0.93471176046917547886 
-0.10871782634247523225 -0.00000000000000008411 0.92600721475476266420 
-0.10729484665336781746 -0.00000000000000000624 0.91723479194437229634 
-0.10584030935232929815 -0.00000000000000014423 0.90848295637625109400 
-0.10435681941003523143 0.00000000000000000129 0.89983542731639043488 
-0.10284691283544483698 -0.00000000000000011455 0.89137050394619965488 
-0.10131305691009104275 -0.00000000000000008658 0.88316052771117670162 
-0.09975765039988364336 -0.00000000000000006410 0.87527147624559120676 
-0.09818302375279520933 -0.00000000000000010204 0.86776268115990784491 
-0.09659143929034075260 -0.00000000000000004211 0.86068666055814335714 
-0.09498509140026846487 -0.00000000000000009093 0.85408905617869868010 
-0.09336610673736367438 -0.00000000000000008846 0.84800866446273615029 
-0.09173654443874379449 -0.00000000000000008122 0.84247755059002049638 
-0.09009839635948450887 -0.00000000000000009484 0.83752123452836613193 
-0.08845358733387130579 -0.00000000000000004054 0.83315893836912080506 
-0.08680397546703554068 -0.00000000000000015618 0.82940388462201186659 
-0.08515135246118843426 -0.00000000000000011986 0.82626363567790928055 
-0.08349744398013785041 -0.00000000000000016701 0.82374046528214905916 
-0.08184391005525458451 -0.00000000000000014271 0.82183175356352422547 
-0.08019234553554445422 -0.00000000000000008650 0.82053039790870896386 
-0.07854428058398933710 -0.00000000000000004353 0.81982523273687601950 
-0.07690118122185497784 -0.00000000000000009566 0.81970145199641852862 
-0.07526444992220168717 -0.00000000000000000690 0.82014102896031004786 
-0.07363542625340728509 -0.00000000000000007733 0.82112312862705649774 
-0.07201538757310252392 -0.00000000000000012770 0.82262450873135739560 
-0.07040554977253007940 0.00000000000000003430 0.82461990602587942334 
-0.06880706807098727062 -0.00000000000000007364 0.82708240510818387126 
-0.06722103785966426770 -0.00000000000000013394 0.82998378763189251117 
-0.06564849559388967470 -0.00000000000000000938 0.83329486025698862317 
-0.06409041973250761970 -0.00000000000000002747 0.83698576016034409442 
-0.06254773172284829041 -0.00000000000000015885 0.84102623734464698746 
-0.06102129702952448914 -0.00000000000000001595 0.84538591335318813424 
-0.05951192620507357589 -0.00000000000000009072 0.85003451632130133664 
-0.05802037600027964981 -0.00000000000000004665 0.85494209257498643417 
-0.05654735051185296596 -0.00000000000000009898 0.86007919522598041961 
-0.05509350236499848535 -0.00000000000000012628 0.86541705041316585589 
-0.05365943392829390646 -0.00000000000000002180 0.87092770200563696115 
-0.05224569855820265091 -0.00000000000000002169 0.87658413571603910341 
-0.05085280187046640338 -0.00000000000000005190 0.88236038367693858664 
-0.04948120303557356631 -0.00000000000000006592 0.88823161061090727397 
-0.04813131609545898831 -0.00000000000000003866 0.89417418260761794002 
-0.04680351129856660103 0.00000000000000000073 0.90016568564641630257 
-0.04549811645041240693 -0.00000000000000012288 0.90618461319650778218 
-0.04421541827678498321 -0.00000000000000005708 0.91220946183993045775 
-0.04295566379675337665 -0.00000000000000009514 0.91821748388593726897 
-0.04171906170268788877 -0.00000000000000003726 0.92418341494351596843 
-0.04050578374454739256 -0.00000000000000008550 0.93007837985786112611 
-0.03931596611575100680 -0.00000000000000002719 0.93586909014071695267 
-0.03814971083801731860 -0.00000000000000003452 0.94151738164285869725 
-0.03700708714263676452 -0.00000000000000008512 0.94698009679140204842 
-0.03588813284572925366 -0.00000000000000004350 0.95220928648764746605 
-0.03479285571512942543 -0.00000000000000002366 0.95715268894387350862 
-0.03372208945542785191 -0.00000000000000001349 0.96175443333283516800 
-0.03267543730463966928 -0.00000000000000007103 0.96595591277895298532 
-0.03165224301892888281 -0.00000000000000010035 0.96969677210525928590 
-0.03065241167439033271 -0.00000000000000003531 0.97291595945641073939 
-0.02967582472251437814 -0.00000000000000004186 0.97555279637596914455 
-0.02872234127345156540 0.00000000000000004129 0.97754803453237848476 
-0.02779179935694958345 0.00000000000000004205 0.97884502353635638450 
-0.02688401715950962043 -0.00000000000000011227 0.97939133294566349530 
-0.02599879423643120663 0.00000000000000000717 0.97914074454182165042 
-0.02513591269752578350 -0.00000000000000005111 0.97805526090563299491 
-0.02429513836539766089 -0.00000000000000021176 0.97610687521423900037 
-0.02347622190530447572 -0.00000000000000002305 0.97327895408401721156 
-0.02267889992571682153 -0.00000000000000004068 0.96956716301543999226 
-0.02190289604881134888 -0.00000000000000003990 0.96497991886621004021 
-0.02114792195023451615 -0.00000000000000005893 0.95953839103112370523 
-0.02041367836757888854 -0.00000000000000005568 0.95327609684855107997 
-0.01969985607711206843 -0.00000000000000001370 0.94623815054014237536 
-0.01900472853492912381 0.00000000000000004477 0.93848023138135772125 
-0.01832945606250999462 -0.00000000000000008981 0.93006733788613948910 
-0.01767370088241075957 0.00000000000000002625 0.92107239219811876119 
-0.01703711905576071189 -0.00000000000000005902 0.91157475386850428389 
-0.01641936128613447413 -0.00000000000000003492 0.90165869572212553607 
-0.01582007369130305693 -0.00000000000000005027 0.89141188728288756060 
-0.01523889854298438561 0.00000000000000000650 0.88092392377211703458 
-0.01467547497477873254 0.00000000000000000303 0.87028493138173756982 
-0.01412943965854513394 -0.00000000000000006177 0.85958427261510117479 
-0.01360042744953178506 0.00000000000000000021 0.84890936914729886453 
-0.01308807200063171437 -0.00000000000000001553 0.83834465398010582504 
-0.01259200634618909929 0.00000000000000003572 0.82797065969899874549 
-0.01211186345582518885 -0.00000000000000006170 0.81786324538713417454 
-0.01164727675880236971 -0.00000000000000006716 0.80809296119301465833 
-0.01119788063948589860 0.00000000000000000891 0.79872454664520053935 
-0.01076331090449172273 -0.00000000000000004038 0.78981655650731819041 
-0.01034320522215218148 0.00000000000000005487 0.78142110621122562453 
-0.00993720353495240218 -0.00000000000000001619 0.77358372763397043048 
-0.00954494844562226233 0.00000000000000004981 0.76634332513316660851 
-0.00916608557758518891 -0.00000000000000002362 0.75973222126561135159 
-0.00880026391048946248 0.00000000000000003565 0.75377628142839203651 
-0.00844713609156245819 -0.00000000000000000733 0.74849510672765262598 
-0.00810635872353787645 -0.00000000000000007062 0.74390228464947227849 
-0.00777759262992225309 0.00000000000000007710 0.74000568753673257039 
-0.00746050309837082912 0.00000000000000000609 0.73680780942722345905 
-0.00715476010294585282 -0.00000000000000006029 0.73430613244814357810 
-0.00686003850604333283 0.00000000000000001915 0.73249351466184364767 
-0.00657601824075865551 -0.00000000000000001368 0.73135859199274777520 
-0.00630238447447524670 0.00000000000000007308 0.73088618761537726964 
-0.00603882775444872753 -0.00000000000000001233 0.73105772293154125396 
-0.00578504413615356372 0.00000000000000002185 0.73185162499742051345 
-0.00554073529515559070 0.00000000000000006440 0.73324372596779519018 
-0.00530560862326367056 0.00000000000000015554 0.73520765079687078192 
-0.00507937730970109587 0.00000000000000003336 0.73771519006701036236 
-0.00486176040803132890 0.00000000000000009139 0.74073665540410138508 
-0.00465248288955346766 -0.00000000000000000957 0.74424121547868249404 
-0.00445127568387552932 0.00000000000000004903 0.74819721108411030297 
-0.00425787570735491373 -0.00000000000000006467 0.75257244822681690355 
-0.00407202588007896365 0.00000000000000002534 0.75733446855980279810 
-0.00389347513204932457 -0.00000000000000001982 0.76245079684037508905 
-0.00372197839920599674 -0.00000000000000000135 0.76788916539870510913 
-0.00355729660992060897 -0.00000000000000003094 0.77361771586742034135 
-0.00339919666256119270 -0.00000000000000001750 0.77960517864677203459 
-0.00324745139471970803 -0.00000000000000000439 0.78582103076777831685 
-0.00310183954466979007 0.00000000000000004680 0.79223563296999433003 
-0.00296214570560562451 0.00000000000000009154 0.79882034693421444249 
-0.00282816027319454698 -0.00000000000000008195 0.80554763370631521369 
-0.00269967938695402391 -0.00000000000000001380 0.81239113441950816519 
-0.00257650486594855708 0.00000000000000000753 0.81932573180926582257 
-0.00245844413927758009 0.00000000000000002485 0.82632749047193754244 
-0.00234531017181245898 -0.00000000000000001514 0.83337310943083975356 
-0.00223692138561706628 -0.00000000000000000684 0.84043883834823684964 
-0.00213310157746914031 0.00000000000000014842 0.84749919080109303859 
-0.00203367983288237466 -0.00000000000000001943 0.85452572666710591154 
-0.00193849043700868224 0.00000000000000005740 0.86148606734612087621 
-0.00184737278278360889 0.00000000000000006864 0.86834322842456257430 
-0.00176017127666058576 0.00000000000000010020 0.87505529863531528179 
-0.00167673524225824162 -0.00000000000000006488 0.88157545613427823472 
-0.00159691882223689436 -0.00000000000000003632 0.88785228886090306055 
-0.00152058087869256522 -0.00000000000000011842 0.89383037162071510284 
-0.00144871794273654028 0.00000000000000002376 0.89945104579989798577 
-0.00138027718061804793 0.00000000000000001142 0.90465334616524428757 
-0.00131484380633648066 -0.00000000000000008169 0.90937502136664694063 
-0.00125229857737796878 0.00000000000000001168 0.91355359927968549094 
-0.00119252625177701499 0.00000000000000008997 0.91712745424860109278 
-0.00113541549505894986 -0.00000000000000000993 0.92003684711347200054 
-0.00108085878687384914 -0.00000000000000000456 0.92222506517562041761 
-0.00102875232751536245 0.00000000000000009052 0.92364000780158106441 
-0.00097899594450717763 0.00000000000000004696 0.92423613616232525025 
-0.00093149299942795957 -0.00000000000000002837 0.92397643530253836808 
-0.00088615029513034360 0.00000000000000003874 0.92283413535950342688 
-0.00084287798350163518 0.00000000000000002688 0.92079404537310061141 
-0.00080158947390019308 -0.00000000000000003048 0.91785343058538493288 
-0.00076220134239057412 -0.00000000000000003122 0.91402241873744027867 
-0.00072463324189268549 -0.00000000000000006142 0.90932395788224373856 
-0.00068880781334717091 0.00000000000000007769 0.90379337185608132899 
-0.00065436245874715845 0.00000000000000000963 0.89747757314528575634 
-0.00062040952807330290 -0.00000000000000004058 0.89043399910915266293 
-0.00058806175264390517 0.00000000000000000224 0.88272933846362089394 
-0.00055724869692599542 0.00000000000000003083 0.87443811222111222925 
-0.00052790270163972583 0.00000000000000005455 0.86564116817333469633 
-0.00049995879229409448 -0.00000000000000010914 0.85642414144886325200 
-0.00047335458970110766 -0.00000000000000002614 0.84687592638861397543 
-0.00044803022248646261 -0.00000000000000009139 0.83708719748183602061 
-0.00042392824161586887 -0.00000000000000004691 0.82714900976459238002 
-0.00040099353694682472 0.00000000000000001456 0.81715150215617371465 
-0.00037917325581402395 0.00000000000000002751 0.80718272086018327816 
-0.00035841672364931773 -0.00000000000000001778 0.79732757428080158757 
-0.00033867536663455261 0.00000000000000001268 0.78766692594390641524 
-0.00031990263638229154 -0.00000000000000010880 0.77827682767226025184 
-0.00030205393663493432 -0.00000000000000004062 0.76922789172178229755 
-0.00028508655196760865 0.00000000000000001677 0.76058479770140563492 
-0.00026895957848275300 -0.00000000000000000237 0.75240592781971449288 
-0.00025363385647589473 -0.00000000000000011556 0.74474312226816685722 
-0.00023907190505128586 -0.00000000000000010210 0.73764154530101477825 
-0.00022523785866549142 -0.00000000000000008325 0.73113965174359518695 
-0.00021209740557352050 0.00000000000000007045 0.72526924319299768129 
-0.00019961772814920556 -0.00000000000000004528 0.72005560301096493969 
-0.00018776744505249438 -0.00000000000000005954 0.71551769929520170344 
-0.00017651655521258282 -0.00000000000000000864 0.71166844530376260902 
-0.00016583638359451131 0.00000000000000007414 0.70851500725451699303 
-0.00015569952871832601 0.00000000000000003965 0.70605914998954211192 
-0.00014607981189517294 -0.00000000000000003492 0.70429761164924231664 
-0.00013695222814594970 -0.00000000000000015590 0.70322249921428336972 
-0.00012829289876884850 -0.00000000000000011438 0.70282169752064882484 
-0.00012007902551628560 0.00000000000000001301 0.70307928511389417014 
-0.00011228884634946721 -0.00000000000000006505 0.70397595106620503014 
-0.00010490159272831983 0.00000000000000003019 0.70548940762070855293 
-0.00009789744840567101 -0.00000000000000002158 0.70759479424093951749 
-0.00009125750968159707 0.00000000000000001991 0.71026506932144506390 
-0.00008496374708782238 -0.00000000000000010010 0.71347138645218188824 
-0.00007899896845898567 -0.00000000000000004298 0.71718345272069972118 
-0.00007334678335713437 0.00000000000000003623 0.72136986707954819931 
-0.00006799156881003710 0.00000000000000002316 0.72599843730081548010 
-0.00006291843632908957 -0.00000000000000007354 0.73103647448509789797 
-0.00005811320016679091 -0.00000000000000000472 0.73645106448933694843 
-0.00005356234678196827 0.00000000000000003042 0.74220931598833161935 
-0.00004925300547260960 -0.00000000000000004687 0.74827858519036416496 
-0.00004517292014336806 -0.00000000000000002664 0.75462667749069045620 
-0.00004131042217322939 0.00000000000000000261 0.76122202657033188888 
-0.00003765440434721718 0.00000000000000008089 0.76803385163452686513 
-0.00003419429581973691 -0.00000000000000006789 0.77503229363831893650 
-0.00003092003807498216 -0.00000000000000006679 0.78218853146908284835 
-0.00002782206185434129 -0.00000000000000003849 0.78947487915023584204 
-0.00002489126501492572 0.00000000000000008672 0.79686486519987853594 
-0.00002211899129165618 -0.00000000000000008940 0.80433329266346420550 
-0.00001949700992964941 0.00000000000000001507 0.81185617779468632893 
-0.00001701749615802196 -0.00000000000000012388 0.81941020096982675192 
-0.00001467301247548755 0.00000000000000004081 0.82697162119376077527 
-0.00001245649071912733 -0.00000000000000002255 0.83451498763358500366 
-0.00001036121488828121 0.00000000000000002731 0.84201192024283821880 
-0.00000838080469596122 -0.00000000000000008325 0.84943012321625854799 
-0.00000650919982276134 0.00000000000000000540 0.85673271589602539855 
-0.00000474064484476074 -0.00000000000000016818 0.86387790999374125533 
-0.00000306967481319815 0.00000000000000002465 0.87081902415979617338 
-0.00000149110145889819 -0.00000000000000003268 0.87750480267649766386 
0.00000000000000012373 -0.00000000000000009052 0.88387999092078417540 
0.00000000000000007503 -0.00000000000000003652 0.88988611351322910448 
0.00000000000000010531 -0.00000000000000005133 0.89546239961217022341 
0.00000000000000026257 -0.00000000000000004589 0.90054680197463865543 
0.00000000000000015353 -0.00000000000000008999 0.90507706092520334717 
0.00000000000000007614 -0.00000000000000006532 0.90899177029506006420 
0.00000000000000012448 -0.00000000000000008639 0.91223140900812715870 
-0.00000000000000004372 -0.00000000000000005109 0.91473930878435572023 
0.00000000000000009342 -0.00000000000000007859 0.91646253504123154077 
0.00000000000000008915 -0.00000000000000011683 0.91735266425890582553 
0.00000000000000010587 -0.00000000000000013169 0.91736644667962086164 
0.00000000000000006314 -0.00000000000000013565 0.91646634815355099146 
0.00000000000000015573 0.00000000000000003733 0.91462096918712509908 
0.00000000000000011420 -0.00000000000000008214 0.91180534279933034281 
0.00000000000000000864 -0.00000000000000000540 0.90800111567519881106 
0.00000000000000010642 -0.00000000000000001547 0.90319661936955020209 
0.00000000000000010956 0.00000000000000001849 0.89738684001466406670 
0.00000000000000022550 -0.00000000000000017988 0.89057329618497038659 
0.00000000000000019314 -0.00000000000000007579 0.88276383533407931647 
0.00000000000000015023 -0.00000000000000014087 0.87397235960766217477 
0.00000000000000004261 0.00000000000000002024 0.86421849191027266812 
0.00000000000000011911 -0.00000000000000011755 0.85352719292157441799 
0.00000000000000008513 -0.00000000000000000787 0.84192833936921795956 
0.00000000000000007827 -0.00000000000000013964 0.82945627331822258110 
0.00000000000000011521 -0.00000000000000008096 0.81614933157119007312 
0.00000000000000017314 -0.00000000000000006852 0.80204936352577027581 
-0.00000000000000000558 -0.00000000000000003776 0.78720124503621968781 
0.00000000000000016363 -0.00000000000000000632 0.77165239500049276344 
0.00000000000000016912 -0.00000000000000007013 0.75545230056463819057 
0.00000000000000007255 -0.00000000000000011536 0.73865205601976635652 
0.00000000000000011124 0.00000000000000002387 0.72130391967746798620 
0.00000000000000010392 -0.00000000000000013700 0.70346089225799735001 
0.00000000000000010797 -0.00000000000000001212 0.68517631961976233068 
0.00000000000000008961 -0.00000000000000012076 0.66650352200426987714 
0.00000000000000021363 -0.00000000000000005117 0.64749545137121355953 
0.00000000000000025608 0.00000000000064688104 0.62820437785566973776 
0.00000000000000010554 0.00000000721348027298 0.60868160589387954040 
0.00000000000000003086 0.00000020716576790593 0.58897722013506748073 
0.00000000000000004049 0.00000166731981128202 0.56913986088259305163 
-0.00000000000000000417 0.00000750843791905187 0.54921652848613078390 
0.00000000000000014031 0.00002420301659444323 0.52925241583462956374 
0.00000000000000004243 0.00006275379633942431 0.50929076787434079954 
-0.00000000000000001452 0.00013960773107090757 0.48937276689371289606 
0.00000000000000010930 0.00027723470832752821 0.46953744217382775705 
0.00000000000000005575 0.00050435203667545793 0.44982160249567249011 
0.00000000000000006033 0.00085581046364057529 0.43025978992020796898 
0.00000000000000002094 0.00137217941048299705 0.41088425321045912719 
0.00000000000000010578 0.00209908150479207103 0.39172522738243459317 
0.00000000000000021630 0.00308633195358926993 0.37281118118075018408 
0.00000000000000007437 0.00438693885507657894 0.35416631401339099261 
0.00000000000000012073 0.00605601776332924998 0.33581377497553449585 
0.00000000000000007835 0.00814966889423017309 0.31777452393989430446 
0.00000000000000014115 0.01072385919415968537 0.30006738874897198599 
0.00000000000000008920 0.01383334475165160296 0.28270913105012179800 
0.00000000000000010794 0.01753066219730218395 0.26571451942550589065 
0.00000000000000004063 0.02186521114450413333 0.24909640854859627090 
0.00000000000000007284 0.02688244359670890690 0.23286582318183368656 
0.00000000000000011635 0.03262317072367761084 0.21703204591498137521 
0.00000000000000000020 0.03912299256271482145 0.20160270762941684408 
0.00000000000000000440 0.04641185205664830754 0.18658387975904028311 
0.00000000000000007865 0.05451371138933936572 0.17198016750276751141 
0.00000000000000008231 0.06344634578900029687 0.15779480322596817210 
-0.00000000000000001921 0.07322124779096074454 0.14402973936809032596 
0.00000000000000011517 0.08384363332672720159 0.13068574025058524168 
-0.00000000000000002246 0.09531253987239940439 0.11776247225271384289 
0.00000000000000000760 0.10762100618261627449 0.10525859189257692761 
0.00000000000000002921 0.12075632279342282671 0.09317183141654286627 
0.00000000000000028043 0.13470034243890507963 0.08149908156201506049 
-0.00000000000000003989 0.14942983973657159025 0.07023647121607891342 
0.00000000000000003931 0.16491690990451746135 0.05937944374599796876 
0.00000000000000006885 0.18112939683393847190 0.04892282982678227560 
0.00000000000000011702 0.19803134151349349734 0.03886091663619654218 
0.00000000000000002822 0.21558344255245326382 0.02918751332871396056 
0.00000000000000003218 0.23374352134775716605 0.01989601273714717081 
0.00000000000000003161 0.25246698526087890668 0.01097944928417070483 
-0.00000000000000002343 0.27170728299304319764 0.00243055311581755543 
0.00000000000000002685 0.29141634715494907359 -0.00575819950451021342 
0.00000000000000011302 0.31154501980642673731 -0.01359453947978704787 
0.00000000000000009697 0.33204345748212232836 -0.02108636175898174689 
0.00000000000000003076 0.35286151291380435380 -0.02824168571340296766 
0.00000000000000001957 0.37394909130299469613 -0.03506861889602028159 
0.00000000000000014534 0.39525647958605603094 -0.04157532405790210356 
0.00000000000000010804 0.41673464766601658882 -0.04776998928608897077 
0.00000000000000012328 0.43833552106099266110 -0.05366080111951317816 
0.00000000000000006187 0.46001222483894443904 -0.05925592049379359988 
0.00000000000000011032 0.48171929907435234730 -0.06456346136170454386 
0.00000000000000005166 0.50341288637664183270 -0.06959147183367869749 
0.00000000000000004977 0.52505089230565804570 -0.07434791768168758086 
0.00000000000000007884 0.54659311970946400372 -0.07884066805009190548 
-0.00000000000000010004 0.56800137819764284774 -0.08307748321844894701 
0.00000000000000006877 0.58923957010270522350 -0.08706600426362688661 
0.00000000000000010955 0.61027375438676323416 -0.09081374447182029297 
0.00000000000000002128 0.63107219002389491891 -0.09432808235503604977 
0.00000000000000009332 0.65160536043408034956 -0.09761625613123429968 
-0.00000000000000001064 0.67184598056560040913 -0.10068535953243763770 
0.00000000000000013429 0.69176898822252541610 -0.10354233881070493140 
-0.00000000000000000951 0.71135151855346390182 -0.10619399081775705851 
0.00000000000000005058 0.73057276001105841967 -0.10864696204024350268 
0.00000000000000002573 0.74941332564519158588 -0.11090774847897336142 
0.00000000000000014145 0.76785409131237269964 -0.11298269626694470991 
0.00000000000000001437 0.78587483441231609227 -0.11487800292753830300 
0.00000000000000006869 0.80345294534455458102 -0.11659971918080655473 
0.00000000000000010869 0.82056237551378730100 -0.11815375121229912403 
0.00000000000000010674 0.83717290655641696251 -0.11954586332530828252 
0.00000000000000014402 0.85324976967057009070 -0.12078168090372241872 
0.00000000000000010813 0.86875360606938112351 -0.12186669361884848450 
0.00000000000000000386 0.88364073529562914278 -0.12280625881953836920 
0.00000000000000007774 0.89786368398201465979 -0.12360560505074075222 
0.00000000000000014249 0.91137192089212737400 -0.12427124395462581241 
0.00000000000000005318 0.92411274260198661423 -0.12480667063002003070 
-0.00000000000000004932 0.93603225633026843067 -0.12521675310530791525 
0.00000000000000012564 0.94707641093265682031 -0.12550624483890213123 
-0.00000000000000000583 0.95719203298714061745 -0.12567978825309755742 
-0.00000000000000002969 0.96632783416570611212 -0.12574191817454696829 
-0.00000000000000001393 0.97443546344822318250 -0.12569706516003328889 
0.00000000000000016941 0.98147094874063467440 -0.12554955868993986079 
0.00000000000000004801 0.98739656086463412077 -0.12530363021526394474 
-0.00000000000000005433 0.99218275639579622815 -0.12496341604719629625 
-0.00000000000000002791 0.99580992211468588593 -0.12453296008120731675 
0.00000000000000008100 0.99826975636783410462 -0.12401621635024345780 
0.00000000000000006567 0.99956620526325168363 -0.12341705140404181373 
0.00000000000000004323 0.99971593022004123785 -0.12273924651374934491 
0.00000000000000003111 0.99874832343914632382 -0.12198649970297004153 
-0.00000000000000001582 0.99670511376659898239 -0.12116242760808330903 
0.00000000000000004486 0.99363962069749289796 -0.12027056717218653770 
-0.00000000000000009116 0.98961572170638434365 -0.11931296887484799107 
0.00000000000000007401 0.98470659988195807788 -0.11829450138470770648 
0.00000000000000003699 0.97899333670209998104 -0.11721846694855124482 
0.00000000000000009733 0.97256341003106971943 -0.11608809357711695476 
0.00000000000000003651 0.96550915106005219535 -0.11490653600134417833 
0.00000000000000010885 0.95792620670134476235 -0.11367687651008358263 
0.00000000000000003071 0.94991204644027094073 -0.11240212567919791176 
0.00000000000000008755 0.94156454524530475148 -0.11108522300218399981 
-0.00000000000000007025 0.93298066711024940645 -0.10972903743257343689 
0.00000000000000007744 0.92425526733162199911 -0.10833636784836436773 
-0.00000000000000002245 0.91548002581570087077 -0.10690994344866965038 
0.00000000000000015491 0.90674251861428201149 -0.10545242409259036886 
0.00000000000000005745 0.89812543051693749518 -0.10396640059009802648 
-0.00000000000000000785 0.88970590786244296844 -0.10245439495440734901 
-0.00000000000000003649 0.88155504773498283289 -0.10091886062496667475 
0.00000000000000006213 0.87373751733079929593 -0.09936218266979736369 
-0.00000000000000002191 0.86631129545940566139 -0.09778667797547017926 
-0.00000000000000004402 0.85932752681816748641 -0.09619459543253598699 
0.00000000000000010716 0.85283047878709439260 -0.09458811612373636823 
0.00000000000000009220 0.84685758997087978717 -0.09296935352179029610 
0.00000000000000007825 0.84143959950939295478 -0.09134035370303950074 
0.00000000000000007977 0.83660074623195856969 -0.08970309558267887395 
0.00000000000000014739 0.83235902699541020056 -0.08805949117676908910 
0.00000000000000001759 0.82872650397676739242 -0.08641138589567694261 
0.00000000000000004985 0.82570965124902073740 -0.08476055887305458669 
-0.00000000000000000828 0.82330973161861076282 -0.08310872333394021816 
0.00000000000000002475 0.82152319541601093178 -0.08145752700504114985 
0.00000000000000006842 0.82034209368119037631 -0.07980855256975663559 
0.00000000000000006467 0.81975449895248730936 -0.07816331817001020976 
-0.00000000000000001500 0.81974492763314876775 -0.07652327795649234432 
0.00000000000000001779 0.82029475866041745569 -0.07488982268846150481 
0.00000000000000004043 0.82138264392645277123 -0.07326428038382949703 
-0.00000000000000000544 0.82298490659003065151 -0.07164791701984715711 
0.00000000000000000315 0.82507592406664453932 -0.07004193728432916988 
0.00000000000000003259 0.82762849308793318137 -0.06844748537700370838 
0.00000000000000008925 0.83061417477664978293 -0.06686564586023084622 
0.00000000000000006047 0.83400361818927271074 -0.06529744455804696590 
0.00000000000000008317 0.83776686123466448386 -0.06374384950219033619 
0.00000000000000003686 0.84187360828457935558 -0.06220577192353034246 
-0.00000000000000005249 0.84629348415175309484 -0.06068406728707604475 
-0.00000000000000004382 0.85099626442572684493 -0.05917953636854597632 
0.00000000000000003931 0.85595208242786458008 -0.05769292637029579257 
0.00000000000000011752 0.86113161327792364652 -0.05622493207424486550 
0.00000000000000009438 0.86650623575785690189 -0.05477619702930749263 
0.00000000000000007822 0.87204817281731150658 -0.05334731477072499756 
0.00000000000000003551 0.87773061169250155000 -0.05193883006859935370 
-0.00000000000000004651 0.88352780470880065700 -0.05055124020286142633 
0.00000000000000022834 0.88941515191043485355 -0.04918499626185555279 
-0.00000000000000002065 0.89536926591508259055 -0.04784050446168350984 
-0.00000000000000002433 0.90136795795275526100 -0.04651812748343936432 
0.00000000000000009284 0.90738981091513382093 -0.04521818582546514170 
0.00000000000000013704 0.91341317693541568268 -0.04394095916776380450 
0.00000000000000003736 0.91941490333902919918 -0.04268668774574837371 
0.00000000000000002554 0.92536908293293085315 -0.04145557373052995848 
0.00000000000000003275 0.93124601158205699836 -0.04024778261301197729 
-0.00000000000000002710 0.93701145146389630547 -0.03906344458911405193 
0.00000000000000008654 0.94262623843563342341 -0.03790265594352224682 
-0.00000000000000000942 0.94804623090924788897 -0.03676548042944519090 
-0.00000000000000000296 0.95322257096033269352 -0.03565195064193948243 
0.00000000000000015366 0.95810221247883498030 -0.03456206938246580984 
0.00000000000000006628 0.96262866314710782145 -0.03349694406282648779 
-0.00000000000000005388 0.96674288466347335635 -0.03245560111343826631 
0.00000000000000003737 0.97038429717955299036 -0.03143767482362459786 
0.00000000000000003283 0.97349183805215699916 -0.03044306624841067871 
0.00000000000000000970 0.97600503071498823093 -0.02947165305800608648 
0.00000000000000006129 0.97786503320544204687 -0.02852329081664690610 
0.00000000000000006916 0.97901579214806311313 -0.02759781423885215162 
0.00000000000000006033 0.97940564660061979474 -0.02669503842165849017 
-0.00000000000000003154 0.97898929906400800061 -0.02581476005152798930 
0.00000000000000013553 0.97772980077878890448 -0.02495675858472611724 
0.00000000000000002768 0.97560029719186025510 -0.02412079740009123383 
-0.00000000000000002136 0.97258538623816948032 -0.02330662492322582019 
0.00000000000000000434 0.96868201967592315604 -0.02251397572125138705 
-0.00000000000000008697 0.96389993245227778562 -0.02174257156737948588 
0.00000000000000008550 0.95826162220674693248 -0.02099212247465408188 
0.00000000000000013530 0.95180192475071667690 -0.02026232769832739603 
0.00000000000000008565 0.94456724505050815299 -0.01955230370286839894 
0.00000000000000012453 0.93661450954754110754 -0.01886150067552828935 
-0.00000000000000003254 0.92800990666257032746 -0.01819047138138147474 
0.00000000000000006045 0.91882747967968680936 -0.01753887730750633769 
-0.00000000000000000256 0.90914763114427621371 -0.01690637392445267992 
-0.00000000000000002050 0.89905559139132296131 -0.01629261148407584042 
0.00000000000000005054 0.88863989656018316232 -0.01569723578527561225 
0.00000000000000003322 0.87799091397208828269 -0.01511988890776622477 
0.00000000000000001780 0.86719944541999316456 -0.01456020991408392418 
0.00000000000000005218 0.85635543200207830949 -0.01401783552009191851 
-0.00000000000000004669 0.84554677778501086127 -0.01349240073431281876 
0.00000000000000005100 0.83485830390635418219 -0.01298353946646478227 
0.00000000000000006013 0.82437083976106062533 -0.01249088510563844262 
0.00000000000000003813 0.81416045367036693481 -0.01201407106859261713 
-0.00000000000000003755 0.80429782188119880448 -0.01155273131869522830 
0.00000000000000000726 0.79484773185025536790 -0.01110650085607094682 
-0.00000000000000013208 0.78586871347730524739 -0.01067501617955906972 
0.00000000000000004701 0.77741279020793530030 -0.01025791572111121354 
-0.00000000000000001074 0.76952534066516320443 -0.00985484025329054839 
0.00000000000000005001 0.76224506062976415954 -0.00946543327056114346 
0.00000000000000007896 0.75560401471059734924 -0.00908934134507210709 
-0.00000000000000002753 0.74962776687155308064 -0.00872621445766481006 
0.00000000000000002473 0.74433557905805869392 -0.00837570630484788664 
0.00000000000000006673 0.73974066744518329752 -0.00803747458248887763 
-0.00000000000000003475 0.73585050626795966977 -0.00771118124699538519 
0.00000000000000004852 0.73266716975437318204 -0.00739649275474967959 
0.00000000000000004340 0.73018770332909199716 -0.00709308028057959068 
0.00000000000000003229 0.72840451596271893475 -0.00680061991604133560 
0.00000000000000003905 0.72730578628268682806 -0.00651879284829395660 
0.00000000000000001599 0.72687587581748547283 -0.00624728552034308719 
0.00000000000000017578 0.72709574349894046108 -0.00598578977342614955 
0.00000000000000005520 0.72794335628416406703 -0.00573400297230760442 
0.00000000000000009528 0.72939409146897971059 -0.00549162811424266060 
0.00000000000000004563 0.73142112693988936556 -0.00525837392236248695 
-0.00000000000000003672 0.73399581624607890262 -0.00503395492421853351 
0.00000000000000006608 0.73708804596245958152 -0.00481809151621899988 
0.00000000000000002382 0.74066657335678753871 -0.00461051001466993276 
0.00000000000000005099 0.74469934286733652229 -0.00441094269412490962 
0.00000000000000000569 0.74915378034227453341 -0.00421912781373249245 
0.00000000000000012233 0.75399706438860869540 -0.00403480963224863397 
-0.00000000000000000299 0.75919637452877308803 -0.00385773841237451809 
0.00000000000000011723 0.76471911616859311600 -0.00368767041505631667 
0.00000000000000009753 0.77053312264392403996 -0.00352436788436521044 
0.00000000000000009698 0.77660683483731318688 -0.00336759902356604211 
0.00000000000000010816 0.78290945904348552276 -0.00321713796295354211 
-0.00000000000000002145 0.78941110391618551922 -0.00307276472002564194 
0.00000000000000000370 0.79608289745193416831 -0.00293426515253862813 
0.00000000000000015385 0.80289708506146895139 -0.00280143090497372849 
-0.00000000000000000155 0.80982710984994465964 -0.00267405934892182276 
0.00000000000000008759 0.81684767361316523715 -0.00255195351787782443 
0.00000000000000004428 0.82393467651306484534 -0.00243492203691321419 
0.00000000000000004997 0.83106466900757303140 -0.00232277904768095475 
-0.00000000000000001530 0.83821376738380748428 -0.00221534412918069365 
0.00000000000000005533 0.84535636632215427344 -0.00211244221470393645 
0.00000000000000009449 0.85246392054662267768 -0.00201390350534890123 
0.00000000000000009898 0.85950395929463752065 -0.00191956338048573602 
-0.00000000000000009614 0.86643941822120007501 -0.00182926230553016010 
0.00000000000000002453 0.87322831759639574223 -0.00174284573736571452 
0.00000000000000010483 0.87982377782330678517 -0.00166016402774139598 
0.00000000000000005725 0.88617433904879816531 -0.00158107232494901885 
0.00000000000000003106 0.89222453750967833930 -0.00150571861332027311 
-0.00000000000000000648 0.89791568452823111723 -0.00143478333886042217 
0.00000000000000000153 0.90318679261375856004 -0.00136695378885124058 
0.00000000000000009160 0.90797559529012195068 -0.00130210745368119899 
0.00000000000000009079 0.91221961178915855761 -0.00124012589836930052 
0.00000000000000011814 0.91585721367149264260 -0.00118089466990509541 
-0.00000000000000007636 0.91882865722302786704 -0.00112430320411484471 
0.00000000000000005170 0.92107708617796391071 -0.00107024473225608837 
-0.00000000000000001622 0.92254976375244679421 -0.00101861618753642147 
0.00000000000000005194 0.92319977954487908445 -0.00096931811173392739 
0.00000000000000000437 0.92298797242774233140 -0.00092225456208929271 
0.00000000000000003229 0.92188474647480211921 -0.00087733301862157650 
-0.00000000000000000022 0.91987157573863065352 -0.00083446429201357298 
-0.00000000000000000007 0.91694208747715866270 -0.00079356243219828003 
-0.00000000000000000710 0.91310268064558286483 -0.00075454463776825455 
